M[M_sun], R[km], Lambda[1], P_c[MeV/fm^3], rho_c[fm^-3]
0.24162668629717493 15.618656898711224 2160425.4255784233 3.5677272577965504 0.1711233750220791
0.25364454639116174 15.277288323712174 1723169.5928054517 3.784842208161085 0.17388845477812181
0.2660421351710395 14.98123364390718 1382991.5019473017 4.011449000787108 0.17666723532861978
0.278818822117279 14.723440607944177 1116372.6671729684 4.247803025468574 0.17945838191179722
0.2919742480123372 14.498329551967185 905765.787492422 4.494529767581934 0.18226846624251142
0.3055117957729608 14.301134474970112 738575.8335472983 4.751785836293169 0.18509321424006023
0.31942924765258957 14.128062997098075 605036.2569795017 5.020251926701277 0.18793920968511452
0.33372853308937733 13.975875243753615 497612.8769020091 5.300154240181119 0.19080311749162476
0.3484120836214375 13.841933544230747 410944.2721604356 5.592218994935756 0.19369118559285586
0.36348082765064954 13.723801890355052 340608.01661093393 5.8966165231034084 0.19659853323363477
0.378930822285226 13.619937697284527 283253.9766268806 6.214209699101965 0.19953281557419042
0.3947659015896618 13.528372266892825 236357.65832370459 6.545253137448539 0.20249016090509653
0.4109928469361872 13.447784307014873 197830.492127856 6.890454911475874 0.20547437601117932
0.4276033238363588 13.376971684820091 166043.58552126578 7.250517750566146 0.2084884899182657
0.4446007958235585 13.314847493924029 139775.3193370269 7.625696731906449 0.21152798652012805
0.461981564027909 13.260511574779631 117950.20122770182 8.01694871867856 0.2145991485402625
0.4797505839541941 13.21308772771828 99792.97031918235 8.424975341496646 0.21770356610740627
0.49790957370152905 13.171927505891428 84622.19791877066 8.850212325007517 0.2208386319995846
0.5164510995113952 13.136339147304376 71922.08388449955 9.29354334296643 0.2240078996314361
0.5353716448530037 13.105806105036962 61259.27369611935 9.75584869514229 0.22721421905114028
0.5546812614322787 13.079773190140273 52291.21728634485 10.237935944168964 0.23045891163100626
0.5743652315681971 13.057817656703424 44716.48030485582 10.740275683664915 0.23373866628364862
0.5944252809174252 13.039489365833706 38317.486207835005 11.264120942050814 0.23705977226336664
0.6148644651894519 13.024477004074367 32891.094059044925 11.810404851968237 0.2404237830891859
0.6356717997921353 13.012424456747857 28283.18531848502 12.380106827593085 0.24383233244543587
0.6568446774188803 13.002995677369299 24362.26938590818 12.973905693813444 0.24728325438650356
0.678379421636457 12.995961370084236 21020.763284945177 13.593148862804284 0.2507815632438021
0.7002698596957069 12.99105685288866 18165.87519870466 14.239024796659244 0.254329785925982
0.7225067942417177 12.987991154458303 15723.040161915895 14.912723716943203 0.25792990807380606
0.7450977765190007 12.986646500629725 13628.88464702784 15.615260783289674 0.2615816784182668
0.7680213044748914 12.986763662299767 11831.876732655059 16.34793164571635 0.26528728394336104
0.7912699892631507 12.988138176248674 10286.15060898146 17.112339043701343 0.2690512745420977
0.8148458207261756 12.99067591104979 8952.426424454645 17.909938725848217 0.2728760841774802
0.8387322602190065 12.994145954322732 7804.501840568411 18.742074376155447 0.2767625972847293
0.8629143798976008 12.998421779703072 6811.100416223678 19.610134409745392 0.28071168462394014
0.8874002673366591 13.003366260054069 5952.675551688071 20.516184615407866 0.2847295180828376
0.9121594111047542 13.008859808023406 5208.9280766155525 21.462020048413972 0.2888191128517423
0.9371817733460172 13.014757917446655 4563.131297757153 22.44909717699603 0.2929801648622492
0.9624693992802377 13.020968347857714 4002.650951401442 23.479497810319728 0.2972169223619347
0.9879922951612864 13.02735636618393 3514.852277488732 24.555618598980878 0.30153526877407266
1.0137367575295206 13.0338141242779 3090.6553545604174 25.67936889276602 0.3059365870873591
1.0397043497122418 13.040266874223155 2720.1373258618387 26.852777359695427 0.3104226323568939
1.0658583510129287 13.04660230110455 2397.089007438089 28.07891013403226 0.3150019007068546
1.092194199808001 13.052728469609058 2114.617791446477 29.35978245357255 0.3196745598981076
1.1186946678489087 13.058556048548033 1867.4655152794073 30.698231621260025 0.32444584921770525
1.1453280912520567 13.064010225930948 1651.2349892403743 32.097575236382085 0.3293232667426114
1.172093764903054 13.069023656576261 1461.3271733655856 33.559842849382896 0.33430508095576317
1.1989527586749187 13.073479794650384 1294.7498961610204 35.08953686677158 0.3394045840976763
1.225901176753996 13.07734620353368 1148.4555681444417 36.68863005684777 0.3446182250117996
1.2529004626044329 13.080509925348853 1019.6101080844842 38.36222519783694 0.3499607500755387
1.279944384634172 13.08294178900718 906.2397182298481 40.11261960548359 0.35542906068805746
1.3069974737057877 13.084550202359747 806.3459593462018 41.945179022898145 0.36103709535733053
1.33402979847389 13.085244391794005 718.1124414531264 43.863500065593904 0.36678741241003465
1.361040767570125 13.085027218452105 640.266300414871 45.87216150249848 0.37268714875022724
1.3879799927928649 13.083780654229187 571.4528119868719 47.976554609654364 0.37874657554925284
1.4148248921968114 13.081456269609184 510.56304289465464 50.18150395654163 0.3849716806973522
1.4415574701700469 13.07801103972913 456.62445886587125 52.49210574103156 0.39136878489591703
1.4681527966262062 13.073407528790527 408.78555546430454 54.91484200363647 0.3979499107716023
1.494563600568439 13.067535929178995 366.3207876440376 57.45590638836117 0.4047241256806022
1.5207763501367666 13.060383063151042 328.6596684503226 60.12193098643532 0.4117012075866369
1.546760639773516 13.051888350658336 295.11828230612394 62.92002580928417 0.41889170357926414
1.5724781708795657 13.041999564943872 265.30781046420327 65.85782204131719 0.4263069931711473
1.5978918127820616 13.030657716069044 238.76676048696643 68.94351945632964 0.43395935693365584
1.6230009745772516 13.01784485442415 215.09946662360463 72.18593842902825 0.44186205109868587
1.6477427599442371 13.003483528556202 193.96908126588502 75.59457702729323 0.45002938883048454
1.6720790529405674 12.987553613757486 175.14089069664578 79.02188148809286 0.4580503947071876
1.6804237961154822 12.966642042209383 167.17478505719393 84.16450406213406 1.4725085467754815
