M[M_sun], R[km], Lambda[1], P_c[MeV/fm^3], rho_c[fm^-3]
0.24162668629717493 15.618656898711224 2160425.4255784233 3.5677272577965504 0.1711233750220791
0.2536451026539599 15.277272188072532 1723161.104226131 3.7848436105750767 0.17388847225853568
0.2660421743734443 14.981213843888671 1382874.7197316585 4.011451948970225 0.17666727095567286
0.27881978749170966 14.72340956877642 1116425.973163058 4.247807619192317 0.17945843519207003
0.29197475791473243 14.49833243794399 905792.5951013445 4.494536127419992 0.18226853706078422
0.3055123234844435 14.301130957626995 738561.2544636452 4.751794178227198 0.18509330434886856
0.3194298460841167 14.12804720966174 605031.9707161809 5.020262312212377 0.1879393174388006
0.33372976037478663 13.97590188506959 497637.15763028915 5.300166942733026 0.19080324538524512
0.3484127340781919 13.841878646840447 410926.8435023584 5.59223404627678 0.19369133121872076
0.3634780669904603 13.72387010788492 340624.06482814456 5.896634261432009 0.19659869983577083
0.37893252654886017 13.61990722199294 279330.46205491107 6.2142303391244305 0.19953300378634312
0.394766314032581 13.528375520993116 236360.78576710532 6.545276657768265 0.20249036714652613
0.4109940582337534 13.44777873108382 197818.76778749318 6.890481766215348 0.20547460471740986
0.42760411175027246 13.376969999924299 166043.01189233866 7.250548191783448 0.20848874175065504
0.4446014656787888 13.314863308453669 139773.58385713826 7.625730675495591 0.21152825673292328
0.46198336910347 13.260503216035564 117948.00445440836 8.016986756781026 0.21459944279573756
0.4797522469960225 13.213086116447196 99789.15790332177 8.425017770795248 0.2177038851164167
0.4979122976101367 13.17191406235403 84620.36119693148 8.85025898908394 0.22083896986743592
0.5164532813765863 13.136334865981887 71920.33276721528 9.293594997101371 0.22400826327976636
0.5353737752287346 13.105796305409603 61258.412741412336 9.755905689645111 0.22721460926567552
0.5546833715487506 13.079785061634361 52288.75666566252 10.23799804079406 0.230459321390277
0.57436791190178 13.05781566250865 44715.945457296926 10.740343829654888 0.23373910380201324
0.5944284536067151 13.03951267164345 38316.12725218217 11.264195552536622 0.23706023843103213
0.6148677198731194 13.024497238350728 32891.16017431804 11.810486367816871 0.2404242788415518
0.6356747315593436 13.012407695779352 28282.574710274075 12.380195717180547 0.24383285876727911
0.6568481154023105 13.003008711745661 24361.633789619373 12.974001548937796 0.24728380225508712
0.6783821403996432 12.995971911633967 21019.651809194896 13.593253044854704 0.2507821433015468
0.700273828495463 12.991042524936862 18165.613964076743 14.239137864377417 0.2543303993238713
0.722511732164175 12.988003012320261 15723.952371088573 14.912846264976695 0.257930556031454
0.7451004767949816 12.986646161628641 13628.441340224823 15.61539224861524 0.2615823503818067
0.7680256196615645 12.986749694660562 11831.743213393853 16.348073808963708 0.2652879925914933
0.7912742538723871 12.98815593835892 10285.72900463599 17.112492618534255 0.26905202132450534
0.8148505788951883 12.99068062366106 8952.203816051853 17.910104473252815 0.2728768706370635
0.8387375348700311 12.994145196032555 7754.488481031814 18.742251560908613 0.27676341135699223
0.8629195385043117 12.998426438440847 6810.963540156235 19.610325336114247 0.2807125411901462
0.8874062595807866 13.003374781602517 5952.795698233897 20.516390202547836 0.28473041899756174
0.9121652813401825 13.008872954935542 5208.744728486812 21.46224127843184 0.2888200600946134
0.9371885480102352 13.014764817293338 4563.077574264997 22.44933312821811 0.2929811448692955
0.9624745730491353 13.020971564195063 4002.6213099874853 23.47975144436198 0.2972179524451423
0.9879983452060064 13.027355215076598 3514.744626694199 24.5558911099822 0.3015363513309139
1.013745297463538 13.033807112371406 3090.670790632396 25.679659225726965 0.3059377075381704
1.0397098902134025 13.040275538925696 2720.0828466183098 26.853089064744797 0.3104238099224418
1.0658651200196134 13.046601953596406 2396.987489392462 28.07924467063215 0.31500313830320525
1.0922007477374562 13.052729576968163 2114.6899617796907 29.360138635880798 0.31967584193572024
1.118702025817269 13.058560359983879 1867.40248954442 30.698613702672354 0.32444719703464553
1.1453352134528803 13.06401477468055 1651.0426052751338 32.0979819696552 0.3293246642380762
1.1721017380807126 13.069029870238131 1461.2476566831388 33.560279006536476 0.3343065508503404
1.1989605317147098 13.073488886763208 1294.6947824019064 35.09000450692479 0.33940613045688545
1.2259097231743454 13.07734826845239 1148.4126441671729 36.68912782269608 0.34461983072737373
1.2529086102342148 13.080508570763135 1019.5951037795032 38.36275510991316 0.3499624187178659
1.279952963166163 13.0829476237652 906.1881014314478 40.11318768825616 0.3554308181463716
1.3070063827790668 13.084548065138804 806.3310667918437 41.94578391726116 0.36103892404463106
1.3340393359722313 13.085239556139634 718.1425114187165 43.86414855511313 0.36678934005625985
1.3610486880968842 13.085030437119785 640.2294991912688 45.87285222808663 0.37268915728640956
1.3879893890071295 13.083784812467842 571.429158000802 47.97729052233554 0.37874867019430125
1.414833984110495 13.081455614998372 510.52388132765196 50.18229312795459 0.3849738920426198
1.441566945072218 13.07800898560396 456.60160633404627 52.49294691810432 0.391371094452997
1.4681626615050123 13.07340647222234 408.76463760122505 54.9157389119732 0.3979523250875393
1.4945736887701282 13.067532364014653 366.2978333916678 57.456863055391814 0.40472665180864026
1.5207861202425281 13.060379707204987 328.642451954151 60.12295176844438 0.4117038531277999
1.5467704432636875 13.05188467059395 295.10902285309373 62.92111542113618 0.41889447672805546
1.5724884631694171 13.041994042475899 265.2976347368065 65.85898558917981 0.4263099027658131
1.5979018111641776 13.030653089764476 238.7633363249371 68.94476247373164 0.43396241251150575
1.6230103735000574 13.017838106439427 215.09121989102158 72.18726691663106 0.44186526295702583
1.6477528067453762 13.003476379147939 193.96707753664765 75.5959974968011 0.450032768093781
1.6721009241024014 12.98753320427822 175.1260538066693 79.1807822872052 0.45847867157955935
1.6960377483846916 12.969971060127651 158.2583475815705 82.95205122330466 0.4672172263134801
1.7195172486766799 12.95074883894556 143.1863409486189 86.92243873503504 0.47626951935538525
1.7424986592784 12.929801290601056 129.69513075617854 91.10340826724196 0.4856494149714987
1.764933859601275 12.907123398480644 117.6154920404638 95.075577911329 0.5597625331198668
1.774610747337286 12.881929885585798 111.46976865972564 101.32136455092213 1.332430579226279
