M[M_sun], R[km], Lambda[1], P_c[MeV/fm^3], rho_c[fm^-3]
0.24162668629717493 15.618656898711224 2160425.4255784233 3.5677272577965504 0.1711233750220791
0.25363085386393386 15.277543922466377 1723627.8681694665 3.784554809536514 0.17388487249291223
0.2660095844186362 14.981917494968792 1383681.5926485648 4.010844858276847 0.1766599346229238
0.27876859079212674 14.724371354230595 1117216.3642521831 4.246861727530944 0.17944746427422645
0.2919057911052122 14.499442481506398 906804.7215615993 4.4932266423284934 0.18225395564037475
0.30542207820937817 14.302346258960197 739555.2497304394 4.75007666962235 0.18507475197802178
0.31931969654620657 14.129292435770347 605908.2283042893 5.018124158460899 0.18791713326837747
0.33359848231922506 13.977161774701756 498529.3526807644 5.297551891103902 0.19077691615449519
0.34825751784533066 13.843197872840081 411757.30193581345 5.58913559844085 0.19366135288355452
0.36329648302305334 13.72522027143668 341351.08602550166 5.892982852952 0.19656440503460615
0.3787285065473899 13.621182285157337 283929.0017859831 6.209981827816771 0.19949426247875787
0.39453661332045237 13.529613512674446 236981.1366955313 6.540435485319861 0.20244791660425726
0.4107368622652874 13.448958135473825 198368.179374546 6.884954535670091 0.20542753250267415
0.42731891134850913 13.378112008209351 166537.2068928913 7.244283090738504 0.20843691217531804
0.4442866750974642 13.315920797951776 140206.63835206305 7.61874504824215 0.2114726466482423
0.461640879160655 13.261489923884959 118337.55672925472 8.009158838945456 0.21453888752267966
0.4793770318306528 13.214010420141186 100134.91269503611 8.416286587034234 0.2176382388205049
0.497504251792843 13.172774758964557 84927.64187738848 8.840656755758776 0.22076944559544306
0.5160094919254264 13.137125660397878 72199.32177250732 9.282966427949981 0.22393343749032654
0.5348996494986361 13.10648655784421 61500.24244417626 9.744178799105287 0.22713432076563503
0.5541739875612696 13.080390053366669 52501.10512981239 10.225099420791247 0.23037343988655956
0.573821464122988 13.0583361748718 44905.06070606949 10.72632365273093 0.23364908992325414
0.5938499017864862 13.039969814685998 38482.82359411868 11.248846079093338 0.2369643346431898
0.6142485635778295 13.024874578331563 33040.58863218076 11.793717022158212 0.2403222932409117
0.6350141556018596 13.01275043587613 28418.356938579494 12.36191027714671 0.24372458932000482
0.6561470406186272 13.003243308585441 24482.872909053876 12.954283977411269 0.24717110470181222
0.6776450230992027 12.996172446438678 21126.016090670575 13.571823569275606 0.25066282972282244
0.6994963609114158 12.991182241616443 18258.56977649551 14.215881715094946 0.2542042335789972
0.7216922508694233 12.988080861935615 15805.223162319828 14.887641303659937 0.25779728789989026
0.744240333707934 12.986683090548638 13701.790660931707 15.588346156935149 0.2614440699140963
0.7671212142656907 12.986730539558998 11897.073345901146 16.318836903354143 0.2651422539498988
0.7903306065820691 12.988079813178727 10343.12211396744 17.080910259208583 0.26889844700578874
0.8138565554685192 12.990534520718338 9005.113658436181 17.876020388663537 0.2727151440928162
0.837702599468097 12.993978156505461 7850.240303522449 18.705690854358497 0.27659489542930865
0.8618454663254447 12.99822876706138 6852.403402716829 19.57106671386547 0.28053641251123335
0.886275954554222 13.003120139782984 5989.33394526519 20.47411893599272 0.2845451797532537
0.910993474599752 13.00859949285364 5241.068012640553 21.41675573074141 0.2886253041514258
0.9359765886545084 13.014469554521758 4592.393026938065 22.400822663996607 0.29277966001858924
0.9612090477266703 13.020649377964306 4005.793327034595 23.427607894146632 0.2970061819943594
0.9866931170365503 13.027026514784215 3538.06523283302 24.49986934420179 0.3013138034502492
1.0123941738421107 13.033484832481173 3111.2026912505266 25.619825076465993 0.30570626886786106
1.0383118835223788 13.039915743821863 2738.9639431747373 26.78901539912567 0.31018175115144864
1.0644296859625428 13.046271131681161 2413.5560703074293 28.0104810731906 0.3147487518555651
1.0907168807067995 13.052389218195838 2129.568412635025 29.286928627225777 0.31941233085573656
1.1171755097196698 13.058241784150622 1880.772820648006 30.62008419657786 0.3241701791133121
1.143768703299047 13.06371136587601 1663.0407524880868 32.013919168618955 0.32903440628472325
1.1704924664587053 13.068740595959163 1472.0334924085478 33.47064327438004 0.33400446919114246
1.197309107491613 13.073224295684895 1304.2840531636682 34.99390346425683 0.3390883503618341
1.2242192036643493 13.077125669381788 1156.936771592926 36.586840089122006 0.3442898663326646
1.2511789197219811 13.080323141055022 1027.4249852008259 38.25317224471866 0.3496154650147161
1.2781873445389795 13.082815999436631 913.1767992818923 39.99646123097995 0.3550697054833489
1.3051984859673933 13.084455868443326 812.523659747945 41.82129720467585 0.36066206137654305
1.3322114493231583 13.08524645312197 723.7749147514392 43.73091345051465 0.3663932964212711
1.3591827696698695 13.085073017421513 645.3923018818193 45.73094584330454 0.37227651279598856
1.3860861248236112 13.083891007241387 576.0132201984314 47.825838690895715 0.37831694812028865
1.4129078305843172 13.081652790033338 514.6796434936855 50.02017794630618 0.38451962743817863
1.4396230578495568 13.07831830655769 460.3033753946225 52.32015662555249 0.3908966770485777
1.4661848886713933 13.073778921542027 412.1383340319782 54.73150943147819 0.3974564124589963
1.4925799797045491 13.068033061081598 369.3440506835633 57.26036846874434 0.40420779784089267
1.5187748105123324 13.060982866909223 331.36073338677113 59.913298784452685 0.4111604995085469
1.544727195115783 13.052560185103848 297.61032053201325 62.69733729233956 0.418324943599118
1.5704457562332517 13.042830072415521 267.54913144626744 65.62003541573323 0.4257123784418188
1.5958649201385717 13.031627974865462 240.77887644263018 68.68950582564078 0.4333349421650105
1.6209577315311565 13.018945085917101 216.92423421920202 71.91447369706701 0.4412057361571511
1.6456981740541088 13.004735138200003 195.64282985674888 75.30433295965331 0.4493389050718646
1.6700461650653635 12.988937446311452 176.6282506171955 78.86920807875387 0.4577497241500125
1.6939933753380207 12.971556562666507 159.63431338114202 82.61976184690617 0.46645362629430004
1.717482196580895 12.952498583213087 144.44564597624012 86.56661689990277 0.4754637579664843
1.7404899125006306 12.931746722676676 130.83581063170604 90.7236113898599 0.4848039937270665
1.7629660518621433 12.909223636956025 118.64479206226795 95.10247105323896 0.49448714167019864
1.7849264063216428 12.885000174386512 107.6997163631539 99.71903714659756 0.5045396286036087
1.806279987997119 12.85890603297619 97.88079209156743 104.58755083066931 0.5149786848116666
1.8270389991932705 12.831016470048077 89.05353209364414 109.72511198583992 0.5258295011260029
1.8471334987493624 12.801203630396108 81.12739554740956 115.14994410522483 0.5371180956272781
1.8665676351111307 12.769533549142627 73.98307902961126 120.88139372771295 0.5488710666749634
1.885271951672634 12.73587009143239 67.55791027722562 126.94052574095909 0.5611174651184352
1.9032515016307103 12.700308715630195 61.762304183963494 133.35029773281522 0.5738890055196266
1.9204467371979317 12.662729859230275 56.53361599710019 140.13575363833493 0.5872203018697341
1.936825186687513 12.623099040161051 51.815115331859 147.32264125290158 0.6011436119674886
1.9523883310855303 12.58151774771375 47.54782702126433 154.94186253083978 0.615703807362661
1.96706392963969 12.537813456732124 43.693700263392934 163.0240641881369 0.6309390101620582
1.98085501542624 12.492082293316942 40.20379981189674 171.60502953889866 0.6468985420354451
1.9937310606759562 12.444299061686284 37.04087209379189 180.72230627115553 0.6636306656962985
2.0056338246487377 12.39436019583651 34.178144285900046 190.41716752047003 0.6811884957736254
2.0165655588330145 12.342356659106187 31.579368165589845 200.7350193108663 0.6996304442777797
2.026496493333433 12.288256544743398 29.221376896947536 211.7258584396514 0.7190207260897468
2.0354035069038448 12.232072925640578 27.081385858563408 223.4447879018344 0.7394299320342046
2.043258090726142 12.173795798985147 25.135105075052326 235.95034815365096 0.7609283516010904
2.0500332729797295 12.113408156959427 23.36724666171197 249.30989102000322 0.7836021163788756
2.0557117764802895 12.050938789729662 21.7580163311329 263.5956024736688 0.8075385982690549
2.060268824892914 11.98637816642083 20.29312171611302 278.8875272974449 0.8328344506232824
2.063709879270669 11.919816882193883 18.960599101498982 295.2745048027861 0.8595965634493423
2.0659910103046197 11.85121028378116 17.74651194776689 312.85514065512564 0.8879428530957126
2.0671178754775346 11.78063501769727 16.64204425461573 331.73687598626947 0.9179964153493877
