M[M_sun], R[km], Lambda[1], P_c[MeV/fm^3], rho_c[fm^-3]
0.24162668629717493 15.618656898711224 2160425.4255784233 3.5677272577965504 0.1711233750220791
0.25364466275267983 15.277277925239039 1723116.6575809342 3.784842474039017 0.173888458092162
0.26604222500736363 14.981220757937164 1382996.4350568433 4.011449559720963 0.17666724208300558
0.2788181113119658 14.723491396982975 1116319.0562915006 4.247803896373496 0.1794583920129819
0.29197437308384167 14.498355058937126 905832.6181570869 4.494530973316854 0.1822684796686496
0.30551162480851823 14.301145904580359 738606.0066463187 4.751787417804998 0.18509323132340635
0.31942941928225277 14.128051840012805 605036.2689589862 5.020253895645826 0.18793923011367417
0.33372866063265455 13.97592841971859 497635.2975751035 5.3001566484030285 0.19080314173842344
0.34841221222538127 13.841928589728555 410944.7420485764 5.592221848453905 0.19369121320142893
0.36347746234156664 13.723873388683407 340621.9063401989 5.896619886035171 0.19659856481900156
0.37893104526797244 13.619922837363143 283250.2577681557 6.214213612152358 0.1995328512564984
0.39476601415695056 13.528371767368633 236368.36316010225 6.545257596560954 0.20249020000548845
0.41099303625554223 13.44780784888346 197829.3735625335 6.890460002745091 0.20547441937056446
0.4276029708605473 13.376971411385442 166039.2770073268 7.25052352177848 0.20848853766202632
0.4446010005254101 13.31486059423925 139772.1431273128 7.625703167116464 0.2115280377485376
0.4619820861435346 13.260490345172071 117944.46694102975 8.016955930147354 0.21459920432680385
0.47975076355654145 13.213089337020321 99791.53297447189 8.424983385470613 0.21770362658684525
0.49791030907813083 13.17193123302599 84620.79339801168 8.850221171831967 0.22083869605437356
0.5164516066452535 13.13633964779179 71923.35269731718 9.29355313583099 0.22400796857381314
0.5353721564846762 13.105793349380265 61257.413832285754 9.755859500460147 0.2272142930300659
0.5546819746178414 13.079772236867907 52290.93767526891 10.237947716772192 0.23045898931531367
0.5743656228103143 13.057805159729643 44716.582338663706 10.740288603136074 0.2337387492306554
0.594425239085172 13.039492842362838 38317.30658264991 11.264135087092178 0.23705986064184104
0.6148653657164687 13.024472657362429 32890.269931944335 11.810420306161234 0.2404238770764641
0.6356724200898958 13.012422926040154 28283.10315930331 12.380123679734334 0.24383243222821468
0.6568453442110246 13.002996826805303 24361.368789837026 12.973923866513953 0.2472833582542076
0.6783801077993791 12.995960382629141 21020.16316352654 13.593168614162181 0.2507816732140712
0.7002711203377404 12.991056568851118 18165.838938979843 14.239046232602986 0.25432990221702295
0.7225081424145665 12.987986311937046 15724.384101268397 14.912746950208408 0.2579300309168371
0.7450987438570249 12.986653060737883 13628.66446855041 15.615285707135786 0.2615818058124355
0.7680221667610102 12.98676301819155 11831.625379086969 16.347958597722574 0.26528741829235225
0.7912699864110664 12.988144528257203 10286.006914443855 17.112368159166774 0.26905141612074673
0.8148465207075198 12.990671542573267 8893.964565718383 17.9099701490435 0.27287623327829497
0.8387342249358409 12.994143012524393 7804.58039275291 18.74210796769369 0.2767627516204668
0.8629153435234681 12.998425473796965 6811.008383433471 19.61017060647879 0.2807118470158548
0.8874013106755118 13.003366291146484 5952.848291045957 20.516223591593263 0.28472968888252537
0.9121600599339806 13.008861624283501 5208.730920543847 21.462061990242727 0.28881929243450716
0.9371828959984763 13.014764246461478 4563.177936633594 22.449141909733473 0.2929803506565736
0.9624702958437179 13.020968712608495 4002.7524400988536 23.479545895440193 0.2972171176498964
0.9879928223966419 13.027352383152829 3514.871054456185 24.555670262873367 0.30153547401019154
1.013738145608026 13.033813168880227 3090.612130140667 25.67942393541959 0.30593679950755986
1.0397058590683552 13.04027271438734 2720.134193259591 26.85283645415641 0.31042285560512634
1.0658594912266102 13.046598462619732 2396.948496772265 28.078973556990448 0.31500213533595534
1.0921952562997312 13.052729695776904 2114.5979548367513 29.359849980211408 0.3196748029525459
1.1186964763969962 13.058555361671138 1867.456734373679 30.698304057953173 0.32444610474283414
1.1453298526697666 13.064010686701975 1651.240764066143 32.09765234667256 0.32932353168597445
1.172095347309432 13.06902838763803 1461.315789797427 33.55992553796624 0.33430535962481456
1.1989544988999878 13.07348363835484 1294.7305703852862 35.08962552402227 0.3394048772631693
1.2259032946205615 13.077346223444152 1148.4543155641832 36.68872442544315 0.3446185294302803
1.252901528010385 13.080505162488189 1019.6276788692212 38.36232566083627 0.3499610664238925
1.2799463180882726 13.082945444543391 906.2095396376111 40.112727305024556 0.3554293938744571
1.3069986976585108 13.084546423671835 806.3383795862951 41.945293701317 0.36103744204756444
1.3340312403918473 13.085244417262219 718.1102391211477 43.86362300893983 0.36678777786124034
1.3610425491792266 13.085027906048923 640.2537626018724 45.872292453111406 0.3726875295368213
1.387982122911326 13.083780045267781 571.4433768525704 47.97669412699809 0.37874697266065027
1.414826757366051 13.0814575832463 510.5717237525446 50.18165357086082 0.3849720999331624
1.4415592568710076 13.078012571315824 456.6072552375227 52.49226521476506 0.3913692227510396
1.4681545671291962 13.073407708670487 408.77871114361 54.915012043094954 0.39795036848724363
1.4945655384954144 13.067537150439318 366.3202854894502 57.45608775707586 0.40472460459393433
1.5207782580684328 13.060383470759472 328.6624348799165 60.12212451028248 0.4117017091386815
1.54676245550987 13.051887336404281 295.1100969184706 62.920232382120474 0.4188922293235558
1.5724801942741196 13.04199947036487 265.30544229469245 65.858042631183 0.4263075447832618
1.5978942643107388 13.030657835977818 238.77090299152144 68.94375511228553 0.4339599362216995
1.623002978034272 13.01784185031621 215.0978639521875 72.18619028869463 0.44186266001484603
1.6477446078135505 13.003482365057131 193.96760776355532 75.5948463251746 0.4500300294837624
1.6720928727948798 12.987539945570354 175.13416538310094 79.17955685416753 0.45847581265830234
1.6960290565453542 12.969978107425343 158.26344016185612 82.95073956926066 0.46721421213630715
1.7195092323903045 12.950755854499269 143.19128331096172 86.92103410590946 0.47626633856150646
1.7424906398053064 12.929809454894151 129.69950916979454 91.1019100784446 0.48564608205288806
1.764972164967157 12.907145159213597 117.59940509520216 95.50769793313448 0.49537629992745486
1.7868832069038714 12.882668213730325 106.75978580689302 100.15183925007764 0.505473596766331
1.8082348183328816 12.856427247095153 97.02601102378019 105.05098905272338 0.5159641563270126
1.828939019250914 12.82827316267288 88.27728907419515 110.22170176443292 0.5268705352400301
1.84901978594524 12.798296587762252 80.41730328730668 115.68176822000245 0.5382166607300154
1.8683906266518369 12.766347725847242 73.33641969925947 121.45113010984664 0.550030841163896
1.887067364402985 12.732514284300786 66.96466545297594 127.55122936171759 0.5623429257201044
1.904988859543104 12.69668171887822 61.21781612144285 134.0047788844977 0.5751831491042854
1.9221270615870032 12.658848299235911 56.039012564684846 140.83737943731924 0.588587459895073
1.938437453407281 12.61894318112775 51.35905914896429 148.07672461508312 0.6025941288326315
1.9539297118950636 12.577083783736768 47.13520677991583 155.75117804784827 0.6172384048225185
1.968541643724778 12.533140790453938 43.3142943300027 163.89456630737448 0.6325684520938943
1.9822512922472233 12.48712321672622 39.85434974362743 172.54087409319658 0.6486264766818294
1.9950351484434083 12.439024582311175 36.722816666203144 181.72907569693493 0.6654645101650042
2.0068680956635805 12.388848143163408 33.88361502212131 191.50138762390787 0.68313761125684
2.017707752388279 12.336557328530118 31.309626910293815 201.903888053166 0.7017050709959677
2.0275386662412345 12.282160438105985 28.974413348641356 212.98637034182954 0.7212289568635021
2.036342140003837 12.225669865631296 26.853679963161625 224.80477765075852 0.7417809884363709
2.044080083611497 12.16705794974986 24.928109706257146 237.41992066459832 0.7634370209526199
2.050732595200485 12.106330016445419 23.174309485995142 250.89893766413212 0.7862804021576728
2.0562977199149834 12.043564064609756 21.57972433906885 265.31517178820957 0.8103999284969122
2.0607381620279837 11.978694370974143 20.13114535094103 280.74996722382735 0.83589382459484
2.0640351399037358 11.911779052608777 18.81107303983181 297.29362519075266 0.8628707211718805
2.0661843682880043 11.842854036530648 17.60943026717543 315.0464917095473 0.8914507751282612
2.0671721096538196 11.771949763361548 16.51466554014359 334.1178277640018 0.9217591029477062
