M[M_sun], R[km], Lambda[1], P_c[MeV/fm^3], rho_c[fm^-3]
0.24162668629717493 15.618656898711224 2160425.4255784233 3.5677272577965504 0.1711233750220791
0.2536445018766407 15.27725408077279 1723186.2330423568 3.7848292018112066 0.17388829266024505
0.26604035322933334 14.981262755372628 1382933.2195569198 4.011421658648546 0.1766669049150115
0.27881692460023233 14.723468800244218 1116373.9415489498 4.247760422313206 0.17945788777939653
0.2919712892131371 14.498384292536867 905824.8916268662 4.494470785262686 0.1822678094606975
0.3055064760213743 14.301209529495855 738561.5101086684 4.751708471847299 0.18509237855639257
0.31942500393602896 14.128098279841371 605066.5334940081 5.020155610025823 0.18793821036243186
0.3337226069336938 13.975987683468485 497676.98297000653 5.3000364352427916 0.19080193139136956
0.3484050747159152 13.841993274926319 410985.52337392775 5.592079407382233 0.19368983504487633
0.3634685346276675 13.723951760813804 340648.8457920169 5.896452016578043 0.19659698815353524
0.3789226476419462 13.619966959403238 283287.76270705526 6.2140182825271095 0.1995310700855083
0.3947553623893872 13.528430318808994 236391.90340420863 6.545035009342165 0.20248824821628025
0.41098108326090976 13.447836543751913 197850.29349928108 6.890205860462149 0.20547225498823624
0.4275900191921895 13.377022629937924 166067.12436662265 7.250235439206608 0.20848615442873847
0.4445858747021437 13.314901181447116 139796.46239102597 7.6253819402762035 0.21152548057634094
0.4619681346815663 13.260565920995782 117973.32739108229 8.01659595550266 0.21459641963190013
0.4797328875421662 13.213150185791298 99803.04149024637 8.424581855534939 0.21770060764305751
0.49789117042254005 13.171967295181604 84637.10125813175 8.849779566935746 0.22083549864624166
0.5164304650146145 13.136390638513094 71931.03237253902 9.293064308680124 0.2240045272001962
0.5353500121192639 13.105828015331108 61269.764568287246 9.755320136130656 0.22721060025636403
0.5546580398280321 13.079788100356966 52301.82998683235 10.237356752788001 0.23045506893605722
0.5743414289509625 13.057836719905833 44726.17168856608 10.739643710008002 0.2337346088170103
0.5943986003952275 13.039513252587444 38320.189083087695 11.263429019386416 0.23705544911803822
0.6148377688409439 13.024483315064876 32897.638262352404 11.809648892062834 0.2404191855916698
0.6356419487702147 13.012424778681472 28288.281419133902 12.379282487129409 0.24382745146438192
0.6568135258343771 13.00300900831421 24367.8821813277 12.973016758338476 0.2472781735958538
0.6783461139359891 12.995976750678759 21024.841220563998 13.592182707754885 0.2507761839513355
0.7002355952709011 12.991052523914588 18170.34073230848 14.237976240782485 0.2543240974591758
0.7224708499925565 12.987991561103534 15727.863697589397 14.911587246043885 0.25792389912376545
0.7450596948885919 12.986647444728899 13632.063938211999 15.614041618573657 0.26157544685694245
0.7679806186638276 12.986764051455069 11834.710815879362 16.346613275080983 0.26528071219640253
0.791226235552866 12.988142825307998 10287.163103287076 17.110914849358025 0.2690443491672788
0.8148012667674756 12.990667417417198 8954.929301933507 17.90840165120892 0.27286879086822285
0.8386856547299669 12.994139848128714 7806.48763428657 18.740431239198674 0.2767550479205948
0.8628676151536152 12.998410495897835 6813.2131810601095 19.608363842853098 0.2807037412069325
0.8873498004354228 13.003357713946647 5954.380103060679 20.514278095361227 0.2847211634163826
0.9121060004959444 13.008861175019216 5210.413283626333 21.4599684682803 0.2888103285797208
0.9371269516228516 13.014748676064686 4564.565250439847 22.44690908362814 0.2929710767681104
0.9624119260252615 13.020951931018487 4003.942095076982 23.477145740816567 0.29720736990881447
0.9879335763887165 13.027344084890572 3515.9753456488716 24.553091480355924 0.3015252297314553
1.0136769699835122 13.033797842178725 3091.606245532417 25.67667650810625 0.30592619665643306
1.0396416529761854 13.04025981608748 2720.958028352256 26.84988678917978 0.3104117123019895
1.0657936040310585 13.046579813488934 2397.7465503405024 28.075807844507356 0.3149904239889231
1.0921275523028853 13.052706362123592 2115.3700688344434 29.35647944130416 0.31966267108200125
1.1186255774145144 13.058544539212255 1868.2861150020124 30.69468844554045 0.3244333504357624
1.1452573644541417 13.064003907601832 1651.813784799559 32.09380346275408 0.3293103072999304
1.1720217529557975 13.06901214269716 1461.7986393218764 33.555798228369575 0.33429145016593037
1.1988789070999832 13.073467130872054 1295.1726394680904 35.085200305065904 0.3393902442637602
1.2258252228315012 13.077334772388141 1148.8524591179798 36.68401414042484 0.34460333477994776
1.252822306803235 13.08049780210445 1019.9828026302825 38.357311191090815 0.349945276339384
1.2798656108115596 13.082941520421942 906.5199365034097 40.107351646160815 0.3554127633818243
1.3069096956203259 13.084519738466694 806.5878723804201 41.93956971352653 0.3610201375652935
1.3339478292668174 13.085236580418492 718.4645292012297 43.857486505607795 0.3667695369997717
1.3609568139375232 13.085029944174355 640.5004799117047 45.86575629414904 0.37266852327442884
1.3878886062646716 13.0837747508565 571.6971460521928 47.96973038971577 0.37872715161640147
1.414745018613703 13.081478127176213 510.7181743624521 50.174185881651326 0.384951174645041
1.4414691347027233 13.07802483421276 456.7794225631245 52.48430543025647 0.3913473681650525
1.4680641624921873 13.073425947762424 408.9316062105685 54.90652491187764 0.39792752265638387
1.4944736907945182 13.06755855490002 366.4557184263008 57.447035172016356 0.40470070078184145
1.5206863894573528 13.060409180725635 328.77115216041517 60.11246525281114 0.4116766754262753
1.546669915344875 13.051922035466998 295.2271684703175 62.90992184100081 0.4188659881766819
1.5723859727182972 13.042037983738185 265.4128277417072 65.84703249292046 0.4262800125771642
1.5978105537520004 13.030706202814422 238.87103612542143 68.93199301998736 0.4339310227176437
1.6228979523463358 13.017881626709157 215.18676876813612 72.17361946580176 0.44183226778366236
1.6476497894720055 13.003540870441482 194.05867073835398 75.58140516004134 0.44999805327044334
1.671998502456077 12.98760529696734 175.19729621458248 79.16524864169006 0.458442431762289
1.6959352389067552 12.97005165313721 158.3329604939509 82.9354246816386 0.46717901856915584
1.7194162023791761 12.95083680318172 143.24903898887925 86.9046336898746 0.4762291996883457
1.7423951200091596 12.929885801170148 129.76077930098887 91.08441730805669 0.4856071670776323
1.764879734952389 12.907244470698377 117.6547439952021 95.48894425780246 0.4953351501762842
1.7868067719907639 12.882803649184808 106.80498044868808 100.13180833931357 0.5054303709299185
1.8081443561896493 12.856542967418633 97.06479509153023 105.02957701528021 0.5159186878206207
1.8288540315200048 12.828404673795504 88.31251015688005 110.19879527888982 0.5268226438720625
1.8489333372770715 12.798433264722327 80.44520703472297 115.65714996557946 0.538165807911484
1.8683097337823589 12.766494606159316 73.37199441151374 121.42475528823763 0.5499771516923939
1.8869863815352892 12.73266849631583 66.99334887823723 127.52305016153704 0.5622865272819959
1.904909866863141 12.696848857079639 61.2450588995771 133.97453661783817 0.575123441479759
1.9220499277247087 12.659028735780897 56.062126557211805 140.80489672941596 0.5885241712275279
1.9383630407681176 12.619136247961926 51.380858482017466 148.0418068995653 0.6025269628695683
1.953858384508659 12.57728910612589 47.15424250607725 155.71372666596002 0.6171674307049041
1.96847400757489 12.533354086127288 43.33056361023951 163.85435425491076 0.6324933356457066
1.9821868851284217 12.487348652544304 39.87071038479998 172.4975310234056 0.6485464484424935
1.99497626575476 12.43926901835791 36.738360862359244 181.68244445710087 0.6653795707150677
2.006810682159389 12.389105292411946 33.896520061746806 191.45116532584268 0.6830473260292823
2.0176559181141265 12.336826365217616 31.321621120694935 201.84974057133877 0.701608964556933
2.027490573891267 12.28243751572057 28.985061175297258 212.92806528238845 0.7211269556502907
2.0362994170428945 12.225967099419325 26.863860040996684 224.74177520639745 0.7416720872114173
2.044042682539031 12.167367254399364 24.937211308315984 237.3519138370096 0.7633210630643675
2.0507002364382654 12.10665617533625 23.18316780690624 250.82543499874922 0.7861567251682994
2.0562714136051805 12.043905370752617 21.589777633213018 265.2355601241807 0.810267583079038
2.060716223476237 11.979051775900562 20.13786268560458 280.663776703992 0.8357524520816422
2.0640195910273125 11.912152584940252 18.817771914521142 297.20011385349926 0.8627192160500643
2.0661788656353415 11.843245121520418 17.615222428373613 314.9449084517442 0.8912881603124075
2.0671699395465155 11.7723477972555 16.52050655615501 334.00750242501533 0.921584852887503
