M[M_sun], R[km], Lambda[1], P_c[MeV/fm^3], rho_c[fm^-3]
0.24162668629717493 15.618656898711224 2160425.4255784233 3.5677272577965504 0.1711233750220791
0.2536443331448723 15.27728085116625 1723237.7665322982 3.7848258876266963 0.17388825135053396
0.2660406126287554 14.981263596029006 1383033.7114257994 4.011414691542825 0.17666682072165055
0.27881578247162103 14.723481364603966 1116382.7491060256 4.247749566548948 0.17945776186889043
0.2919708703091821 14.498407243789439 905858.5133549941 4.494455755946112 0.18226764210576935
0.3055063373280451 14.301208227010504 738607.6654443046 4.75168875862867 0.18509216561600814
0.3194233802794232 14.128116845681868 605091.7064383375 5.020131067661208 0.1879379557259265
0.3337212877558339 13.975968741099026 497676.4232981369 5.3000064175588815 0.19080162916310092
0.3484032929389151 13.842008309350096 410994.88731596194 5.592043839400143 0.19368949091486518
0.36346692073970555 13.723949962513073 340632.45659863815 5.896410099166883 0.19659659445633898
0.3789198054289629 13.61999322560623 283290.61218328215 6.213969508382162 0.19953062532403426
0.39475170876776017 13.528465977164943 236402.08731040696 6.544979429071445 0.2024877608523913
0.4109783009084029 13.447857232562534 197859.28259060238 6.890142401032163 0.20547171454110078
0.4275858107688042 13.37705081561086 166069.60104169865 7.2501635050695565 0.20848555933605778
0.44458260633069446 13.314906877233183 139792.63720477046 7.625301730221077 0.21152484205272723
0.46196414348539466 13.26058171806979 117976.33842609712 8.016506070397131 0.21459572429793988
0.47972936462712623 13.213138627781206 99805.4841651451 8.424481594406672 0.21769985381953544
0.4978859453329055 13.171982277182284 84635.81142079533 8.849669299438773 0.2208347002624499
0.51642660321957 13.136378906218138 71935.74165175231 9.292942250241829 0.22400366790118115
0.5353449507321908 13.105833357851841 61272.25848279875 9.755185459089402 0.2272096781860509
0.5546521499591276 13.079810816970339 52303.07207104101 10.237208579186731 0.2304540821576755
0.5743346771731781 13.057845604783479 44726.4107764882 10.739482683648422 0.23373357497790206
0.5943917854272806 13.03952269455179 38322.844604576705 11.26325271852136 0.23705434758704297
0.6148292378004883 13.024499165591912 32900.30629561498 11.809456275096812 0.24041801415914207
0.6356347006085514 13.012443726098665 28289.400466939056 12.379072447480386 0.2438262078040345
0.6568055852944038 13.003025545128018 24369.50001217641 12.972790260548015 0.2472768790273633
0.678337887007043 12.995973744526362 21026.51296124464 13.59193653530109 0.25077481332906626
0.7002264626119078 12.991061635247647 18171.217903232868 14.237709073606938 0.25432264806420934
0.7224565384276233 12.988025498992599 15727.993531773576 14.911297679266731 0.2579223680750616
0.74504903466197 12.986654780999553 13632.85024497001 15.613730982504707 0.261573859091411
0.7679708683431844 12.98675241045124 11835.242189518662 16.346277362778423 0.26527903775782397
0.7912161211472962 12.988144293919868 10288.067829410546 17.110551974788248 0.2690425846311256
0.814791306540139 12.990664652814557 8955.560409960315 17.90801001654976 0.27286693258976835
0.8386743670119349 12.994129902076338 7757.129052436572 18.740012581564816 0.2767531244053865
0.862853750873161 12.998415580258987 6813.622834327827 19.607912718295612 0.28070171729555243
0.8873364712899366 13.003371445297358 5954.899329535366 20.513792332420337 0.28471903472785687
0.9120928483903497 13.008852592141725 5210.531948483424 21.459445746791047 0.28880809043767713
0.9371126022939261 13.01474426910958 4564.8425404410045 22.446351581152953 0.29296876122022225
0.9623975162318946 13.020948313074104 4004.2049295011857 23.476546460579574 0.2972049360537085
0.98791880377211 13.027338605486479 3516.2770160114496 24.552447601328407 0.30152267190574267
1.0136607539091662 13.033791852562992 3091.593869618348 25.67599052278275 0.30592354930695637
1.0396254252870456 13.040250992855775 2721.156406176775 26.849150310608895 0.31040893001856606
1.065777020769098 13.046578079825665 2397.9602414783567 28.07501742492491 0.31498749988318686
1.0921091901114957 13.05270450187979 2115.5837543497887 29.355637882254637 0.3196596419861429
1.1186082988278903 13.05854226071429 1868.4158064359376 30.69378569886889 0.3244301659383819
1.1452392479252793 13.063997813280817 1651.9346115652097 32.09284247501421 0.3293070054407097
1.1720031469727075 13.069013713930644 1461.8769031553056 33.5547677263831 0.33428797726798676
1.1988599092915206 13.073463151103164 1295.2688405270897 35.084095424622106 0.33938659072366634
1.2258067522649843 13.077336638731992 1148.9532183984286 36.682838088009234 0.344599541016904
1.2528020010973595 13.080493531265194 1020.0568477319273 38.35605919359439 0.34994133391929244
1.279846199917844 13.082937350766642 906.6368777251897 40.10600947211687 0.3554086111437237
1.3068884266129188 13.08452401734696 806.6710711144929 41.93814057359297 0.3610158170587606
1.333925934886067 13.085235319898276 718.4976799547811 43.855954375372 0.3667649827163515
1.3609355210559326 13.08503108973323 640.5623415753062 45.86412438416862 0.372663777901884
1.3878659730267457 13.083774661857738 571.7469017942025 47.96799172903015 0.37872220282683833
1.414723024216822 13.081481103768901 510.7547855786142 50.172321403571495 0.3849459501719916
1.4414464164973362 13.07802745778078 456.81775819843335 52.48231809482136 0.3913419116865379
1.4680416450427871 13.073429367991134 408.975320354202 54.904405918606486 0.3979218187075905
1.494450832352746 13.067564761820465 366.48887168722746 57.44477500753945 0.40469473270238127
1.5206628170169976 13.060417446831972 328.79010420350556 60.11005362703919 0.41167042526199654
1.5466469403778236 13.05192759763789 295.26111725278514 62.90734761692464 0.4188594365717481
1.5723631819478188 13.042046121421045 265.438632461574 65.84428360933174 0.426273138655357
1.5977871460296444 13.030717533196022 238.8942476179023 68.92905640632469 0.43392380395172236
1.6228755847721688 13.017893480013626 215.21048993914673 72.17048094822968 0.44182467985147705
1.647626050551075 13.00355502839411 194.07064966702904 75.57804935775557 0.4499900698963324
1.6719740981601223 12.987623401747939 175.20220063623853 79.16167637702294 0.45843409770968996
1.69591222338743 12.97006877205038 158.3488670031565 82.93160109810022 0.4671702319853207
1.7193916162093261 12.95085923927589 143.25693684774373 86.90053910272779 0.47621992746303343
1.7423748931879472 12.929921389773568 129.7640064508804 91.08005001303329 0.4855974514537487
1.764856448635237 12.907268235400217 117.66394477723759 95.48426217882866 0.4953248766495582
1.786784012023093 12.88282997760967 106.81269761259621 100.12680739943531 0.5054195791186209
1.8081223666046276 12.85657224433255 97.07482914299847 105.02423127961191 0.515907336139724
1.8288320391523554 12.828436465096424 88.3206682193746 110.19307645860354 0.5268106873400944
1.8489123245913095 12.798467930917788 80.45565744558002 115.65100381106282 0.5381531120771275
1.8682877535530005 12.76652951381736 73.37635142796566 121.41817061613153 0.549963747712999
1.886966270838423 12.732707615427774 67.00003174353313 127.5160150360286 0.5622724470352881
1.9048901364227844 12.69689041453109 61.251554755517134 133.96698646365147 0.5751085351310924
1.9220310589837506 12.659073121669035 56.068356464609906 140.79678726917962 0.5885083709151157
1.9383435489776792 12.619185483576281 51.38507564206877 148.0330895647443 0.6025101946423257
1.9538406879558619 12.577338976740467 47.15595220948875 155.70437682818698 0.6171497118263922
1.9684564531185436 12.533407674354455 43.33349934865554 163.84431524863803 0.6324745826985593
1.9821713174047557 12.487406592815693 39.8744795040628 172.48671040330808 0.6485264693505857
1.9949615811575852 12.43933024349724 36.74225249415462 181.67080299397415 0.6653583656285643
2.006797035804929 12.389168633503777 33.89967456815297 191.43862741332293 0.683024786473576
2.017642819444617 12.33689353571484 31.323848276622776 201.83622280626287 0.7015849718573408
2.0274787680775392 12.282507781287304 28.990171420379383 212.91350965438954 0.7211014914499422
2.036288683511354 12.226041397767212 26.867313255720596 224.72604697373322 0.741644900586821
2.0440335687486364 12.167444750336793 24.94008567372628 237.33493636794393 0.7632921149200337
2.0506915539320967 12.10673780210273 23.184424677991455 250.8070856212077 0.7861258501550004
2.056264822366246 12.043990138121698 21.59124431538505 265.2156649626983 0.8102344763744468
2.060710740221357 11.979139849375672 20.1388148641925 280.6422601306775 0.8357171598934678
2.064016437594078 11.912243429691745 18.81970217092323 297.17676984601314 0.8626813945751315
2.066176476189322 11.843342149456545 17.61712581238244 314.9195495334267 0.8912475656718966
2.0668114068102836 11.77532348892456 16.582525705954176 334.5142438416884 1.4769081451342367
