M[M_sun], R[km], Lambda[1], P_c[MeV/fm^3], rho_c[fm^-3]
0.24162668629717493 15.618656898711224 2160425.4255784233 3.5677272577965504 0.1711233750220791
0.25364373313637895 15.277278375701396 1723265.5395844446 3.7848153733099545 0.17388812029464804
0.26603944004005264 14.98127510123113 1383040.8641240615 4.011392588317607 0.17666655361721822
0.2788141594614517 14.723546982059306 1116488.453116491 4.247715126594809 0.17945736241732232
0.29196757155186925 14.498467811454018 905944.227328848 4.494408075497415 0.18226711117290703
0.3055046221314738 14.30119670656397 738650.8227166167 4.751626218673629 0.1850914900651344
0.3194203826793322 14.128140218360963 605118.320342499 5.020053207479298 0.1879371478964879
0.33371722585255137 13.975988585596852 497703.2036276435 5.2999111872609905 0.1908006703520168
0.34839763529889867 13.842055065693579 411022.68856111984 5.5919310011837675 0.19368839917408104
0.3634594495764549 13.72401474357787 335743.5833067872 5.8962771179157 0.19659534546828603
0.37891291158395635 13.620022361897648 283319.6100895539 6.213814774788868 0.1995292143399748
0.3947434723410898 13.528521037423001 236417.58343491465 6.5448031037532655 0.20248621471755474
0.4109687478272367 13.447918901477022 197881.35932990434 6.889941079981086 0.2054700000065487
0.42757638010122845 13.377074775830364 166092.5159378084 7.249935299063548 0.20848367144625424
0.444570764324768 13.314947435705953 139810.98830203 7.625047269964622 0.21152281638546844
0.4619517018433387 13.260587033464073 117986.3012994169 8.016220917423714 0.21459351840915422
0.47971560716317196 13.21317436333851 99818.71636051683 8.424163525079685 0.21769746238284926
0.4978715981599166 13.172009954372914 84649.58838795703 8.849319486501535 0.22083216746732073
0.5164104837668786 13.136406212333423 71942.19546471178 9.292555032539834 0.2240009418644189
0.5353272816913948 13.105860381304877 61280.64651345582 9.754758211119889 0.22720675302029608
0.5546328870233569 13.079820579794935 52303.827362060794 10.236738515907392 0.23045095171960736
0.5743148599480112 13.057880815730478 44734.556151907076 10.738971847469154 0.23373029525139394
0.5943713122630011 13.039561075301954 38332.432101574275 11.262693427079146 0.2370508531239909
0.6148070696243211 13.024511336674102 32904.57599299995 11.808845224281983 0.24041429795067215
0.6356097446421121 13.012460504025828 28295.817880824634 12.378406127044812 0.24382226247129252
0.6567792586489213 13.003038333231054 24373.579013282324 12.972071730346022 0.2472727722033759
0.6783098240520081 12.996004430174695 21030.28668714743 13.591155591870312 0.25077046524527097
0.7001980914964946 12.991067105804673 18174.31508320655 14.236861529548854 0.2543180500963298
0.7224313383281804 12.987992419003051 15731.821815302588 14.91037907813027 0.25791751108458383
0.7450181386229937 12.986645366120186 13635.769271014507 15.612745544400942 0.2615688221854915
0.767937004702848 12.986762619050113 11837.939167716231 16.345211742587658 0.2652737259084398
0.7911810414101685 12.988129388670162 10289.957414192315 17.10940082424373 0.2690369869758399
0.8147537581039449 12.99067055242609 8957.559700704453 17.90676763279541 0.27286103756768865
0.8386355349935223 12.994125351637344 7808.351280381381 18.738684475111764 0.2767470224434155
0.8628166088069665 12.998389888097552 6815.542103951879 19.606481620239986 0.28069529686112316
0.8872902576544511 13.003342709739384 5956.236151404015 20.512251354744837 0.2847122819247505
0.9120497697445159 13.008837670802558 5211.919288944667 21.457787529795826 0.2888009904327017
0.9370698468499009 13.014738272273439 4565.961532702099 22.444583032432465 0.29296141567569634
0.9623460829245751 13.020932466912134 4005.0632809786775 23.474645385739837 0.29719721522391995
0.9878708003808035 13.027330272666264 3517.153424921242 24.550405051970227 0.3015145578267863
1.013612071063986 13.033785623707187 3092.309929094303 25.673814405424224 0.30591515125097324
1.0395744757920435 13.040237545703336 2721.768657031874 26.846814021350152 0.31040010393844103
1.0657249884636502 13.046559657394466 2398.7016765656704 28.072510027429434 0.3149782239295511
1.0920566347367766 13.052693007938798 2116.160807640207 29.35296826328339 0.3196500329970008
1.118552766039466 13.058530476479357 1868.9147024084602 30.690921985399637 0.32442006400355516
1.1451828186983777 13.063992128864907 1652.3708341011586 32.0897940137187 0.32929653122795965
1.1719442824094213 13.069002518208473 1462.304611318996 33.55149875866883 0.334276960509745
1.1988002095535002 13.073457229689787 1295.636908985967 35.080590521393695 0.33937500095887135
1.2257447439324023 13.077326319405975 1149.2250133734155 36.6791074203413 0.3445875064605022
1.252738712459075 13.080489789760001 1020.3392836452757 38.35207999633301 0.3499287830890953
1.2797790474498947 13.082938060001538 906.854113812193 40.10175185349687 0.3553954394940919
1.3068233945013015 13.084523720977304 806.9030883815221 41.93360709284541 0.3610021116596414
1.3338594014483323 13.085234939606133 718.7295387663402 43.851094204016626 0.3667505357735878
1.3608665612491344 13.08503547980844 640.7384115823071 45.85894770599811 0.37264872482496275
1.387796514488935 13.08377781689663 571.8939004129536 47.96247643266991 0.3787065045130207
1.4146523914335478 13.081489434809553 510.8620246460058 50.16640701127992 0.38492937739301114
1.441376000942272 13.078038825021538 456.9504475647711 52.47601399563992 0.39132460299212757
1.4679689992839478 13.073443285448471 409.09171836669054 54.897684198350184 0.3979037250455356
1.4943783885196837 13.067581295231854 366.6047123554191 57.437605490921754 0.4046758012284542
1.5205906416612556 13.060436548386772 328.90344267628603 60.10240367522677 0.41165059902854517
1.5465725514783264 13.051954950603294 295.3421612233912 62.89918190489295 0.4188386541854246
1.572288596239161 13.04207803222684 265.51088320639184 65.83556388077022 0.42625133390067116
1.5977124982436393 13.030753484689818 238.96645702236938 68.91974120356906 0.4339009053767216
1.6227993805547873 13.017938214944317 215.27391181905762 72.16052531438696 0.44180061031140744
1.6475517104008737 13.003600883149318 194.13714675444052 75.56740450783862 0.44996474605064496
1.6718999119194335 12.987671876498329 175.2673526474775 79.15034491876003 0.45840766154720286
1.6958377802028541 12.970129505169048 158.39587712524346 82.91947247428016 0.4671423604431065
1.719318372644708 12.950920952657015 143.30451410261557 86.88755087786481 0.47619051552404695
1.7423044611434424 12.929987149109333 129.8021341401222 91.06619678089692 0.4855666331114368
1.764784560332396 12.907344265848145 117.70292934126957 95.46941048500814 0.4952922887170939
1.7867127080839253 12.882912097007484 106.85018518485917 100.11094431209933 0.5053853472643505
1.808050815839812 12.85666410957282 97.10311754386387 105.00727453994897 0.5158713284675069
1.828762956126784 12.828535472548158 88.34792031586936 110.17493634211478 0.5267727611819282
1.8488441883061564 12.798576064167962 80.47967538569517 115.63150825517987 0.5381128409860725
1.8682301805095123 12.766675080720823 73.39560216389587 121.39728414974245 0.5499212305214669
1.8869015695307365 12.732831779453981 67.02285521097943 127.4936334922654 0.5622275479619827
1.904824768300735 12.697023787410973 61.2677794199088 133.94303764910092 0.5750612527351286
1.921969326472584 12.659215609168374 56.08538698034864 140.77106444309467 0.5884582530680058
1.9382875681197378 12.619333504581412 51.403638121432024 148.00543868554055 0.6024570068004602
1.9537840843462952 12.57749930861263 47.171705514929016 155.67471978180043 0.6170935087547774
1.9684020694073678 12.533580511751316 43.34711315508973 163.81247231343198 0.6324150998309611
1.9821199872528612 12.487588630234255 39.88725659308307 172.45238838269657 0.6484630974922185
1.9949127305345822 12.439521119308619 36.75153344339995 181.63387746721168 0.6652911052695651
2.006750970991665 12.389370044829842 33.90873913714371 191.39885858990814 0.6829532935827679
2.017601226852459 12.337107269960914 31.333127413154763 201.79334616923646 0.7015088700560504
2.027441364349181 12.282730879553672 28.99754918094559 212.86734121834616 0.7210207225332541
2.0362535136924578 12.226275404662816 26.874165492772804 224.67615940681765 0.741558668739753
2.0440034039599153 12.167690543961637 24.94729760195619 237.2810866291711 0.7632002961687048
2.05066628432085 12.106996272283169 23.192205492843954 250.74888465833055 0.7860279201026712
2.0562428925962006 12.044261427972907 21.597243054143373 265.152561342206 0.8101294682837045
2.060693834627215 11.979422517899017 20.145761901653145 280.5740139938661 0.8356052203449479
2.064003976806617 11.912536317355125 18.824713412812798 297.1027278143653 0.8625614332169282
2.0661697151165184 11.843647435943632 17.62182774713517 314.8391170449119 0.8911188090776374
2.067166319768959 11.772766990019253 16.526204268287447 333.89260788046386 0.9214033861320954
