M[M_sun], R[km], Lambda[1], P_c[MeV/fm^3], rho_c[fm^-3]
0.24162668629717493 15.618656898711224 2160425.4255784233 3.5677272577965504 0.1711233750220791
0.2536436934028281 15.277291849300225 1723164.7111792087 3.78481380382318 0.17388810073175254
0.26603837170692907 14.981313701378577 1382843.410252355 4.011389288945715 0.17666651374625608
0.27881398091235304 14.723541956096508 1116394.86739924 4.247709985717538 0.17945730279089311
0.2919677312200264 14.498466747194405 905966.9939475274 4.494400958216961 0.18226703192033733
0.30550367517488364 14.301206227973946 738664.6816580695 4.751616883328655 0.1850913892255919
0.31941903917488157 14.128164034304863 605126.9401510785 5.020041585306363 0.18793702731195797
0.3337162733771885 13.976004542517677 497698.27301877853 5.299896972284483 0.19080052723079027
0.34839679131800816 13.842062191126988 411027.04791349 5.591914157915605 0.19368823621082815
0.3634602077567123 13.723988295895376 340663.170771438 5.8962572679541205 0.19659515903324618
0.37891185753219486 13.62002700917011 283316.7497691956 6.213791677926927 0.19952900372440432
0.39474362895162346 13.52848147124461 236420.5417336846 6.544776783974591 0.20248598392865202
0.41096704010148427 13.447913177099228 197876.98757305578 6.889911029192324 0.20546974408142127
0.4275744264743771 13.37708917935156 166083.69217045335 7.249901235279455 0.20848338964529825
0.4445695665433383 13.314959750888528 139816.55704238822 7.625009287336897 0.211522514019329
0.46194991482338454 13.260592017558926 117990.69395391857 8.016178353456459 0.214593189142456
0.4797133520406101 13.213191301268315 99823.35962637953 8.424116047875279 0.21769710542064405
0.49786954940019634 13.172010100797824 84654.41749815796 8.849267271118126 0.22083178940563494
0.5164069297587232 13.136425321523683 71944.00028482519 9.292497233986058 0.224000534958997
0.535324385623577 13.10586438242647 61282.341167471 9.754694437518559 0.22720631639246405
0.5546304309485218 13.079841113921358 52304.590347117046 10.236668351569685 0.23045048445248942
0.5743119000998611 13.057853709721 44734.6614433949 10.738895597260074 0.23372980570143229
0.5943658213197054 13.039555095254707 38331.528823479435 11.262609944330139 0.23705033152226437
0.6148040868092733 13.024513675799078 32906.314227508825 11.80875401583263 0.24041374325112214
0.6356025522218862 13.01246735022547 28297.53396579587 12.37830666896832 0.2438216735726415
0.6567760744755732 13.003023816914748 24374.287320324325 12.971964479368568 0.2472721592007691
0.678306760208193 12.995986230925164 21031.29210966006 13.591039025039477 0.25076981623238703
0.7001938336866209 12.991055089802188 18175.32924236048 14.236735021872835 0.2543173637860132
0.7224265127093749 12.98800107987357 15732.23441692625 14.910241964461118 0.2579167861129296
0.7450135529057924 12.986653649143264 13636.117220802973 15.612598454638432 0.261568070360194
0.7679327228555394 12.9867477382294 11838.004764917812 16.34505268488107 0.2652729330456655
0.7911758804809157 12.988138942148742 10290.273961453555 17.10922900034217 0.2690361514543911
0.8147493198307488 12.990664228004865 8957.885988041458 17.906582191526198 0.27286015766212596
0.8386303768409957 12.994131119055705 7808.790115570168 18.738486238968694 0.2767461116509082
0.8628081989245409 12.998405738202814 6815.530033577185 19.606268011747908 0.280694338534535
0.8872848871409662 13.003339514240482 5956.33532257986 20.512021345847902 0.28471127399010066
0.9120439677344844 13.008839553358092 5212.212584416485 21.45754002204083 0.2887999306761698
0.9370623326456604 13.014731413283885 4566.098185585226 22.444319056825655 0.29296031927131055
0.9623388230629959 13.02093285230625 4005.198230806136 23.47436162968677 0.2971960628062763
0.9878637374536214 13.027326444623545 3517.1832369684075 24.550100179909535 0.3015133467148188
1.0136040653167746 13.033779291661917 3092.436299011329 25.67348959744626 0.3059138977544318
1.0395675706090801 13.040238777846369 2721.9380696484686 26.846465306758613 0.3103987865575071
1.0657169588380968 13.04656304687081 2398.8187615711527 28.072135773971997 0.31497683940327414
1.092046456264236 13.052688432853605 2116.0492268979865 29.352569797343502 0.31964859876427654
1.1185453722906822 13.058527972722237 1868.9968139659518 30.690494549892485 0.3244185561971065
1.1451739847033686 13.063983151997784 1652.4447118723622 32.0893390036615 0.32929496785821977
1.1719365421090628 13.069000840140935 1462.3822492372906 33.551010837081975 0.3342753161636905
1.1987904851955375 13.073456407623143 1295.6672439291688 35.08006738550789 0.33937327109031945
1.2257350882985791 13.077326871175597 1149.3054775798928 36.6785505882031 0.3445857102062201
1.252728839414855 13.080490882092548 1020.3066555073582 38.35148306160184 0.3499268921307281
1.2797714191770317 13.082933559083099 906.9290473272052 40.10111637220484 0.35539347352727496
1.306813093918121 13.084521643433439 806.9298932025815 41.93293043830081 0.3610000660304404
1.3338497599989212 13.085237093997671 718.7620212122644 43.85036879019277 0.3667483794685469
1.3608567670298672 13.085032195055783 640.7606334801866 45.8581750528134 0.3726464780544586
1.387786081488082 13.083777537906844 571.9308748343806 47.961653240068294 0.3787041614411441
1.414642801944734 13.08148856593638 510.9328997076829 50.16552425319169 0.38492690380756595
1.4413649772400585 13.078041243725385 456.98043465004446 52.47507307335322 0.3913220195720614
1.4679586051835796 13.073448031419368 409.11605722927646 54.8966809457952 0.3979010244700886
1.4943676565036692 13.067585197169493 366.62557821749186 57.43653540458264 0.4046729756109532
1.5205784992446538 13.060443048547143 328.9117349147859 60.10126188393042 0.4116476398699323
1.546561542259119 13.0519590497366 295.3552690214785 62.89796313658356 0.4188355523231808
1.5722774708215124 13.042084974515697 265.5279088306712 65.83426242593283 0.4262480794526383
1.5977013676538174 13.03075865587311 238.98294565589666 68.91835087492787 0.4338974876792757
1.622788529196474 13.017942602774927 215.2897271056504 72.15903940245272 0.4417970178513586
1.6475405318667 13.00360950363039 194.14463914079624 75.56581573183233 0.4499609663901773
1.6718893970535387 12.98768010638455 175.27381689658912 79.14865366779267 0.45840371587804524
1.695826810929986 12.970136975003182 158.401749199062 82.91766224867395 0.46713820054993566
1.7192920799278082 12.95089781471596 143.32038305115665 86.88561235970921 0.4761861257341936
1.7422945400085694 12.929995762251458 129.80971256853832 91.0641291632739 0.48556203342328824
1.7647733410253794 12.907356526074942 117.70651688115784 95.46719385126532 0.49528742492771194
1.786702413781329 12.882925141926934 106.84831777374065 100.10857673219591 0.5053802381296334
1.8080399395628728 12.856677656411739 97.1086672703364 105.00474373762177 0.5158659543034604
1.828752946079143 12.828549565321826 88.3541640306353 110.17222892698081 0.5267671006970766
1.8488327356903604 12.798592838099328 80.48292477055574 115.62859854914115 0.5381068305374588
1.8682198710612692 12.766691541592296 73.39704070929572 121.39416685906093 0.5499148848599988
1.8868918400187595 12.73285041287074 67.02500754876972 127.49029111656832 0.562220839840628
1.9048161650949016 12.697043394664606 61.270519598991925 133.93946332389783 0.5750541959073596
1.921960566925874 12.659236923213262 56.08832010834297 140.76722536062604 0.5884507730754276
1.9382753638043668 12.61935760332997 51.404459198175154 148.00131185741952 0.6024490686412469
1.9537753973200511 12.577523234828918 47.172068180795954 155.6702935504296 0.6170851206032577
1.9683939801864725 12.533606236208069 43.34968666736191 163.8077198581551 0.6324062222050083
1.9821126088460745 12.487615737285923 39.88934162586643 172.44726594913254 0.6484536394787179
1.9949049960519072 12.439549860590837 36.7527145760086 181.6283664874256 0.6652810669434708
2.006744357362494 12.389400467222103 33.91068289066275 191.3929232794518 0.6829426236039772
2.0175954959555185 12.337138816880643 31.33575263076096 201.7869470538882 0.701497512257528
2.0274349867885912 12.282764148747972 28.99802364353532 212.8604508413426 0.7210086682309246
2.0362490543638785 12.226309915854255 26.87579423309361 224.66871399786393 0.7415457991731264
2.043998939087386 12.16772722511761 24.94778768282368 237.27304991894434 0.7631865928395034
2.0506625364529714 12.107035261228708 23.193166290775917 250.74019023486608 0.7860132775518709
2.056239623561228 12.044301432933016 21.598191759086607 265.14314362541336 0.8101137966558037
2.060692477537959 11.979463891525116 20.14660341104119 280.5638288349288 0.8355885143137157
2.064002805466489 11.912580171223205 18.82565330654458 297.09167771274315 0.8625435300723308
2.0661684090358334 11.843692963075936 17.62280199693683 314.8271132770677 0.8910995934062782
2.067166774393156 11.772813856778708 16.527395728545926 333.8795712827853 0.9213827958674182
