M[M_sun], R[km], Lambda[1], P_c[MeV/fm^3], rho_c[fm^-3]
0.24162668629717493 15.618656898711224 2160425.4255784233 3.5677272577965504 0.1711233750220791
0.25364470346753426 15.277276473745019 1723146.6064159735 3.7848331040271885 0.17388834129948477
0.26604038634004057 14.981277539538025 1382910.1462264417 4.011429861929951 0.17666700404682603
0.27881708399680794 14.723480139886165 1093981.268572976 4.247773204235713 0.17945803603043567
0.2919721553281076 14.498376535021396 905834.7122659353 4.49448848128112 0.1822680065099698
0.3055087521179167 14.301185483578152 738616.4501063114 4.7517316828781135 0.18509262927982428
0.3194258411947375 14.128097590025506 605065.9952385026 5.020184507096745 0.1879385101806959
0.3337260338462072 13.975902890452085 497646.4733722803 5.3000717791978795 0.19080228724635107
0.34840717275915606 13.84197556961913 410974.50280420214 5.592121286517258 0.19369024023702824
0.363470463779629 13.723945539079477 340635.1144586764 5.896501371840187 0.196597451708602
0.3789255080899478 13.619949111199826 279364.4137394967 6.214075711256211 0.199531593766369
0.3947585587950593 13.52841057436885 236392.46211784586 6.545100451962891 0.20248882205965538
0.4109847354374186 13.447832700674152 197841.38348361853 6.890280580436077 0.20547289133488925
0.42759314130184106 13.377022392618233 166060.9985330655 7.250320137780787 0.20848685511833626
0.4445901601073141 13.314885038683176 139789.64787619436 7.625476383399048 0.2115262324043255
0.4619727929860343 13.260529095027815 117965.7892839908 8.016701790612542 0.2145972383520391
0.4797384020996107 13.213133594475048 99808.89572427863 8.424699908017832 0.21770149523269455
0.49789672411956243 13.171982152673808 84631.32271237226 8.849909401552123 0.2208364387043383
0.5164372352577621 13.136365888990023 71925.38090592543 9.293208026721834 0.2240055389841696
0.5353566730779733 13.105816579849392 61266.18493217226 9.755478712162592 0.22721168595181784
0.5546646038043314 13.079797896628458 52298.5709084803 10.237531220598992 0.23045623082361832
0.5743488252008018 13.057816597556952 44320.849692739816 10.739833311555001 0.23373582611767324
0.5944066614419365 13.039530719462507 38321.92403660742 11.263636606235497 0.23705674612442784
0.6148456030495403 13.024482207713115 32895.962433067405 11.809875690690685 0.2404205649057323
0.6356512128723852 13.012417234136167 28055.554057905818 12.379529800536014 0.24382891582541383
0.6568230114205151 13.003004484915937 24365.41225422692 12.97328345081143 0.2472796979006668
0.6783561556586076 12.99596902926466 21024.21161158887 13.59247256671638 0.2507777978083752
0.7002454838738239 12.991054017468299 18168.469452239904 14.238290820606817 0.2543258040700758
0.7224814098165212 12.987993277219951 15725.670638385493 14.911928200984987 0.25792570188106295
0.745070894669017 12.986639218374078 13631.158982598294 15.614407382223991 0.26157731639810233
0.7679932134038862 12.986748964738092 11833.912336703012 16.347008801102668 0.26528268379441927
0.7912400186291346 12.988147025954886 10286.558687577502 17.111342123072692 0.26904642685466623
0.8148145258373681 12.9906769264409 8954.314765510233 17.908862789573394 0.2728709789367893
0.8386998604093844 12.994127652234758 7805.937016604768 18.740924196783382 0.2767573128056334
0.8628815669391714 12.99841897263699 6812.565322073129 19.608895029933112 0.28070612430835834
0.8873651335074157 13.003370245154601 5953.970316636451 20.514850068865965 0.28472366989296627
0.9121232607951324 13.008849015564165 5209.916518817725 21.460583960245785 0.28881296393807854
0.9371429990351664 13.01475132851218 4564.079660959253 22.4475655299814 0.29297380327253797
0.9624289592990568 13.020956716049666 4003.6212535051723 23.477851380347015 0.2972102357206135
0.9879506439141572 13.027342239903122 3515.5587681527336 24.553849634889325 0.30152824151950364
1.0136952716876706 13.033797983984632 3091.2322844066216 25.677484242719817 0.3059293138598677
1.0396603123702197 13.040259750105585 2720.676200590049 26.85075397966089 0.3104149883914725
1.0658121434153784 13.046586549426706 2397.53677897081 28.07673855069437 0.3149938670758109
1.0921456647112746 13.052719656053574 2114.885456912869 29.357470364346398 0.3196662377965235
1.1186463028984475 13.058548148670269 1867.89534470739 30.69575141738339 0.32443710013781724
1.145277933463866 13.06400947303919 1651.6292031272394 32.09493501378329 0.32931419519781346
1.172043163853601 13.069018449292072 1461.656189930791 33.55701163307057 0.33429553946488
1.1989017190334463 13.073470557078627 1295.0514600982735 35.08650129122496 0.33939454627229004
1.2258480369876736 13.077344314147284 1148.7433705278888 36.68539893233087 0.3446078019042754
1.2528453524889294 13.080498726591488 1019.8510618738964 38.35878540924083 0.3499499185110102
1.2798896850238966 13.082943056239843 906.4332865180836 40.10893204862852 0.35541765261908104
1.3069340943719272 13.084519618791429 806.5373865123541 41.94125251966432 0.36102522494319206
1.3339720742176455 13.08523830170586 718.3903625256257 43.85929058481897 0.36677489965618837
1.3609806260913195 13.085035410875584 640.4139421349723 45.86767786588847 0.3726741109440213
1.3879141332435587 13.083768251300006 571.6356990097047 47.971777662594235 0.37873297881588763
1.41476422588023 13.081462093584904 510.67167331407524 50.17638130760465 0.3849573264705032
1.4414949802880548 13.078024735907182 456.74258089686657 52.486645523712454 0.3913537931849254
1.4680909881174147 13.073419869493494 408.89189851917365 54.909020035843675 0.39793423908136216
1.4945009202852544 13.067552104931359 366.4220966761937 57.44969652898246 0.4047077282305107
1.5207137566933204 13.060402717826516 328.73324088399136 60.11530495991819 0.41168403504074325
1.5466973548986014 13.05191181710949 295.19643180204434 62.91295301270914 0.4188737027496684
1.5724135806468107 13.042027607068215 265.3790340847715 65.85026933201495 0.4262881066917819
1.5978271260059034 13.030687584871504 238.8328575625609 68.9354509178563 0.433939522901244
1.6229252791208046 13.017865238460942 215.16697152728227 72.17731511304092 0.44184120267728255
1.64767788435101 13.00352293938423 194.0377857479623 75.58535666856716 0.45000745381558216
1.6720263932545483 12.987587556034432 175.17563367364878 79.16945504304425 0.45845224524852396
1.6959631882523385 12.970028943294793 158.31602867854988 82.93992702183266 0.46718936493380886
1.7194435272448407 12.950812776330284 143.23200754346806 86.90945514913729 0.4762401179213726
1.742419999754812 12.929837261739289 129.74644056683286 91.08955989315776 0.48561860743656465
1.7649073292076993 12.907212911078235 117.6411714692128 95.49445751666865 0.4953472474972875
1.786833944997681 12.882773297318383 106.7859413445141 100.13769707273016 0.5054430785611561
1.8081712464789452 12.85650865396181 97.05433293368917 105.03587176362574 0.5159320547319267
1.8288798807943525 12.82836759786527 88.30012839255751 110.2055293545781 0.5268367230330102
1.8489589107648274 12.798393597351074 80.43573266253482 115.66438725245804 0.5381807576487795
1.8683337459979574 12.766448631407368 73.36067849467047 121.43250895552644 0.5499929353175919
1.8870116308834428 12.732622889070523 66.98566646630854 127.53133426438447 0.5623031072579616
1.9049329414521368 12.696799314529198 61.23564676771034 133.98342719989864 0.5751409942492476
1.9220719439684346 12.658975358290958 56.05520295770563 140.814445931599 0.5885427767047585
1.9383850147243118 12.61908054126595 51.37476285013088 148.05207191620187 0.6025467081397852
1.9538811088954084 12.577228798661775 47.14999979355783 155.72473649905643 0.6171882954407216
1.9684935371885475 12.533290517054697 43.3269496236799 163.86617563398045 0.6325154180800514
1.9822065925698866 12.487282673489641 39.866265597869244 172.51027281328777 0.6485699747643525
1.9949936571532012 12.439194538719082 36.7332242007644 181.69615285410816 0.6654045407502942
2.0068268333940185 12.38902935712075 33.89156611393567 191.4659293650661 0.6830738675196624
2.0176714971526835 12.33674726916474 31.317083119673743 201.86565846979815 0.7016372172565272
2.0275048019731123 12.282356564253886 28.98244167676734 212.94520535354746 0.7211569411793256
2.0363114328097502 12.225878312262282 26.86008747891987 224.76029612598515 0.7417041010618451
2.0440528216303906 12.167277350903362 24.932547013765685 237.37190584791048 0.763355151279451
2.0507098509342336 12.106560533659913 23.180211885382224 250.8470425632604 0.786193082469256
2.056279866883481 12.043804412462078 21.587534275858026 265.2589880050555 0.8103065684339449
2.0607222617342025 11.978946948805781 20.135735768981593 280.68911396168807 0.8357940110814588
2.0640248076748975 11.912043219244827 18.816151210913922 297.2276031094816 0.8627637535703112
2.0661812259809387 11.843132295579824 17.61327895858408 314.97477048737403 0.8913359635580406
2.067169882003404 11.772230159589768 16.518509730369328 334.03993422993244 0.9216360763327353
