M[M_sun], R[km], Lambda[1], P_c[MeV/fm^3], rho_c[fm^-3]
0.24162668629717493 15.618656898711224 2160425.4255784233 3.5677272577965504 0.1711233750220791
0.25364502229455904 15.277274458778413 1723212.2111120995 3.7848395970908086 0.17388842223239045
0.2660418792621991 14.981238894672467 1383011.1607271112 4.011443511746377 0.17666716899680196
0.27881802506916026 14.723485805797768 1116449.6009545922 4.247794472703222 0.17945828271260789
0.29197397939618297 14.498354169776375 888626.3368874579 4.494517926607782 0.18226833439051607
0.3055110314657633 14.301133461693254 738594.208718609 4.751770304992955 0.18509304647237598
0.31942824199333447 14.12807021745515 605027.078819847 5.020232590611992 0.18793900906572514
0.3337262394986976 13.975924099261487 497636.0777998012 5.300130590164901 0.19080287937520393
0.34841068417755366 13.841945755309027 410956.2769948667 5.592190971887386 0.19369091446215403
0.3634752420965927 13.723902124986461 340615.35560465854 5.896583497361717 0.1965982230488798
0.3789300621784498 13.619916552829375 283263.44384861644 6.214171270927391 0.19953246515550885
0.394763617816301 13.528368468152102 236366.87441459828 6.545209346682664 0.20248977691923822
0.41099047448501114 13.44778966535473 197835.32042214682 6.890404912630614 0.2054739502000319
0.4275995125656791 13.377022458353384 166049.8535430584 7.250461074361701 0.2084880210505512
0.44459665803305987 13.314879850041487 139772.4367673879 7.625633534937673 0.21152748343162106
0.46197870564884225 13.260498410075575 117953.58220328603 8.016877898495162 0.21459860068888825
0.47974730213043904 13.213096221522518 99791.9093680977 8.424896345737901 0.21770297216973455
0.49790604408190636 13.17196440102875 84626.68882539014 8.850125444900042 0.22083800295048545
0.5164463915549974 13.136354375334246 71920.71006524347 9.29344717232999 0.22400722258416003
0.5353667852258623 13.105800994322804 61258.17074889508 9.755742581776541 0.22721349254286927
0.5546770700216667 13.079759507841834 52294.164342044984 10.237820331646008 0.23045814873442338
0.5743608598583295 13.05780418741392 44717.62376924035 10.740148808414501 0.23373785170523992
0.5944202704923602 13.039491708153195 38319.03373878107 11.26398203119028 0.23705890434579624
0.6148595787135925 13.024473976509151 32892.96329758308 11.810253084700737 0.2404228600909814
0.6356656303391459 13.012413538826546 28283.469710384838 12.379941331906826 0.24383135253319727
0.6568386111091212 13.002997360839558 24170.166413104813 12.97372722970249 0.247282234358828
0.6783716157271253 12.995969463015417 21021.32998808342 13.592954895653378 0.25078048328667274
0.7002624699435533 12.991058776561674 18167.03693442862 14.238814286217876 0.25432864389656357
0.7225002575696808 12.988002134203445 15723.838115459403 14.912495556113079 0.25792870170149135
0.7450900914666162 12.986639100118579 13533.065288277636 15.615016020306554 0.2615804273522548
0.7680133033406872 12.986763151941016 11832.615521836111 16.3476669654401 0.26528596457856807
0.7912617128938743 12.98814294276444 10217.963320826171 17.112053117455375 0.2690498841795863
0.8148384011660575 12.990666724577137 8953.239415608958 17.909630136853853 0.27287461994476714
0.8387230224475553 12.994137466137117 7805.031970717892 18.741744493242887 0.2767610816434321
0.8629063792388985 12.998418246293072 6811.619458430992 19.609778942892156 0.28071008986835083
0.8873906632897636 13.003364178206327 5953.252945699933 20.515801853364454 0.2847278407602152
0.9121498633870673 13.008853743900099 5209.216344887787 21.461608162732002 0.2888173492765288
0.9371711667558211 13.014756752852353 4563.565996156716 22.44865788362919 0.29297834028769904
0.9624562675082616 13.020969321058393 4002.9366873575805 23.479025595430947 0.29721500455696265
0.9879797364120049 13.027356889427086 3515.1459838367064 24.55511123937328 0.3015332532752066
1.0137249385087006 13.033814008008228 3090.5798469940314 25.678828352609898 0.3059345010387945
1.039691831241634 13.040266759012715 2720.3282863001223 26.852197029498555 0.3104204399739099
1.0658453242725954 13.046595747690052 2397.175445481775 28.078287296637164 0.3149995965604997
1.0921804740319947 13.052727029785036 2114.7485830902374 29.359119316741275 0.3196721730126831
1.1186808091201326 13.058560582466653 1867.5963124686248 30.697520266207835 0.324443339866664
1.1453143345990564 13.064012585973375 1651.382879782764 32.09681798518044 0.3293206649020688
1.1720798030403883 13.069018617739603 1461.3932369768086 33.559030817712745 0.33430234432531075
1.1989381865546738 13.073479778332944 1294.8379071344066 35.08866622107867 0.33940170510840245
1.2258872571875665 13.07734482932207 1148.5292785542822 36.68770332410273 0.3446152355154192
1.2528839674084362 13.08050821168795 1019.7001509564025 38.36123861631791 0.3499576434249154
1.2799289824344444 13.082946507598496 906.2762455459931 40.111561959166586 0.35542578868368946
1.3069749144210385 13.084525306712354 806.4380345996042 41.944052842099744 0.36103369074216135
1.3340137812545765 13.085237965461559 718.2702809222336 43.862292721070425 0.36678382355771827
1.3610231326199675 13.085028874426364 640.292746040151 45.870875524525815 0.3726834093009696
1.3879567401995445 13.083769178312716 571.5292261471108 47.97518450419623 0.37874267578683934
1.4148067468321774 13.081459167364459 510.5797490838924 50.180034696343775 0.384967563668362
1.4415398842148255 13.078014920176916 456.66945358968763 52.4905396589876 0.39136448502138454
1.4681352713086748 13.073410142703697 408.8084086160345 54.91317216366673 0.3979454158627179
1.4945459217993773 13.06753947200048 366.35255814309227 57.45412529247315 0.4047194226061603
1.5207587905503512 13.060386981802305 328.6951939267607 60.120030524406616 0.4116962821956318
1.5467422699726956 13.051894311063304 295.1418993058156 62.917997203323004 0.41888654061581165
1.572459240393404 13.042007695573057 265.3252067148593 65.85565578514245 0.42630157618091147
1.5978723585623291 13.0306681156692 238.78851750281777 68.94120524804222 0.4339536681608587
1.622970607812754 13.017845165224825 215.12332158208005 72.18346509707023 0.44185607137267247
1.6477241511315017 13.003494179934965 193.9835130106521 75.59193244870225 0.45002309744068864
1.6720719337630818 12.987554699914028 175.1496938973513 79.17645500729807 0.4584685760850433
1.6960089977739525 12.9699920260781 158.28165305172254 82.94741948035028 0.46720658258166076
1.7194880685442113 12.950775418472666 143.20262235344182 86.91747867933434 0.476258287269617
1.7424707121165761 12.929823161559176 129.71871894069469 91.09811783446021 0.4856376457058976
1.7649517946569775 12.907164585651154 117.60902631240006 95.5036323292065 0.49536737908463163
1.7868790242156622 12.882722833482882 106.75967460656679 100.14749674584391 0.5054642258305888
1.808214480747022 12.856452091933463 97.03436034178822 105.04634712410358 0.5159542991818586
1.8289296006389533 12.828316775947068 88.2865239523051 110.21673584275781 0.5268601528187812
1.8490018572641163 12.798325540887431 80.42330226533446 115.67643118848979 0.5382056362645782
1.868373979430661 12.76637762668976 73.34426381074253 121.44541225610034 0.5500192017090282
1.8870497394236712 12.732548230222756 66.96951460407755 127.54512032024738 0.5623306989572775
1.9049710454792321 12.696718338736812 61.22169038884073 133.9982225693926 0.5751702049025501
1.9221100084387315 12.658887391836416 56.042923915126984 140.83033739209517 0.588573739313022
1.9384209222268176 12.618985646697109 51.36391636105874 148.06915465578862 0.6025795676392995
1.953914026677601 12.577127674691985 47.1397429215247 155.74305878466404 0.6172230180060346
1.9685276474145135 12.53318631691503 43.318810425075995 163.88584852335472 0.6325521672008956
1.9822379471667935 12.487171534858383 39.858188348145916 172.5314774921781 0.6486091268854519
1.9950221545948852 12.439079105935393 36.726067941807614 181.71896620664285 0.6654460955882612
2.0068545040756427 12.38890393124399 33.88502382527312 191.4904995740659 0.6831180376790565
2.0176962596752204 12.336615333112352 31.31117716694171 201.89214900048822 0.7016842353354267
2.0275282310303537 12.282220594225567 28.976329321748622 212.97372990053032 0.7212068431677027
2.0363329489412694 12.225734087117923 26.85593302746907 224.79111878114688 0.7417573787550755
2.0440711708837815 12.167125630885252 24.928929100684517 237.4051768049483 0.7634118813175226
2.0507254895478515 12.106401106114198 23.17570352085448 250.8830022583099 0.7862535889393185
2.0562921794187834 12.043637919020075 21.583028190380244 265.2979266234708 0.8103712838655699
2.0607330235486647 11.978775180606203 20.132393674107707 280.73128096119507 0.8358631747749334
2.064031780536182 11.911860077655502 18.81246212800979 297.2733516894833 0.8628378744671956
2.0661858769389227 11.84294267217956 17.61019015893476 315.02446811360306 0.8914155196828625
2.067171288326731 11.77203639174453 16.515547028331774 334.0939087681044 0.9217213248043222
