M[M_sun], R[km], Lambda[1], P_c[MeV/fm^3], rho_c[fm^-3]
0.24162668629717493 15.618656898711224 2160425.4255784233 3.5677272577965504 0.1711233750220791
0.2536419594362777 15.277349750484635 1723186.0156757676 3.7848016887642935 0.17388794972338803
0.26603811993726706 14.981299349924834 1382964.668631761 4.01136382075903 0.17666620597825028
0.27881111586101626 14.723614826660913 1116511.3792655878 4.2476703028622005 0.17945684252957197
0.2919651313053261 14.498490166888917 905953.3421329173 4.494346019475246 0.1822664201646977
0.30549960026116696 14.301300472555232 738789.8142236968 4.75154482338186 0.18509061084063805
0.3194139690763066 14.128228397097425 605168.1168023278 5.0199518734396955 0.1879360965167157
0.33371034719698617 13.976039572987252 497731.8180201835 5.299787246758839 0.19079942247681464
0.34839011457574753 13.842068842759991 411039.02346993954 5.591784144873606 0.19368697829888143
0.36345189824204316 13.724056738450669 340689.8376194892 5.896104046628781 0.19659371994613348
0.37890333566801476 13.620081544726611 283346.10112883727 6.2136133942766465 0.19952737799218126
0.394733319469343 13.528539428501626 236448.58538406916 6.544573623203007 0.202484202483142
0.4109566470014259 13.4479494629717 197901.7265679645 6.8896790695072685 0.20546776861540525
0.4275636604617419 13.377118577105684 166114.89902775086 7.249638300190847 0.20848121445069467
0.4445551085644533 13.315007651968045 139835.2085286379 7.624716103661515 0.21152018008875648
0.46193605872348376 13.260631526883355 116689.33809968989 8.015849807660587 0.21459064757510707
0.47969757621671827 13.213241821565909 99836.78045173317 8.4237495782422 0.21769435008131843
0.49785255367141507 13.172049694796273 84664.9109293183 8.848864228952936 0.22082887120815228
0.5163886702627253 13.136455529331261 71958.4767489605 9.292051097197243 0.22399739412819036
0.535305218666872 13.10589378826153 61292.735612772376 9.754202181466319 0.2272029461469641
0.5546086385520383 13.079868133510594 52315.64294469493 10.236126767837083 0.2304468777161028
0.5742892852005116 13.057883967103319 44742.15137572459 10.738307039064242 0.23372602697550252
0.5943434773244364 13.039554714858081 38340.332905398805 11.261965561170642 0.2370463054046229
0.6147778956654596 13.024529946796854 32911.48479465624 11.808050001369464 0.24040946166856392
0.6355768729993087 13.012450055671742 28302.74546587415 12.377538979409234 0.24381712802579733
0.6567470589161241 13.003054028749181 24379.224707002053 12.971136640041282 0.24726742761064582
0.6782760275652251 12.995988617658867 21035.209627744764 13.59013928124941 0.2507648067000197
0.7001613008796763 12.991073115228723 18178.805350702703 14.235758549817689 0.2543120663774573
0.7223922710494878 12.988001430338912 15735.632705632866 14.909183630420141 0.25791119030191295
0.7449778024791308 12.986641028342346 13639.53492228008 15.611463120515 0.26156226728525195
0.7678947936213919 12.98676163221075 11840.206497378065 16.343824977033705 0.26526681322996615
0.7911352792662244 12.98813918605256 10292.935102493659 17.107902757783727 0.26902970238593277
0.8147073493548572 12.990663966401033 8960.17475220423 17.905150844829404 0.27285336602439586
0.8385857869156286 12.99412568774053 7810.026611360646 18.736956136470425 0.27673908162162497
0.8627636431420375 12.998393839853257 6817.246109770162 19.60461926003631 0.28068694162541835
0.8872376946780699 13.003327295308392 5957.616099134181 20.51024601035469 0.2847034941946993
0.911995168501635 13.008822637581876 5213.546389536087 21.45562962489265 0.2887917509088075
0.9370119260329564 13.014711417148446 4567.394811922182 22.442281555612066 0.29295185665124657
0.9622875105894989 13.020913645449738 4006.4838981198845 23.47217145752842 0.2971871678663777
0.9878086742615906 13.027308744083994 3518.1321426122927 24.54774702900916 0.30150399876338474
1.0135480632292904 13.033766953295261 3093.622670073211 25.670982575957904 0.3059042226756832
1.0395095972335382 13.040219816359391 2722.7868001933352 26.843773768807985 0.31038861841179366
1.06565955352295 13.046560585463926 2399.3419191049384 28.06924712201816 0.3149661530236148
1.0919857296553417 13.052677283926661 2116.8815399097552 29.349494268537754 0.3196375287489601
1.1184807221084467 13.058515400042758 1869.5064679377504 30.68719542936328 0.3244069183356621
1.145107786382339 13.063970307644887 1652.8905795955855 32.08582705820188 0.32928290115953324
1.1718685104383344 13.068989517127319 1462.8461082613426 33.54724487649916 0.33426262448823957
1.1987216790232296 13.073448207416186 1296.0612724038365 35.07602963753653 0.33935991935241416
1.2256647975363515 13.077311913139784 1149.624122842261 36.67425276904425 0.3445718461069018
1.2526575200434253 13.080482252657129 1020.6850174606275 38.3468757283674 0.34991229710906924
1.2796963062131161 13.082929279072584 907.2187182997069 40.096211534173484 0.35537829959700645
1.3067375157968018 13.084519787134175 807.2016826965753 41.927707823278766 0.360984277274006
1.3337721011165526 13.085229952648337 715.9782934803914 43.84476985130806 0.3667317365266236
1.3607778408345879 13.085037223439123 640.963217698518 45.85221152048854 0.3726291369125425
1.3877079454315762 13.083780946455677 572.1351012775463 47.955299645485525 0.3786860770599766
1.414562133408348 13.081496857917454 511.11135867050297 50.158710936372785 0.38490781214299635
1.4412840396428264 13.078054710610168 457.1047372909174 52.467810849026215 0.39130208022497975
1.467876120789746 13.073465511226587 409.24283803777973 54.888937661848615 0.39788018094230365
1.4942837684330235 13.067602187493147 366.7461408219275 57.42827630474874 0.4046511670370278
1.5204943497584795 13.060466198216458 329.0309289941489 60.092449374649135 0.4116248006585768
1.5464772345037359 13.051988278276376 295.4678752219132 62.88855653060403 0.4188116117631046
1.5721920272593204 13.042119805421194 265.62173438722675 65.82421766006676 0.42622296127905746
1.5976151525339943 13.030800043323246 239.05909547485382 68.90762019904436 0.43387110959680414
1.6226958642627467 13.01796230216709 215.36656071145896 72.1475710364563 0.4417692910085232
1.6474541003110401 13.003662741547856 194.21501400264407 75.5535534869559 0.44993179480021084
1.6718033700055661 12.987740009501538 175.34042183332502 79.13560054633241 0.45837326309501586
1.695741159317251 12.970202057331623 158.4577074256843 82.90369091690994 0.4671060944702331
1.719205478760041 12.950971260381742 143.37754949230327 86.8706509083534 0.4761522454080468
1.74220928922515 12.930082356263787 129.8648468740479 91.04817136430593 0.48552653319443917
1.764689175928394 12.907445218805174 117.75094706414268 95.45008600298358 0.4952498864885849
1.7866182787899167 12.883023922955886 106.88557507173812 100.09030393909875 0.5053408062348724
1.8079592617937028 12.856782502225064 97.14859621521359 104.98521126069289 0.5158244770477602
1.8286714958391266 12.828664892127192 88.38439294004166 110.15129726894394 0.5267232791858675
1.8487542641980905 12.798713158580334 80.516169013541 115.60614187095995 0.5380604427895403
1.8681429574654032 12.766825711331371 73.4268494227371 121.37010814642913 0.5498659101376151
1.8868168579028533 12.73299479130846 67.0498890486435 127.46449531730664 0.5621690678773381
1.9047432907186064 12.697195862770924 61.29519928849772 133.9118774620563 0.5749997328507505
1.9218894213165667 12.659401928475738 56.109167094474756 140.73759625904952 0.5883930443181786
1.9382076939739272 12.619531681226743 51.42307339640777 147.9694621150397 0.6023878040771559
1.9537107231916815 12.577716895342869 47.19390106415997 155.6361332035416 0.6170203833264061
1.9683324420595119 12.53380300515208 43.36597248233668 163.77102154923492 0.6323376385437524
1.982055440317679 12.487829454972381 39.90217236985136 172.40773280052102 0.6483806458422717
1.994850865016986 12.439771144267988 36.76992566974533 181.5858348268278 0.665203594933957
2.006687871729468 12.389619465196013 33.92633831803824 191.34711696464575 0.6828602770424862
2.017548298220469 12.337383954627853 31.34759143766656 201.73756147115063 0.7014098577196548
2.0273916227985542 12.283023092374963 29.008475846903654 212.80727410971252 0.7209156387204005
2.034976331735007 12.229116205026022 27.052536202525317 225.07426341608814 1.1181555152612277
2.0358655708805147 12.177316495034782 25.843904042899513 239.96092622751797 1.66189239305516
