M[M_sun], R[km], Lambda[1], P_c[MeV/fm^3], rho_c[fm^-3]
0.24162668629717493 15.618656898711224 2160425.4255784233 3.5677272577965504 0.1711233750220791
0.25364089452212873 15.277395048338349 1723233.6933510401 3.784779402166768 0.17388767193170127
0.2660349066700065 14.981356099356132 1383138.4164562547 4.01131697034158 0.17666563981860461
0.27880759498741076 14.723649324824967 1116617.9355038027 4.247597304074232 0.1794559958536384
0.291959811489502 14.498555260125178 906043.7803560791 4.494244957261375 0.18226529481349096
0.30549216400729673 14.301406621353118 738808.4338632913 4.751412266779668 0.1850891789763463
0.31940519884738705 14.12833650741595 605238.3502557466 5.019786846520555 0.18793438429873505
0.33370034515425123 13.976170685093972 497805.8458460656 5.299585405492291 0.19079739027017573
0.3483770726258564 13.842240316580114 411116.56075115904 5.591544985843869 0.19368466436947834
0.36343830813052724 13.7241482622651 340779.1814564568 5.895822197607456 0.1965910727604796
0.37888843063355937 13.620179707110022 283401.00411693286 6.213285445280005 0.1995243874922082
0.39471571138728473 13.528632905125761 236494.2889814329 6.544199915255308 0.20248092556929537
0.41093686388990125 13.448065082944428 197948.37043583722 6.88925238928454 0.20546413482757908
0.4275401708383792 13.37723086422262 166155.37167658051 7.249154644740668 0.20847721329310562
0.44453231342107785 13.315076998190923 139867.276950324 7.624176810244267 0.21151588696639065
0.4619086052349399 13.260713049599309 118037.91582083754 8.015245471159087 0.2145859725436829
0.47966942105865734 13.213286747051727 99860.86805983761 8.423075487296495 0.2176892818597686
0.49782068774144317 13.172114720631097 84685.25165669037 8.84812286943996 0.22082350344851978
0.5163542646097569 13.136522151397253 71977.92875470298 9.291230473528081 0.22399161688639954
0.5352683296425229 13.105944689336189 61311.48838450206 9.753296731004394 0.2271967469538189
0.5545700595881908 13.079898189184432 52333.28001996585 10.235130589999205 0.23044024356031276
0.5742450178200287 13.057941298336713 44757.85651803823 10.737224462439434 0.23371907649823098
0.5942980277248135 13.039596719939128 38353.850225828355 11.26078030814832 0.23703889992229074
0.614730006920837 13.024570228818202 32924.42273030884 11.806755071855525 0.24040158633657696
0.6355266331361444 13.012471783833048 28313.29245498601 12.376126936668866 0.24380876721595385
0.6566928740484758 13.00305664037295 24388.680245611693 12.969613968278392 0.24725872464325008
0.6782184083197986 12.996016390267245 21042.786894329245 13.588484362148128 0.2507555925538431
0.7001006546060841 12.991073922177216 18185.709918837303 14.233962512323773 0.2543023227863972
0.7223296268969386 12.98801316350222 15741.86038763956 14.907237033595464 0.2579008979107257
0.7449109199156286 12.986650914640393 13644.59716569006 15.609374906505819 0.2615515937204041
0.7678251056176524 12.986750975203936 11845.226249031875 16.34156687266547 0.2652555571460426
0.791063488481514 12.98811442811851 10297.780545050493 17.105463433173703 0.26901784077637886
0.8146307039840738 12.990652509977693 8963.849609050174 17.902518219065705 0.27284087440338883
0.8385080190842171 12.994106108639043 7813.8715815771275 18.734141885072663 0.276726151592585
0.8626818578199458 12.99837131622161 6820.432460828975 19.601586798762987 0.28067333688415824
0.8871507011700351 13.00332573431705 5960.799985609628 20.506980748124647 0.28468918530932036
0.9119048561561593 13.00880190643842 5215.82872594321 21.45211597163416 0.28877670646306286
0.9369173297936179 13.014693430455104 4569.522238060717 22.43853414589419 0.29293629204473004
0.9621887110644137 13.020889847907085 4008.2158453791667 23.468143274984936 0.29717080822017894
0.9877084728665687 13.027281285555887 3520.038397233788 24.5434191188655 0.3014868060309394
1.0134433737311814 13.033740499117876 3094.867323316539 25.666371688257136 0.30588642837203905
1.0394008121463976 13.040195441734806 2724.142045158571 26.838823548473837 0.31036991737075514
1.0655486251369648 13.046526832513086 2400.656028513235 28.06393440418816 0.3149464989702148
1.0918714881392482 13.05265232370616 2117.9984593408153 29.34383787895125 0.3196171692194896
1.1183626553697588 13.058491156799935 1870.5621811322 30.681127854238238 0.32438551457123943
1.144988270584421 13.063960174224194 1653.802611951756 32.07936809688825 0.3292607088046417
1.1717437289876664 13.068963447666423 1463.6674266363957 33.540318786940354 0.3342392828523167
1.1985935140544373 13.073426198679142 1296.816423824588 35.06860374054357 0.33933536392422364
1.225535244269097 13.077300943048682 1150.25265977803 36.66634860923754 0.34454634851090293
1.2525235609512806 13.08046542563213 1021.3009172372431 38.338402390666715 0.3498854554327738
1.2795608407384211 13.082909664322672 907.7276188083831 40.087191101706004 0.35535039339248387
1.3065985698029172 13.084509060408577 807.7052604181558 41.918103020205635 0.3609552404991947
1.333630266087863 13.085232020515662 719.3595524601191 43.834473025036495 0.3667011290338181
1.3606343114568686 13.085037529698601 641.3708649665618 45.84124424073824 0.372597245552821
1.3875611928374327 13.083796560334381 572.4716488781064 47.9436150821784 0.37865281902094544
1.4144128956966695 13.081515650224212 511.42886234336606 50.1461810062474 0.3848727018979582
1.441140170369925 13.078094756320299 457.408542362567 52.454455437440075 0.39126541126860453
1.4677241339077258 13.073492237538082 409.5122432561559 54.874697651547635 0.3978418493955834
1.4941299140350837 13.067640897274298 366.97619650652115 57.41308779083944 0.40461106099217187
1.520339315158411 13.06051387240484 329.2437836649753 60.07624323604119 0.41158279951984234
1.5463210650203685 13.052045144364689 295.659660580731 62.871257958700696 0.41876758552231313
1.5720352433606566 13.042181835699392 265.7978324958398 65.80574563994215 0.42617676971878965
1.5974570637453094 13.030876044170672 239.22151606066618 68.88788693776881 0.4338226014134418
1.6225439302221307 13.01807717701177 215.50446877290014 72.1264813325758 0.4417183028463803
1.6472949670002228 13.003761671488865 194.34056381386986 75.53100403438482 0.4498781501869283
1.671645493570111 12.987851761559831 175.4571225946889 79.11159686203229 0.4583172627741636
1.6955838738052644 12.970326720311885 158.56557017631158 82.87799889596359 0.4670470542809257
1.7190476551452492 12.95110863000481 143.47683979256013 86.84313834563773 0.47608994298993423
1.7420541666778768 12.93023423974333 129.956058652276 91.01882680602039 0.48546125235359744
1.7645392086058171 12.907619521430561 117.8252534282268 95.41862687550704 0.49518085813841956
1.7864656117236526 12.883202100727047 106.95811374625941 100.056702853564 0.5052682965500302
1.807807797096008 12.856976107964849 97.21047177594058 104.94929404332831 0.5157482067614011
1.8285334411959364 12.828898634933719 88.21215017548768 110.11272203900184 0.5266423808171454
1.8486083518974266 12.798943714261366 80.56644534016195 115.56484814188077 0.5379751441946332
1.8680001977803005 12.767070965556245 73.47532786079753 121.32586890571203 0.5497758552553882
1.886678513729477 12.733258558732285 67.0935532963065 127.41706228917793 0.5620738701683585
1.9046087637856999 12.697477838550219 61.33617978964304 133.86115324805147 0.5748995875025762
1.9217438570123282 12.659651000355286 56.146423425338455 140.68311544320113 0.5882868949708988
1.9380902129661641 12.619881372463425 51.45981179137691 147.91089858105852 0.6022751542058256
1.953585865763915 12.578035193151921 47.22226035152859 155.5733215611011 0.6169013489764472
1.9682180650415746 12.534162873942378 43.39489833987154 163.7033839964715 0.632210991688269
1.9819483792791153 12.488214306766286 39.929573103296356 172.335043328153 0.6482464326792468
1.9947468739594167 12.440174607529366 36.79215693769787 181.50763270130554 0.6650611486779843
2.0065930739553566 12.390048933024357 33.948842382100764 191.26289458103938 0.6827088694533815
2.01746164916204 12.337834197201083 31.368472303584134 201.64675889661265 0.7012486921067853
2.027311659336757 12.283496714611116 29.027653206826656 212.70950185517356 0.7207445920106128
2.0361383410964136 12.22707969831234 26.903275509718824 224.50560758060465 0.7412638658478806
2.0439002322399866 12.168536530068238 24.971775472966826 237.09699171692628 0.7628863974320806
2.0505800012720634 12.107879911445222 23.215969800480185 250.5495266994798 0.7856918619285858
2.0561639822527567 12.04516117547826 21.61881808667332 264.93683680657836 0.8097704901230888
2.0606370139120957 11.980384670797488 20.16595239756099 280.34053356158034 0.8352219669939334
2.0639703145923667 11.91355362694017 18.84375170623535 296.84961711626084 0.862151348533342
2.0661451524755075 11.844691844453314 17.63886394638937 314.5641652780306 0.8906786653777108
2.0671613164575096 11.773855785767019 16.542716659689255 333.5940022686989 0.9209317624207606
