M[M_sun], R[km], Lambda[1], P_c[MeV/fm^3], rho_c[fm^-3]
0.24162668629717493 15.618656898711224 2160425.4255784233 3.5677272577965504 0.1711233750220791
0.25364512411746276 15.27727285547162 1723147.8596223167 3.784847447522463 0.17388852008423386
0.26604273391793243 14.981213661934227 1382847.2119281907 4.011460015086732 0.17666736842993055
0.2788197295714513 14.723428798459876 1116398.237073433 4.2478201874571075 0.17945858096500164
0.2919763100898128 14.49829355841888 905739.9631368952 4.4945535277268505 0.1822687308172395
0.30551274396782996 14.301132371871743 738522.641280375 4.751817001504536 0.1850935508838227
0.3194305227099332 14.128048501666044 604947.4186793271 5.020290726679494 0.1879396122498639
0.33373172897230174 13.97588207938464 497604.9633921082 5.3002016965905945 0.19080359529892377
0.3484147583404565 13.841859185318622 410926.8006098948 5.592275226396395 0.19369172964770628
0.36348052392902913 13.723847686863921 340606.960009794 5.896682793130639 0.19659915565575475
0.3789346692305497 13.619898355823315 283238.6788321753 6.214286809847303 0.19953351873134054
0.39477049931386976 13.52834319856407 236359.29152576113 6.5453410089836845 0.20249093141975114
0.41099747733480557 13.44776296024077 197814.49444169257 6.890555240413281 0.2054752304545117
0.42760848262928214 13.376949432726668 166039.4740509378 7.250631478607253 0.2084894307612038
0.4446059679878266 13.314827504301423 139768.19698563544 7.625823544840732 0.2115289960326254
0.4619876523855912 13.260478525304418 116627.47869400897 8.017090828765069 0.2146002478766727
0.47975686929312666 13.213083577117525 99780.95313682772 8.4251338571597 0.21770475792359162
0.497917620841705 13.171904824695371 84615.66898560524 8.850386661875676 0.22083989427299847
0.5164592719220802 13.136323997079451 71916.94329239028 9.293736322798225 0.22400925822148282
0.5353800026716464 13.10578484733326 61255.63282410136 9.756061626716484 0.22721567689340846
0.5546900497542537 13.07977905764056 52285.27541244256 10.238167937404063 0.23046044249325007
0.5743760811426578 13.05779921708585 44713.872454445416 10.74053027750446 0.2337403008549618
0.5944364473894023 13.039476123172681 38313.66739896734 11.264399687454569 0.23706151386969354
0.6148755727501913 13.024495831974262 32889.17654063228 11.810709396048852 0.24042563522531663
0.6356834107949834 13.012421785096075 28280.499130892793 12.380438920240179 0.24383429879064158
0.656857493524893 13.00299909701783 24167.085545956583 12.974263809977463 0.24728530123164466
0.6783925581429976 12.995961343502014 21019.113592573307 13.593538088720232 0.25078373034942225
0.700284628327761 12.991054365001094 18164.4387459782 14.23944721983432 0.2543320775923231
0.7225212417803639 12.98799325178916 15721.334485667097 14.913181559033564 0.2579323288575227
0.7451136829847387 12.986638095710259 13627.493171157326 15.615751940818837 0.2615841888897582
0.7680375897980078 12.986766441949504 11830.594488658508 16.348462771250023 0.26528993147093555
0.7912892146500201 12.988138222873957 10285.051663809889 17.112912803556107 0.26905406454198
0.8148653882811646 12.990667915692987 8951.815622933947 17.910557963143845 0.2728790224141704
0.838752878880393 12.994137368375492 7803.677877222393 18.74273634405644 0.276765638684723
0.8629355749319345 12.998415599253079 6810.3373312732465 19.610847717194545 0.280714884784605
0.8874203944890391 13.003373191000858 5952.109231847809 20.51695269646827 0.2847328839331371
0.9121797975501674 13.008866108721367 5208.381153814802 21.462846572344493 0.28882265178786215
0.9372041416419689 13.014765136025122 4563.038339660396 22.449978700355302 0.29298382620842034
0.9624913243775198 13.02097166635041 4002.1904483255403 23.48044539800149 0.2972207707970661
0.9880159990327433 13.027362900426068 3514.939999721043 24.556636712429313 0.30153931325548217
1.0137619931239354 13.033814257124407 3090.3843700722814 25.680453590411542 0.30594077314447415
1.0397292868702877 13.040284065751113 2719.787975164772 26.85394190521007 0.310427031800149
1.0658851988477331 13.04660541857312 2396.7898875263513 28.080159980150743 0.3150065244311216
1.0922195705870057 13.052735198521761 2114.2894561054786 29.361113169871622 0.3196793496597203
1.1187220280571752 13.058567264593652 1867.2171396813173 30.699659098937325 0.32445088473771017
1.1453571342213211 13.064019189242636 1650.8920487341652 32.09909481560385 0.32932848786714486
1.1721236474521075 13.069029936379119 1461.11984402413 33.56147235902095 0.33431057257125285
1.1989832062230685 13.073491151174315 1288.6557690896755 35.09128399998558 0.3394103613935661
1.2259319362282093 13.077348326136839 1148.280928272971 36.69048974258713 0.3446242240701216
1.2529322567190937 13.08051607823043 1019.4591589532521 38.364204985088186 0.3499669842357975
1.2799765369308476 13.082950811586093 906.0838811927163 40.11474200251187 0.3554356266754159
1.3070305288465087 13.084548069912662 806.2367635554433 41.94743895190535 0.36104392746509706
1.3340617333863762 13.085245869890331 718.0341179426131 43.86592287099053 0.36679461424065607
1.3610729408371038 13.085032507908569 640.1860321430353 45.8747421065452 0.37269465279624653
1.3880145848146475 13.083783270133308 571.3711453829353 47.979304037829394 0.3787544013093737
1.4148595819692886 13.081451045339126 510.46189666083365 50.18445236577804 0.38497994246495404
1.4415930376637263 13.078007731053532 456.55884410060264 52.49524844966302 0.39137741359634787
1.4681886537138995 13.073401271257143 408.715675194108 54.918192931130285 0.3979589308657645
1.494599840279708 13.067525289743426 366.2583349460311 57.459480581871354 0.4047335635206765
1.5208128833358954 13.060372544322066 328.6124006132831 60.12574472178746 0.4117110915714341
1.5467978770414543 13.051875757952983 295.07683582547884 62.92409670203782 0.4189020643249725
1.5725153414465827 13.041983173559057 265.261951780161 65.8621691690285 0.4263178636991304
1.5979291407506722 13.030639077009907 238.73194264875463 68.94816349327523 0.4339707728771511
1.6230370896595376 13.017824991226977 215.06751416740312 72.19090179480213 0.44187405093046567
1.6477791945636793 13.003459673112596 193.93649563012627 75.59988405086725 0.45004201411379957
1.6721283933901494 12.987513533055692 175.10483775893877 79.18491956404304 0.45848832379908855
1.6960645956147447 12.969952317495256 158.2396308471762 82.95647960190087 0.4672274027145966
1.7195443948919067 12.95072544299487 143.1673206254643 86.92718101909264 0.47628025829552756
1.7425263828096176 12.929772571586316 129.67911596314474 91.10846643041727 0.48566066752272086
1.7650064060237165 12.907109500792176 117.58325291726705 95.51472690509428 0.4953917230614278
1.7869170453669905 12.882627286592914 106.74029550698565 100.15934696301598 0.5054897980851389
1.8082678788965367 12.856384322040466 97.00954102812732 105.05901445023616 0.515981198275453
1.8289719207418045 12.828226887149151 88.2674556176119 110.23028732527222 0.5268884853639192
1.8490518724013212 12.798246970128279 80.40433753668202 115.69099540884326 0.5382357209181025
1.8684239313527937 12.766291507993724 73.32641568531992 121.46101571909165 0.5500509646416472
1.8871002723177004 12.732453078186467 66.95792819303034 127.56179131275226 0.562364064628871
1.9050185791234164 12.696618183123219 61.206714496009276 134.01611415012778 0.5752055284382078
1.9221553833367155 12.658781196991306 56.02954178900401 140.84955450899835 0.5886111815646496
1.938465052077002 12.618873195283914 51.351466942318304 148.0898124292941 0.6026193038944256
1.9539556311687774 12.577008477518845 47.12959904728209 155.7652155872944 0.6172650073649464
1.9685655107301383 12.533054966318641 43.30682729910143 163.9096386688471 0.6325966073903853
1.982275038406215 12.487037357953723 39.848137219447295 172.5571201112189 0.6486564731778047
1.9950580317355322 12.438933823888675 36.7182938723783 181.7465542827949 0.6654963476515025
2.00688882983447 12.38875266921086 33.878342588040155 191.5202123235718 0.6831714526451942
2.0177270637483877 12.33645668708933 31.302310999235846 201.9241841237781 0.7017410945192619
2.027557236868897 12.282052182131574 28.970166416328507 213.00822490152206 0.7212671901081673
2.03635803924195 12.225559200009437 26.85013290711099 224.82839306760877 0.7418218082465998
2.0440939622299727 12.16694082280759 24.923524341931913 237.44541202633658 0.76348048606606
2.0507443092084445 12.106208509826969 23.171003824019305 250.92648921240234 0.786326760919289
2.056307814535809 12.043435784386174 21.57818560062609 265.34498792039193 0.810449453806027
2.0607445077311315 11.978561554800562 20.127243201746975 280.7822750342968 0.8359468169235869
2.0640410404312752 11.911639008121986 18.8093519319524 297.3286773682063 0.8629275119800436
2.0661879075159573 11.842710140113406 17.60754419713376 315.0845698458912 0.8915117307351549
2.067172134827247 11.771795169733315 16.512084357294942 334.15918310360064 0.9218244204031614
