M[M_sun], R[km], Lambda[1], P_c[MeV/fm^3], rho_c[fm^-3]
0.24162668629717493 15.618656898711224 2160425.4255784233 3.5677272577965504 0.1711233750220791
0.2536448501116194 15.277277211338141 1723168.827891403 3.784848282062251 0.1738885304863697
0.26604271427807064 14.981211759296047 1382861.658665306 4.011461769476443 0.17666738963069484
0.2788196368541981 14.723447668527573 1116389.7373627957 4.247822921071615 0.17945861267081045
0.2919765102035224 14.49830285375788 905771.8728073565 4.494557312320119 0.1822687729595639
0.30551351130535276 14.301126669049502 738542.2225072999 4.751821965606308 0.18509360450559598
0.31943160309123053 14.128025796803747 605001.8942469452 5.020296906879485 0.18793967637182418
0.33373262480395355 13.975858469991591 497646.13172392675 5.300209255626054 0.19080367140586815
0.34841534096697013 13.841906449133166 410932.00320010807 5.592284183163879 0.19369181630689564
0.36348099160699693 13.723840020027295 340601.1543467264 5.89669334889129 0.19659925479769264
0.3789349404603085 13.619905940676183 283241.97444439825 6.214299092374439 0.19953363073319888
0.3947706014627424 13.528366990708749 236349.16386025315 6.545355005548277 0.20249105415071417
0.41099803467797585 13.447758719410071 197813.1592286481 6.8905712212638095 0.2054753665541409
0.42760881376901716 13.376950323205966 166033.72149608014 7.250649593746237 0.2084895806231061
0.4446067172440217 13.314827922669012 139767.0760965899 7.625843744221354 0.2115291568326833
0.4619889286648807 13.260466810188232 117939.4874161351 8.017113464772734 0.21460042298449244
0.47975843445451233 13.213070680956303 99779.60224732029 8.425159106354707 0.21770494776224034
0.49791860294640167 13.171903009037445 84612.88905204959 8.850414431177999 0.22084009533461219
0.5164604788154196 13.13632159874468 71913.92293404903 9.293767061680555 0.2240094746251308
0.5353822366372697 13.105767375059074 61252.93773752739 9.75609554365407 0.22721590910671643
0.554691214221642 13.079766369731038 52284.904516617586 10.238204890620922 0.23046068633779343
0.5743773087779526 13.057802989104077 44714.00739612617 10.740570830714285 0.2337405612191307
0.5944368748273335 13.039483064571167 38313.042843034695 11.26444408771047 0.2370617912832959
0.6148782530505136 13.02446830265345 32888.300343517956 11.810757905720406 0.2404259302450563
0.6356852678201353 13.012404491508088 28279.57570522878 12.380491818068707 0.24383461200260947
0.6568593986655725 13.002989944647995 24359.873606489975 12.974320853042897 0.24728562726641506
0.6783940958059126 12.995968474309107 21018.639394184767 13.593600087207452 0.2507840755403887
0.7002869384126102 12.991050772873129 18163.634142867133 14.23951450626514 0.2543324426244942
0.7225249654392407 12.98798889733358 15721.494243844283 14.91325448729881 0.2579327144567516
0.7451162394125858 12.986643915437165 13627.470288104381 15.615830175859845 0.2615845887753925
0.7680409649512642 12.986755507711736 11830.02414773145 16.348547372757405 0.265290353188231
0.7912887748166431 12.988146115773084 10284.741607763295 17.113004196252874 0.26905450895371624
0.8148665329407389 12.990683597341489 8951.509701058449 17.91065659991666 0.27287949043860454
0.838755632256254 12.994142005861047 7803.572302990807 18.742841787363748 0.2767661231421622
0.8629387281366991 12.99841841632682 6810.231090460922 19.610961338366675 0.28071539453114724
0.8874235907909525 13.003385106921 5952.068657019939 20.517075042526432 0.28473342007253405
0.9121832061288814 13.00887498791363 5208.317571546959 21.462978227775558 0.2888232154982923
0.9372069141698257 13.014764935853215 4562.987400334423 22.45011911665179 0.29298440941777504
0.9624950173109724 13.020972296139393 4002.2778468168244 23.480596337715177 0.29722138380809193
0.9880192388425946 13.027359030365625 3514.8619644491387 24.556798886239037 0.3015399574950407
1.013765974144609 13.033821720137718 3090.252533503849 25.68062637045942 0.30594143993595446
1.03973305065874 13.040281332450167 2719.7569809951774 26.854127404305054 0.31042773258232714
1.0658890724300523 13.04660079770424 2396.7009702391324 28.080359066880956 0.3150072609395062
1.0922251313965128 13.052737060732754 2114.4125640144334 29.361325138505325 0.3196801126166522
1.1187261096366115 13.0585658679564 1867.168839301007 30.6998864808407 0.3244516868421083
1.145361078634315 13.06402082413995 1650.971345575342 32.09933686849937 0.32932931953705263
1.1721281962903625 13.069028296573252 1461.0639757707036 33.56173192294211 0.3343114473284293
1.1989878616575815 13.07348642435416 1294.5172536978864 35.09156230041429 0.33941128165763645
1.2259376267888609 13.07734893959027 1148.2740179134503 36.69078597173812 0.3446251796595074
1.2529363544425665 13.08051722422829 1019.423521375671 38.36452034547477 0.34996797727542234
1.2799815972717026 13.082951146812174 906.0531451331444 40.115080079588864 0.35543667257294786
1.3070350871824719 13.084549207763889 806.2171179169603 41.94779893680829 0.3610450157539961
1.3340685857497085 13.085241265869847 718.0506363795132 43.86630880097046 0.3667957614241447
1.36107955895101 13.08502841397182 640.1674303115349 45.87515317274409 0.3726958481209138
1.388020815632631 13.083781693545253 571.3505548331771 47.97974199656008 0.3787556478812974
1.4148651820891003 13.081452755718415 510.4509854936288 50.18492202092761 0.3849812584904402
1.4415985977465902 13.078004756371948 456.5430958814583 52.49574905546227 0.3913787880723118
1.4681942927222178 13.0734009233677 408.6986220122618 54.91872670490231 0.39796036768876164
1.4946052605663456 13.067525874868931 366.2571085337928 57.460049920579806 0.4047350668885449
1.5208186502554368 13.060370632479035 328.60331760573956 60.12635221812334 0.4117126660080412
1.5468038023320616 13.051872402861276 295.06689279831437 62.924745162112174 0.4189037147074166
1.5725213902595407 13.041980560533762 265.2612442618829 65.86286163184982 0.42631959528765884
1.5979351313421932 13.030636187552268 238.7302776443638 68.94890325221101 0.433972591348087
1.623043812653102 13.017820063961127 215.06350060930623 72.1916924212514 0.44187596241247695
1.6477847863424513 13.00345765958149 193.93327786117842 75.60072942039605 0.4500440252278748
1.67213438191987 12.987509995606379 175.10472705790582 79.18581946931577 0.4584904232677942
1.6960705744084947 12.969949356536096 158.2365660850323 82.95744282607617 0.4672296162009461
1.7195504016872931 12.950720202622373 143.17177607719586 86.92821252239332 0.4762825941429943
1.7425322849592462 12.929771948447973 129.6765332860838 91.10956664213167 0.48566311508881205
1.7650126531479455 12.907102316915612 117.58172263227448 95.51590642798406 0.4953943111980227
1.7869229768380928 12.88262112898643 106.73397959266 100.16060682425068 0.5054925168110259
1.8082734813165238 12.85637723277748 97.01084792737156 105.06036118513813 0.5159840580698402
1.8289767418472447 12.8282207038798 88.26078232125369 110.23172806243129 0.5268914975620715
1.8490568269357153 12.798239577338164 80.40141758781346 115.69254381937124 0.5382389193999378
1.8684290753301387 12.766281876019823 73.32668743427945 121.46267462099507 0.5500543415580028
1.8871041842774972 12.732443027834492 66.95290933796834 127.56356371347285 0.5623676119485856
1.9050241512978239 12.696607473610309 61.20757002138935 134.0180163233654 0.5752092839187984
1.9221612384876223 12.65876942664804 56.0286253323649 140.85159761316092 0.5886151623085116
1.9384703338986629 12.618862287884697 51.35064792453459 148.09200870440287 0.6026235285388689
1.953960478636098 12.576995076549768 47.127335100079044 155.76757123963188 0.61726947156193
1.9685700941511899 12.53304144407444 43.30472268213902 163.91216797917144 0.6326013321630911
1.9822798474604975 12.487022494820573 39.84698120167769 172.55984637860226 0.6486615069324442
1.9950617140666669 12.438918766428243 36.7172646152825 181.7494873935815 0.6655016903534702
2.0068912268312413 12.38873704685199 33.87717008792564 191.5233713329398 0.6831771316342217
2.017730818733042 12.33643886231325 31.303106504921644 201.92759005231665 0.7017471397064506
2.0275595528422095 12.282035156712427 28.968368552899484 213.01189236925666 0.7212736061235514
2.036361375543572 12.225540165362291 26.848997138052248 224.83235603610532 0.7418286583319911
2.0440957751254434 12.16692165454505 24.923236598227653 237.44968980956207 0.7634877800794234
2.05074657456707 12.106188389930102 23.17006267459531 250.93111272995776 0.7863345405382809
2.053716057325025 12.053829267625446 21.958025194998765 267.4387140414106 2.600154987148821
