M[M_sun], R[km], Lambda[1], P_c[MeV/fm^3], rho_c[fm^-3]
0.24162668629717493 15.618656898711224 2160425.4255784233 3.5677272577965504 0.1711233750220791
0.2536416804261845 15.277374733485313 1723333.2504476462 3.7847980467150504 0.17388790432700119
0.26603806314692136 14.981276997653955 1383040.7800213331 4.011356164492803 0.17666611345679134
0.2788110359334609 14.723589839183175 1116456.736110267 4.247658373405169 0.17945670416584772
0.29196402657174475 14.49852543503353 906018.8342299847 4.494329503840705 0.18226623625927404
0.305497720150427 14.30130835972495 738733.0130968834 4.751523160847293 0.18509037684392116
0.31941253857704655 14.128247221936457 605177.2034100075 5.019924904487893 0.18793581670343168
0.33370870539625375 13.976063571509798 497705.5777455982 5.299754261442749 0.19079909036941414
0.3483884256036435 13.842131996977685 411072.09102330974 5.5917450608931745 0.19368660015061914
0.3634490573211664 13.724094716407262 340702.8393260265 5.896057985994347 0.1965932873349074
0.37890119362480534 13.62008720798048 283359.1503170822 6.213559799673329 0.1995268892739311
0.39473077254847416 13.528558756294172 236451.18956071214 6.544512550331581 0.202483666956565
0.4109534929552272 13.44798873565216 197913.59369395327 6.889609339475767 0.2054671747651959
0.4275595254087012 13.377138833122848 166117.82659500264 7.249559258764418 0.20848056056123043
0.4445519281819066 13.315012155718453 139834.41333467726 7.624627969353818 0.21151947848299704
0.46193110368452917 13.260642962013222 118012.72559227499 8.015751043354387 0.2145898835533511
0.47969328051202376 13.21323327897809 99847.68989569243 8.423639413913648 0.21769352179957463
0.49784753012051813 13.172055390747808 84668.61868425798 8.84874307083704 0.2208279939716263
0.5163829793208023 13.136471877477192 71960.36456894802 9.291916984784732 0.22399644996844534
0.5352990341471957 13.105895170950863 61295.794488477295 9.754054205591556 0.22720193302579728
0.5546023849408684 13.07988193159122 52318.58709082297 10.235963964096504 0.23044579350670047
0.5742805021908902 13.057897575237577 44745.17103884242 10.738130114860606 0.23372489106731092
0.5943366116888541 13.039572839602277 38342.23952474215 11.261771856119442 0.23704509513195765
0.6147706918133022 13.024527887756163 32913.937585794636 11.807838371349554 0.24040817460494596
0.6355673048972953 13.012482821602303 28305.281790893576 12.377308208929033 0.24381576161666021
0.6567376233228838 13.003053194093203 24380.90833355074 12.970887788822413 0.247266005279125
0.6782660039675966 12.995995168389097 21036.52187073763 13.589868815977436 0.25076330082184733
0.7001515997951101 12.99107509423826 18179.726127511305 14.235465020555813 0.25431047396688594
0.7223819675223703 12.988007831125136 15735.56417465868 14.908865494080832 0.2579095081951646
0.744965973529551 12.98664761478112 13640.142537576969 15.611121838564184 0.2615605228783006
0.7678823702422457 12.986757968809705 11840.598806937634 16.343455928408567 0.2652649736151304
0.7911248203573853 12.988129511057231 10293.587468723037 17.107504090637445 0.2690277638026004
0.8146957985981766 12.990657878178126 8902.125631641173 17.904720584554024 0.27285132447015426
0.8385742039421396 12.994110287236095 7810.702669455373 18.73649619130831 0.27673696841158707
0.862751636539271 12.998390139892898 6817.940594446928 19.604123650438414 0.2806847181377172
0.8872230488888861 13.003324637544445 5958.732433012712 20.509712351405494 0.2847011556184388
0.911980152510591 13.00882187758902 5213.832552679206 21.45505536838177 0.2887892921087251
0.9369963811196032 13.014714610515401 4567.595271340282 22.441669093461105 0.29294931283215453
0.9622708254228143 13.020915926620644 4006.7657933813352 23.471513104969997 0.2971844941010223
0.9877924820561688 13.027304428620607 3518.3355760881104 24.547039687836985 0.30150118883269833
1.0135335176062545 13.033757216677767 3093.913546494852 25.670228983897232 0.3059013144187874
1.0394902984023862 13.040217935440579 2722.957906312164 26.842964714572403 0.31038556195057765
1.0656410240183052 13.046552858076451 2399.515240994355 28.06837881920999 0.31496294079396037
1.091967683304878 13.052678878102677 2116.9266009784415 29.34856979419487 0.3196342012089559
1.1184614855160515 13.058511514252016 1869.67208806952 30.686203748152995 0.3244034201159335
1.1450887575283388 13.063961366174405 1653.074326686522 32.084771406331015 0.3292792740436825
1.1718489765736877 13.068979547558879 1463.0173102149845 33.546112873588 0.3342588095217146
1.1987003723476548 13.073446345633304 1296.2109252497094 35.074815941926154 0.33935590599006427
1.2256441519563082 13.077315071127115 1149.7494650346573 36.67296090226126 0.3445676787446365
1.2526364992854881 13.08048171676747 1020.8266970624153 38.345490829726 0.34990791005377325
1.2796748018460282 13.082920298250604 907.2743447194916 40.094737213258405 0.355373738540634
1.3067155961753574 13.084519101430516 807.2501493476477 41.92613798706045 0.3609795314212889
1.3337492771535937 13.085228387665223 719.0028790410593 43.84308690299284 0.36672673393387395
1.360754704518786 13.08503783577504 641.0379160153814 45.850418985798754 0.37262392446516207
1.387683939371896 13.083786242369358 572.1826476512551 47.95338986957481 0.3786806412212457
1.4145377502283736 13.081504520900022 511.16335874723643 50.156662982562096 0.38490207355072964
1.441258824767072 13.078059116350667 457.1620879759417 52.46562796777001 0.39129608685090517
1.4678522569001693 13.073464918766486 409.2844804043351 54.88661018970156 0.39787391580587056
1.494258833374412 13.067608264906655 366.7773272292477 57.42579379561752 0.40464461184517914
1.520469815770402 13.060475050943944 329.06920691319385 60.08980052973031 0.411617935697983
1.546451727926934 13.051996765339725 295.5003559365122 62.88572912133173 0.41880441578171757
1.572166285273946 13.042129599353927 265.6474369897821 65.82119844329223 0.42621541135584057
1.5975894019504113 13.030812311534689 239.08654835279913 68.90439482357482 0.4338631809983579
1.6226706948846206 13.017976671852347 215.38484412507347 72.14412393997192 0.44176095703117274
1.6474283239186598 13.003678827037978 194.2353944744148 75.54986778220342 0.4499230265959497
1.6717779151371812 12.987759004265122 175.34825234319734 79.1316771354185 0.4583641098222404
1.695715348379982 12.970224362123902 158.4729649268124 82.89949153069665 0.46709644429294556
1.7191782495919286 12.950986014371352 143.3891645516508 86.86615393516246 0.47614206197632225
1.7421837555949005 12.93010626828602 129.87563957310854 91.04337493209387 0.48551586289827053
1.7646644315476598 12.907472756352309 117.76470881427186 95.44494391861578 0.4952386036073103
1.7865942723916548 12.883053119576891 106.90326260064636 100.0848117256058 0.5053289542764275
1.8079338622772017 12.856814727765753 97.1532444835871 104.9793404454132 0.5158120103592081
1.8286477390124574 12.828698717278446 88.39718851974033 110.14499196260496 0.5267100559595153
1.848730504930432 12.798750624091081 80.52520472101162 115.59939218591808 0.5380465002693811
1.8681199397998856 12.766866677318834 73.43485077655626 121.36287697160155 0.5498511901155961
1.8867945692277222 12.733036745453393 67.05844894136663 127.45674206530518 0.5621535071624354
1.90472146326082 12.69724118742658 61.30147411578811 133.9035862112757 0.5749833633472989
1.9218687269667483 12.659450845370204 56.11482191690822 140.72869092314812 0.5883756933373147
1.9381869933045917 12.619581854694381 51.42735421820811 147.95988938039562 0.6023693904457947
1.9536909714210375 12.57777212921719 47.199919096788875 155.6258660329725 0.6170009260104193
1.9683139727041954 12.533861892960129 43.37004483675595 163.7599654815034 0.6323169367862966
1.9820379054631372 12.487891311662734 39.90796888339677 172.39585088795675 0.6483587071898633
1.9948331595955422 12.439837336242396 36.77083328867652 181.57305174694164 0.6651803103766969
2.0066728235204714 12.389690643423412 33.928211681667264 191.33334973157338 0.6828355275224789
2.017533448444212 12.337457710925575 31.34961523617242 201.72271854344388 0.7013835129871094
2.027378908543911 12.283102871840905 29.011830466206927 212.79129181251614 0.7208876786476459
2.036199575587344 12.22666230717149 26.889135710062153 224.5939844796543 0.7414166274218436
2.043953603254655 12.168097049667976 24.95944425674876 237.19238592003413 0.7630490533114404
2.050624409122122 12.107421262206925 23.203492319047452 250.6528340297615 0.7858660147359652
2.0562021774493244 12.04468359665566 21.607870743473615 265.0486195911308 0.8099565031710269
2.060668440909809 11.979884271150874 20.15656605313412 280.46160265700325 0.8354208395889833
2.063990391632123 11.913032942644287 18.834043396050873 296.98077095356103 0.862363841250059
2.066157876942853 11.844149514544737 17.630001604621835 314.70663557947285 0.8909067323085682
2.0671649741111633 11.773290038628508 16.503509652180963 333.74872821969484 0.9211761397009369
