M[M_sun], R[km], Lambda[1], P_c[MeV/fm^3], rho_c[fm^-3]
0.24162668629717493 15.618656898711224 2160425.4255784233 3.5677272577965504 0.1711233750220791
0.2536474206253101 15.27718677662345 1722984.2891038056 3.784886891790649 0.17388901173800825
0.2660468575409746 14.981132216406499 1382848.6460143584 4.011542936381128 0.17666837048483652
0.27882811811913666 14.723234742991213 1116179.0751883313 4.24794939275065 0.17946007955169851
0.29198509705210535 14.498166520568136 905737.3360116656 4.49473240913662 0.18227072270325348
0.3055259645243654 14.300919860627827 738426.4702621909 4.752051634817436 0.18509608537140643
0.3194464484664694 14.12785705439239 604881.5286021263 5.020582842017433 0.18794264305924122
0.3337485369548819 13.975649617093145 497514.4075417963 5.3005589868204845 0.19080719261868706
0.34843611002420755 13.841731283338744 410823.01238360687 5.592698585384859 0.19369582576238173
0.3635040452388915 13.723689754314414 340473.5107986114 5.897181734916273 0.19660384182259277
0.37896275275209973 13.619726381398035 283151.6867632596 6.214867374929913 0.19953881278584806
0.3948004222631111 13.528200813950592 236273.27316505046 6.546002596380827 0.20249673264746326
0.41103315552999725 13.447616015017969 197737.33312002252 6.8913106255606404 0.20548166363141168
0.42764722568174385 13.376792638987485 165973.1251601804 7.25148775306031 0.2084965145003096
0.44464898887288584 13.31468587197656 139696.9933300964 7.626778343597423 0.21153659684466222
0.4620337150142897 13.26035388945566 117883.82159212918 8.018160810450109 0.21460852505004954
0.4798083105767323 13.212953822017127 99732.80633076484 8.426327369062305 0.21771373146460016
0.49797333779292163 13.17181813474806 84576.57531583041 8.851699304689896 0.22084939836782255
0.5165189595813678 13.136225157978721 71879.77833339071 9.295189345300967 0.22401948759048754
0.5354454019929763 13.105674491874794 61224.034705023325 9.757664885259896 0.22722665365005085
0.5547601220100454 13.079663576395072 52254.21045192387 10.239914730554151 0.23047196912108509
0.5744507443104523 13.057709245936687 44687.718718977034 10.742447255379227 0.23375260844672324
0.5945155413009625 13.039424659617788 38289.827440200934 11.266498530536978 0.23707462747925373
0.6149607351220725 13.024428173130463 32865.22668068589 11.813002509066752 0.24043958117844005
0.6357732382894671 13.012385255639785 28262.48126597571 12.382939482066561 0.2438491048027647
0.6569501841134184 13.00296737827791 24150.502398260087 13.006217045206656 0.24777787247912297
0.6665102666766523 12.991813154303458 22681.407644638202 13.79318160528213 1.1696028233404079
