M[M_sun], R[km], Lambda[1], P_c[MeV/fm^3], rho_c[fm^-3]
0.24162668629717493 15.618656898711224 2160425.4255784233 3.5677272577965504 0.1711233750220791
0.2536448085223541 15.277270947582565 1723199.4131721123 3.784835053475388 0.17388836559841614
0.2660409641421189 14.981247413989642 1382959.158670759 4.011433960085918 0.17666705357062232
0.2788177324789788 14.723458153256091 1116385.3098052286 4.2477795897739945 0.17945811009305693
0.2919728188844025 14.498359393155324 905808.0041981711 4.494497321791589 0.18226810495110565
0.30550923219766196 14.301167733409374 738583.4442036195 4.7517432785699185 0.1850927545354265
0.3194277394312618 14.12806149022874 605055.4605350306 5.020198943416389 0.18793865996308412
0.3337272112888976 13.975873848680033 497643.1371927908 5.300089436252316 0.19080246502359088
0.34840822562161144 13.841966641405882 410968.93767846853 5.592142208422239 0.19369044266221436
0.3634724201746678 13.723923851599974 340636.0046544357 5.896526028680287 0.19659768329086216
0.3789265167202895 13.61994610022196 283254.7575402792 6.2141044014572 0.1995318553864568
0.39476041006639845 13.528388691834046 236389.07397958366 6.545133145767353 0.20248910874015336
0.4109864419588382 13.447813659409485 197836.64277984976 6.890317909054042 0.2054732092410642
0.4275955907664109 13.377007050719286 166059.46067826945 7.250362451550496 0.20848720516930896
0.44459147341240585 13.314882077267876 139778.96772490512 7.625523565397599 0.2115266080033719
0.46197517927223325 13.260547377827837 117966.36402097398 8.01675466388256 0.21459764736952888
0.4797414177825826 13.21312017998967 99795.18468057281 8.424758884917946 0.2177019386565352
0.4978991189146795 13.171951444299516 84630.01416677379 8.849974264648358 0.22083690834086891
0.5164396849813461 13.136370709252724 71928.39374493663 9.293279825800669 0.22400604445416078
0.5353597215225474 13.105828665440896 61264.504406974855 9.75555793411314 0.22721222834722593
0.554667492583386 13.07977905674578 52294.70526933706 10.237618381899058 0.23045681128387502
0.574352398894803 13.057831625635423 44721.52456826155 10.739928033500444 0.23373643426190419
0.5944112877110748 13.03950229022975 38320.294520235686 11.263740313449714 0.237057394088979
0.6148503685067921 13.024501218521424 32895.204195205864 11.809988995919591 0.24042125399056966
0.6356558729223715 13.012440105355388 28286.423941764493 12.379653354757167 0.24382964739912538
0.6568275398071791 13.003014978396259 24365.919812561704 12.973416686638224 0.24728045942201685
0.6783604727015274 12.995970738594627 21022.387105679565 13.592617376328704 0.2507786040694998
0.7002519268505697 12.991046089176736 18168.300292426375 14.238447980570983 0.25432665667055165
0.7224866131869461 12.987998164518288 15725.397574330455 14.912098537768157 0.25792660251584454
0.74507670049517 12.986639138841849 13630.628736553019 15.614590113263263 0.2615782503979648
0.767999402946438 12.986761249104527 11833.55819129707 16.347206401238825 0.2652836687815382
0.7912472694397201 12.98813614223826 10286.222672845655 17.111555584177715 0.26904746484373593
0.8148225558122987 12.990672602744903 8954.02942146088 17.909093169285676 0.27287207207205116
0.8387068920467926 12.9941317570792 7756.194382263962 18.741170473217455 0.27675844431842117
0.86288821288297 12.99842262084228 6812.414388404811 19.609160405667247 0.2807073148819137
0.8873713289900838 13.003363045041164 5953.700947880727 20.515135821354352 0.284724922104677
0.9121246781180832 13.008873930415712 5209.277635059336 21.46089145442839 0.2888142805391221
0.9371518243311214 13.014764435106768 4563.894649777208 22.447893484852255 0.29297516541036234
0.9624374912864443 13.020958991983711 4003.3865876897576 23.478203912033326 0.297211667456539
0.9879595893364903 13.027344899081337 3515.4677405053026 24.554228402998575 0.301529746185392
1.013704031712562 13.03380861501064 3090.913894801116 25.677887780962802 0.30593087119166446
1.039669995355119 13.040258067924862 2720.629269603728 26.851187222034422 0.31041662510314594
1.0658234725207456 13.046587626026632 2397.4849191791745 28.077203525529292 0.31499558721991183
1.0921568149298813 13.052718841223305 2114.966184995802 29.357965423526885 0.3196680197056053
1.1186570096775081 13.058557086470827 1867.7679945044151 30.69628247223784 0.3244389734682278
1.145289502153457 13.06400622968429 1651.566506644137 32.095500330875886 0.3293161375716621
1.1720548713281154 13.069013337346398 1461.5608622244604 33.557617844452615 0.3342975824597405
1.1989125134565108 13.073474190841914 1294.9748237785461 35.08715125856586 0.3393966955380799
1.2258596947934401 13.077346001139967 1148.6578182598826 36.686090769258236 0.34461003366310905
1.252856518430876 13.080503552072324 1019.77169994776 38.3595219238158 0.34995223772479966
1.2799009995049693 13.08294070840747 906.408775366248 40.10972161338224 0.3554200952686525
1.306946484863084 13.084521379762496 806.5364201793802 41.942093245748715 0.36102776658551466
1.333984310759952 13.085238096755074 718.3368365352515 43.860191899638664 0.3667775788299582
1.360993405640765 13.085032362328278 640.3960860303657 45.86863788064035 0.37267690253651165
1.3879271115121323 13.083766371143936 571.6088994785645 47.972800478416936 0.3787358900798912
1.414777290185086 13.081460383212963 510.6470300945888 50.177478141835515 0.3849603999208917
1.4415087718856252 13.078022492275249 456.71251699496884 52.48781463491105 0.3913570031262486
1.4681042934142425 13.07341730052803 408.8706069133532 54.910266601538865 0.39793759461202366
1.4945143092524074 13.067548583874308 366.3917514744607 57.451026146130765 0.40471123915233687
1.520726727679847 13.060398702452275 328.7230670025351 60.116723682460254 0.41168771191675646
1.5467110097935084 13.051905148081671 295.1778261149964 62.91446739287476 0.4188775569675885
1.5724273200167862 13.042020621998958 265.3597643777094 65.85188646579208 0.4262921505338644
1.5978418938064196 13.03068033195578 238.8198881969138 68.93717849509508 0.4339437696211501
1.622938888110127 13.017859233945892 215.15146387925049 72.17916147271609 0.441845666584743
1.6476911420144646 13.003516791619287 194.02248890009434 75.58733085978997 0.45001215036971626
1.672039721518726 12.98757807859517 175.16753653120634 79.17155658190823 0.4584571481146505
1.6959768557762795 12.970018270013455 158.3039262905466 82.94217641590198 0.46719453403482886
1.7194572316867105 12.950800957264459 143.22375893484252 86.91186397982354 0.47624557273770973
1.7424337487711024 12.92982536333721 129.73578241251903 91.09212916303882 0.48562432311633574
1.7649213528091359 12.90719667871986 117.63296726590622 95.49721198120514 0.4953532914075226
1.786847126521993 12.882758488291957 106.78688625951466 100.14063913046039 0.5054494273941004
1.8081841484823398 12.856491804613677 97.04716238033092 105.0390166733286 0.5159387329542727
1.828897611608602 12.828359094287759 88.29884069859578 110.20889376004743 0.5268437571098886
1.8489719361363715 12.798372564164874 80.43185345978462 115.66800307200944 0.5381882266842493
1.8683464172074078 12.766427527872592 73.35796129457346 121.43638276882083 0.550000820981865
1.8870213824875413 12.73260212343817 66.97951823322342 127.53547309365771 0.5623113907970654
1.904944858872611 12.696774909873252 61.2324963329233 133.98786903903755 0.5751497638188866
1.922083195630905 12.658949681543344 56.051944196263875 140.81921683190333 0.588552072232833
1.93839527906799 12.619052253463495 51.37117610553564 148.05720045388992 0.6025565731371888
1.9538903893035067 12.57719853560979 47.14524754485351 155.73023716435975 0.6171987197520957
1.9685034970532174 12.533256487706284 43.32372608513924 163.87208176727117 0.6325264507861218
1.9822152849352221 12.487249981771377 39.86350743769643 172.51663880759207 0.648581728876792
1.9950012837669422 12.439160442051412 36.730610607131915 181.70300179065615 0.6654170161831823
2.0068347367225794 12.388992003217568 33.88943149231029 191.47330572919986 0.6830871280979318
2.0176788930102556 12.336707539477457 31.31613786403224 201.87361133462855 0.7016513328071157
2.027512538806298 12.28231498628182 28.981094183107512 212.95376885096022 0.7211719225057114
2.036317903890395 12.225835334072293 26.859815246390642 224.76954953726542 0.7417200958035356
2.0440586669339713 12.167231732708025 24.932832886808995 237.3818942619819 0.7633721824429941
2.0507142034377353 12.106512199532592 23.178884903124235 250.8578381598227 0.7862112473463303
2.056283558274551 12.04375453402919 21.58627901203824 265.27069309329545 0.8103260463808274
2.0607252678209425 11.978893914008266 20.134810928874963 280.7017730396275 0.835814774915654
2.0640267066788693 11.911991448818583 18.814836395816503 297.24133740282633 0.8627860055864557
2.0661833559552534 11.843075136517658 17.61262981286928 314.989690309493 0.89135984725875
2.0671713055829053 11.772174462523491 16.51792696673454 334.0561380064316 0.9216616689033672
