M[M_sun], R[km], Lambda[1], P_c[MeV/fm^3], rho_c[fm^-3]
0.24162668629717493 15.618656898711224 2160425.4255784233 3.5677272577965504 0.1711233750220791
0.25364396427723807 15.277267884067838 1723252.2383416411 3.7848180418071387 0.17388815355617812
0.2660398009378919 14.981283136231914 1382972.5323480102 4.011398198031374 0.17666662140729847
0.27881476796558874 14.7235264917601 1116478.2756040383 4.247723867310647 0.17945746379645405
0.29196917215450674 14.498426699288558 905879.1859355709 4.494420176578445 0.18226724592125282
0.3055037653700444 14.301287259474924 738692.0329926865 4.751642091007508 0.1850916615166331
0.3194207802399475 14.128145228905257 605150.6062169487 5.0200729679853975 0.18793735291936553
0.3337183787673277 13.975981720663304 497698.2492254206 5.299935356178425 0.19080091369291188
0.3483990704071689 13.842042935049768 411015.30266923324 5.591959638855951 0.19368867625143735
0.3634615569074802 13.724004724834966 340674.4185002044 5.896310867725901 0.19659566245364565
0.3789147226538326 13.620012676116708 283317.16965837544 6.2138540451554 0.19952957243843297
0.3947453561119525 13.528486372293298 236410.096107377 6.544847853903057 0.2024866071159139
0.4109717133460599 13.447874456663365 197872.67047396625 6.889992173809013 0.205470435143028
0.42757882434148414 13.377071607754923 166091.01510833512 7.249993216023855 0.208484150578424
0.444573573552681 13.314942343346496 139807.59296962785 7.625111849980556 0.21152333048392008
0.4619547848856925 13.260581482687 117980.53551008453 8.016293286918227 0.2145940782457025
0.47971924915521 13.213161257905877 99816.95081580912 8.42424424837356 0.2176980693091701
0.49787544446464344 13.171996708708921 84647.23751644761 8.84940826595528 0.22083281026849838
0.516413619828386 13.136418769906053 71942.02543902337 9.292653304871841 0.2240016337077628
0.5353317024057734 13.105854129757521 61278.95600427685 9.754866642634747 0.22720749539984295
0.5546373872596914 13.079820222753678 52300.85553243594 10.236857813396842 0.230451746194349
0.5743203701819589 13.057858025005482 44732.914382848416 10.739101492585844 0.2337311276132021
0.5943770967842062 13.03953516364636 38330.096024116836 11.262835369482536 0.2370517399826959
0.6148126070940393 13.024516546702532 32902.71551540018 11.809000302489949 0.24041524108491885
0.6356171498113158 13.012433535968912 28293.44644239352 12.378575231887815 0.24382326375361602
0.6567858234061973 13.003043124483629 24178.554472530737 12.972254085268531 0.2472738144693348
0.6783178524861526 12.995984302925555 21029.293335704446 13.591353786329215 0.2507715687389187
0.7002048197660856 12.991056309019344 18173.294625127914 14.237076626217492 0.254319217006255
0.7224390625264981 12.988001351036633 15731.098905212377 14.91061220796005 0.25791874372987283
0.7450253667433848 12.986653488960084 13634.84781267006 15.612995636388906 0.2615701004898414
0.767945825756425 12.98675224730986 11837.122263757648 16.345482183464757 0.2652750739883832
0.7911898463464933 12.988140301145828 10289.485857919643 17.109692971279532 0.2690384075879457
0.8147627497090131 12.99067242596652 8956.830299794123 17.90708293324411 0.2728625336457727
0.8386431033741153 12.994145692309802 7807.893741732103 18.739021530499514 0.276748571038525
0.8628257738564498 12.998394075153445 6815.283285689163 19.6068448130477 0.28069692627819764
0.8873008236783168 13.003342581649358 5955.803950046211 20.512642432985952 0.2847139956902407
0.9120611359154943 13.008842814200387 5211.634615454709 21.458208361182695 0.28880279231083295
0.93708028696929 13.014735745474248 4565.662143415467 22.44503186395175 0.2929632798663015
0.9623587093205805 13.020929584018916 4005.0201888820948 23.47512784981745 0.29719917465389317
0.9878822932651119 13.027326548712699 3516.8910545046983 24.550923419481443 0.3015166170548278
1.0136237857316317 13.033784286519982 3092.071165881134 25.6743666698619 0.30591728254579836
1.0395882700726318 13.04023840985285 2721.705405117123 26.84740693413465 0.3104023438561754
1.0657383481607554 13.04657080945472 2398.555714757539 28.073146363910848 0.31498057801489615
1.0920691669078884 13.05269461398939 2116.0039917467116 29.353645768204824 0.3196524715987278
1.1185667022761059 13.058535333666477 1868.8082107532773 30.691648747310854 0.32442262770328995
1.145197111994875 13.063987541649562 1652.2731861484865 32.090567660658124 0.32929918940264236
1.1719594442979542 13.069000040816311 1462.2293494849814 33.55232836520954 0.3342797563693232
1.1988144479370801 13.073464769373139 1295.5279408473732 35.08148000299647 0.33937794223339274
1.2257614869991944 13.077326240205977 1149.1601747934883 36.68005419584785 0.3445905606117286
1.25275569924197 13.080490303021659 1020.2980981286395 38.35309495860602 0.3499319982670744
1.2797962150067408 13.082931294556827 906.8107389550615 40.102832356784724 0.3553987822102917
1.3068399112225626 13.084521984681302 806.8257404228586 41.934757603385066 0.3610055898273044
1.3338763176548258 13.085237526933648 718.6798571980037 43.85232762056288 0.36675420212543935
1.3608831225214304 13.085033237970588 640.6696926246238 45.860261444193775 0.37265254499717787
1.3878144827710004 13.083775590133518 571.8626816900938 47.96387610370964 0.37871048842862337
1.4146708001468797 13.081487655522256 510.87328975314597 50.167907962518896 0.384933583223791
1.441394679683852 13.078037109704272 456.93462867555587 52.47761384442258 0.3913289955774732
1.467987815488426 13.073439080361695 409.05989112308276 54.89939002840587 0.39790831683325867
1.4943964918859465 13.06757653052353 366.5636177349033 57.439424959759876 0.404680605628626
1.5206083095456215 13.060432470433527 328.873017010501 60.10434506550831 0.4116556304925185
1.5465912549318828 13.051948966594866 295.3198453395373 62.90125418092676 0.4188439282926839
1.5723072163348915 13.042070027389236 265.49134046020765 65.83777675070743 0.4262568674543583
1.5977314757865264 13.030744109149481 238.94627086328842 68.92210518793227 0.4339067165087669
1.6228186988677504 13.017927132103782 215.26067506681983 72.16305182165672 0.4418067185983258
1.6475705921344652 13.003589014394713 194.1208827120595 75.5701059179032 0.44997117264116976
1.6719195687242567 12.987658021141469 175.25507131716293 79.15322056995078 0.45841437040853134
1.6958584827634582 12.970113352585704 158.3835181605242 82.92255042193389 0.4671494335578503
1.719337128827369 12.950904662414773 143.29437924658725 86.89084696576994 0.476197979541446
1.7423230709857305 12.929967679669732 129.78959560046616 91.06971238105056 0.48557445402773275
1.7648026720606032 12.907323934468224 117.68953973476032 95.47317946295838 0.49530055869628864
1.7867295213031384 12.882891102166408 106.8382793295313 100.11496994955671 0.5053940344153361
1.8080691830791198 12.856640649247252 97.09497168534432 105.0115777110164 0.5158804662602885
1.8287810747982192 12.828508700991513 88.3412393789058 110.17953981533782 0.526782385819878
1.8488609927555346 12.79854906135241 80.47362210068572 115.63645569290448 0.538123060685182
1.8682480523935503 12.766645676519847 73.39131817623468 121.40258455321626 0.5499320202005583
1.8869180462434096 12.73280047810164 67.01808325499105 127.49931661865371 0.5622389539512976
1.9048414450074838 12.696990550072826 61.2653386157544 133.94911517046546 0.5750732516493559
1.9219856880830022 12.659178354421876 56.08211312719103 140.77759214512503 0.5884709715139206
1.9383005110212281 12.619296476429087 51.39774411376774 148.0124556572573 0.6024705042946735
1.9537981083073852 12.57745804597871 47.167556662304634 155.68224584541355 0.6171077713986939
1.9684158789413537 12.533536014186247 43.343525991096165 163.82055307433544 0.6324301947594846
1.9821331050438062 12.487542059482614 39.88446092837849 172.4610982404906 0.6484791792923191
1.994922602606116 12.439474356230754 36.74787731439231 181.64324799445635 0.665308173814871
2.0067627472264853 12.38931873854222 33.90658034831123 191.40895063420749 0.6829714361718406
2.01761229269789 12.337052950602542 31.331524783415055 201.80422685238094 0.701528182195341
2.0274507574807896 12.28267369850505 28.994377671675895 212.879057227472 0.7210412189902732
2.0362633858308006 12.226215920758763 26.872906296885745 224.68881917725466 0.7415805514543397
2.0440108322123223 12.167628340287191 24.945213462642382 237.29475183312093 0.7632235965967462
2.050673374831 12.106930209758097 23.19050609567033 250.76365401756982 0.7860527713087625
2.0562496338042524 12.044192143550875 21.596794125262768 265.16857478131266 0.8101561155767392
2.0606990611406815 11.979350466552157 20.14466654321783 280.5913323777404 0.8356336265253202
2.0640069790128197 11.912463914849138 18.823728936125878 297.1215169348867 0.8625918749588285
2.0661712542766204 11.843569697221028 17.620663423923524 314.8595277694271 0.8911514826331056
2.067167516493393 11.772687515630672 16.525038900975275 333.9147748201956 0.921438397042719
