M[M_sun], R[km], Lambda[1], P_c[MeV/fm^3], rho_c[fm^-3]
0.24162668629717493 15.618656898711224 2160425.4255784233 3.5677272577965504 0.1711233750220791
0.2536437011630403 15.277280376491877 1723229.1590783198 3.784813057562516 0.17388809142997338
0.2660386829781844 14.981289943119515 1383000.2973227098 4.01138772015875 0.17666649478839144
0.278813858992482 14.723559559621371 1116450.3872231643 4.247707541331719 0.17945727443970122
0.2919679905316717 14.498432931843963 905962.5264486867 4.494397574091774 0.182266994237318
0.3055035689644085 14.30121554852062 738655.5004949813 4.751612444559773 0.18509134127841645
0.31941857539497615 14.128172114655642 605127.3923739484 5.020036059198937 0.18793696997646053
0.3337170775760847 13.975976447696876 497675.5077707558 5.299890213354281 0.19080045917957825
0.3483963900251423 13.842065579065844 411029.1208214875 5.5919061492895725 0.19368815872516817
0.36345814231780915 13.724024069119698 340657.45154717605 5.896247829711207 0.1965950703872714
0.3789115454652109 13.620026190843578 279410.9362408904 6.213780695854864 0.1995289035811304
0.39474193289912496 13.528494298352552 236413.69972768245 6.544764269477885 0.20248587419342218
0.4109663003501092 13.447914908216424 197876.57455643654 6.889896740684932 0.2054696223944964
0.4275738031706588 13.377087226067154 166090.49888516325 7.249885038684802 0.20848325565502152
0.4445686520523113 13.314964871925252 139811.2050053754 7.6249912274227665 0.21152237025080003
0.46194863845932066 13.260614755090865 117986.95717184916 8.016158115222565 0.21459303258335494
0.4797124500485111 13.213182964969143 99833.00639326125 8.424093473513183 0.21769693569299947
0.4978697493419744 13.171999280900602 84653.39098048535 8.849242443864703 0.22083160964571227
0.5164057879216729 13.136428845286177 71946.28175565501 9.29246975206947 0.22400034148459091
0.5353232245468514 13.105867374757523 61283.1583086747 9.754664114611918 0.22720610878579434
0.5546293761324397 13.079823509322953 52306.000394940216 10.23663499002455 0.2304502622776132
0.5743105050004766 13.057870113978105 44735.85149070969 10.738859342033068 0.23372957293164442
0.5943666221360869 13.039536762240218 38330.93196631889 11.262570250210558 0.23705008351268692
0.6148021223849824 13.024513860439699 32905.61134810274 11.808710648336643 0.2404134795043895
0.6356025467069611 13.01243912486472 28297.314989443217 12.378259378983685 0.24382139356513344
0.6567739004652626 13.003025955817996 24374.62900487596 12.97191348405773 0.24727186773248397
0.6783048720436139 12.995980800425752 21030.969170555178 13.590983600280003 0.2507695076421754
0.7001919903739259 12.99106519494933 18174.71842725801 14.236674870499344 0.25431703746187634
0.7224251581917821 12.98800429590551 15732.617256752977 14.910176770215228 0.25791644140637643
0.7450113834732448 12.98665477054665 13636.633535221408 15.612528517021433 0.2615677128854874
0.7679306755986869 12.986759347770077 11837.436044489354 16.344977056824092 0.26527255605876965
0.7911734213893119 12.988134232153564 10290.7843164217 17.109147302300823 0.2690357541844813
0.8147476026614109 12.990662469717233 8957.89432230302 17.90649401879338 0.27285973928881335
0.8386281611450954 12.994118078846808 7808.761656438156 18.738391982618165 0.2767456785917471
0.8628077740836847 12.998396283384583 6815.911058922005 19.606166446265323 0.28069388287426866
0.8872811651944424 13.003341674540959 5956.529977429812 20.51191198242419 0.2847107947426209
0.9120408030457839 13.008834839695872 5212.083775672503 21.457422338395478 0.2887994267888801
0.9370589867865244 13.014732090449332 4566.269343080086 22.444193543173213 0.2929597979590549
0.9623361767293604 13.020929603331318 4005.2611018068674 23.474226710988262 0.2971955148613534
0.9878592157316337 13.027323495943804 3517.3107719574373 24.54995522114761 0.3015127708624728
1.0136011158596834 13.033784347525987 3092.426642963381 25.673335159719628 0.3059133017495017
1.0395636154355383 13.040233626264634 2721.984853449423 26.8462995021237 0.31039816017745275
1.0657134094427239 13.046558669879095 2398.8293346915557 28.071957826345518 0.31497618109762626
1.09204316053154 13.0526863133327 2116.135683807166 29.352380337380865 0.31964791682474003
1.1185407734030826 13.058527339599076 1868.9598542316623 30.690291315750414 0.32441783927550116
1.1451698156729382 13.063983362146947 1652.454104771071 32.08912265862825 0.32929422451799467
1.1719315255087268 13.068998426019478 1462.4944977360549 33.55077884359523 0.3342745343217206
1.1987869458614338 13.073459544540686 1295.721385199739 35.07981864867777 0.339372448585055
1.2257306839934616 13.07732286638921 1149.3289041984413 36.678285829812665 0.34458485613663625
1.2527253130783893 13.080486333934436 1020.4201908813458 38.351199235647904 0.34992599303232685
1.2797658141906247 13.082935641626815 906.9129757320482 40.10081421853042 0.3553925387647493
1.3068087221682694 13.084522935049518 806.9542508292858 41.932608708001915 0.3609990933910049
1.333844050492755 13.085236954670343 718.7706317614594 43.85002387637045 0.3667473542062907
1.3608521866389856 13.085036947161752 640.7768551772295 45.85780767813873 0.3726454097788087
1.387782243839859 13.083778043029653 571.953520334785 47.96126183547744 0.3787030473773304
1.414637651010543 13.081493784321601 510.93360445513053 50.165104527101796 0.3849257276888073
1.441359823261764 13.078041927458797 456.99361446103586 52.474625692029 0.3913207912305644
1.4679534178305644 13.073446142640183 409.11772890084694 54.89620392841661 0.3978997404250952
1.4943625691291988 13.06758526726252 366.6362040183591 57.436026609886675 0.4046716321126346
1.520573728407997 13.060444647976563 328.92094538030153 60.10071899584801 0.41164623287729707
1.5465562406792432 13.051960484681803 295.35958761372416 62.897383648441156 0.41883407747978707
1.5722718328589547 13.042085385196687 265.53147743493975 65.83364362306304 0.4262465320598864
1.5976961078885552 13.03076202419875 238.98591743377645 68.91768981550656 0.43389586266700964
1.6227833352697556 13.017947303903872 215.29579353371895 72.15833289636467 0.44179530974548964
1.6475348963305627 13.003613084940897 194.15097635510472 75.56506031733772 0.4499591692769967
1.6718837834794056 12.987682672930461 175.28052152927032 79.1478495298926 0.4584018398335243
1.6958215948853392 12.970140838643914 158.4040398133295 82.9168015423955 0.46713622264941457
1.7192868994051964 12.950901981124948 143.3236825424374 86.88469065474105 0.4761840385259282
1.7422884582777547 12.930003432573693 129.8098352898366 91.06314607594912 0.48555984641585204
1.7647686565958465 12.907361966680416 117.71057023848353 95.46613991198961 0.4952851123496078
1.786697049386757 12.882932034463455 106.85256513568119 100.10745102330026 0.5053778088986741
1.8080334539242144 12.85668559436391 97.10975713217981 105.00354042221961 0.5158633990606817
1.8287475004311697 12.828557888479462 88.35236471099545 110.1709416384692 0.5267644093192275
1.848827818368179 12.7985992487532 80.48554606114874 115.62721507861939 0.5381039727647599
1.8682164259808145 12.766699043240203 73.40004651250307 121.39268468955827 0.5499118677060459
1.8868873551818461 12.732859453440616 67.02935160217487 127.48870192736325 0.5622176503505738
1.9048130528726315 12.697052286355913 61.27377595567332 133.93776385118187 0.5750508406205368
1.9219562254007077 12.659246262183714 56.09062747211821 140.76540000567118 0.5884472165898281
1.9382714443808482 12.619368703018255 51.405196082656005 147.99934969020387 0.6024452943149837
1.9537714344550396 12.577535514451949 47.17553645893 155.66818902822692 0.617081132323018
1.9683902413008947 12.5336183634883 43.35052978282461 163.8054602288669 0.6324020011987191
1.982109496713785 12.48762855252988 39.89031293121157 172.4448304094413 0.6484491425209744
1.9949023976538132 12.439563866162592 36.75529584264818 181.6257462090489 0.6652762940700754
2.0067415801310458 12.389414795813767 33.91293368867332 191.3901012484329 0.6829375504049693
2.0175930910741546 12.337153332332562 31.336804182661066 201.78390450196252 0.7014921120279829
2.0274328436249736 12.282779912002907 28.998088438516806 212.85717471398587 0.7210029368421185
2.0362465858820102 12.226326768443272 26.876287413260734 224.6651739751839 0.741539680159648
2.0439968976288547 12.167745165786414 24.94919761738078 237.26922875646574 0.7631800774064594
2.0506610655285478 12.107053170194627 23.194185415963705 250.73605203335444 0.7860063014795168
2.0562376703750513 12.044320871772195 21.598005417715385 265.1386658513385 0.8101063453795899
2.0606909501142825 11.979484077326214 20.14673268499475 280.5589861740995 0.8355805712228362
2.0640011924205575 11.912601843076672 18.82611534826733 297.08642380828445 0.8625350178057073
2.066168022043008 11.843714642470633 17.62322608582677 314.8214059451625 0.8910904570904438
2.0671646441972467 11.772836858994655 16.526769680223726 333.8733728848697 0.9213730059930351
