M[M_sun], R[km], Lambda[1], P_c[MeV/fm^3], rho_c[fm^-3]
0.24162668629717493 15.618656898711224 2160425.4255784233 3.5677272577965504 0.1711233750220791
0.25364208307558833 15.277343310778196 1723154.5295234153 3.784805528939685 0.17388799758932172
0.26603822639157115 14.981277663414836 1383066.081777844 4.011371893534645 0.17666630353297935
0.27881213820195844 14.723614214350755 1116478.6699239241 4.247682881311957 0.17945698842063385
0.2919652351133275 14.498521897415136 905976.6735233654 4.494363433625208 0.18226661407529918
0.3055002972416309 14.301285485449897 738669.3317740678 4.75156766447401 0.18509085756802615
0.31941597585556636 14.128198380561962 605144.3109387684 5.019980309682507 0.18793639155371022
0.33371201358026104 13.976087258337307 497727.24213918013 5.299822026741723 0.19079977265353185
0.34839263020007677 13.842047966709723 411037.09296587505 5.591825355387426 0.19368737702193928
0.36345424428564316 13.724049808718473 340680.6702970621 5.896152613453635 0.19659417609603036
0.37890579906723787 13.620067813243264 283340.01638866204 6.21366990507027 0.1995278933025757
0.3947366535129003 13.528527572258744 236437.42108716277 6.544638019246839 0.2024847671494516
0.4109600995696496 13.447955652398557 197901.00730443586 6.889752593866467 0.20546839477970147
0.42756692004097235 13.377129056732254 166114.6552014392 7.249721642723082 0.208481903922105
0.44456048656476915 13.314976745895175 139822.74586704792 7.624809033974465 0.21152091987380156
0.46194000153203574 13.260624768456811 117998.64783575837 8.015953946551067 0.2145914531736176
0.4797029423296904 13.213210805126707 99834.51482820883 8.423865737664984 0.21769522343778988
0.4978581279359362 13.172030558188084 83783.57581001877 8.848991980575699 0.22082979618448514
0.5163945377676346 13.136450125712125 71953.16690317194 9.292192508266757 0.2239983896709357
0.5353113414680055 13.105879826211641 61289.12214843501 9.754358210659847 0.22720401440541405
0.5546160413220868 13.07984031965506 52310.663430411114 10.236298432079566 0.2304480209329913
0.5742963498202125 13.05788527128883 44741.42987093596 10.738493592457775 0.23372722470607601
0.5943513695608338 13.039549881771276 38337.45428105572 11.262169808957696 0.23704758154849254
0.6147858860926152 13.024546125698057 32910.956244520676 11.808273149984586 0.24041081878445908
0.6355861138150203 13.012455892484338 28301.71871948147 12.377782310546468 0.2438185688075168
0.6567561586139914 13.003030235617755 24377.19646533723 12.971399036296305 0.2472689273600389
0.678286063128109 12.995989625729177 20872.016891190066 13.590424468348687 0.2507663945453823
0.7001718684053486 12.991072476841858 18178.166335916343 14.236068056675615 0.25431374546726704
0.722403773852634 12.987992714716778 15734.518633516283 14.909519084177758 0.2579129639723797
0.7449891797353639 12.986640172252786 13638.106794681704 15.611822980139316 0.26156410664894714
0.7679052099104225 12.986767944771266 11839.508437164715 16.344214115265586 0.2652687529864528
0.7911493629776977 12.988134757637733 10293.37260289091 17.10832312734959 0.2690317465007825
0.81472157840065 12.99065518661475 8959.328691169376 17.90560452790752 0.2728555187181616
0.8386011146459228 12.99412101904821 7809.524382074639 18.73744112090799 0.2767413098741779
0.8627781922964134 12.998394749850098 6816.677464278232 19.605141851088952 0.28068928616189065
0.8872524626309839 13.003334934977394 5957.239639196761 20.510808722870603 0.284705960088194
0.9120116616030497 13.008821710954969 5213.0970774668085 21.456235145915123 0.2887943435744747
0.9370279514187982 13.014720293157795 4567.004469023302 22.442927362948684 0.29295453896725593
0.9623032067551627 13.020920990096693 4006.103224936404 23.472865654591 0.29718998720691486
0.9878262305303184 13.027315125783927 3517.8716161211305 24.548492882816195 0.30150696168648666
1.0135660501764645 13.033777495260798 3093.334177772318 25.671777199660934 0.30590728928158906
1.0395265589899123 13.040226219088721 2722.5145857949933 26.844626875548812 0.31039184129544195
1.0656754986760666 13.04655135918744 2399.2387580829395 28.070162704521664 0.31496954016142104
1.0920050432486113 13.052682012224711 2116.525377288181 29.350469082140183 0.31964103747939027
1.118501728853216 13.058520189659331 1869.381047266275 30.68824111069317 0.32441060704431174
1.1451292690774837 13.063974338009025 1652.7430487535328 32.0869401947415 0.3292867257870439
1.1718896867869535 13.068993178237692 1462.7696932538165 33.548438523260096 0.3342666472008941
1.1987432125323 13.073449376017765 1295.9637092464313 35.07730942729734 0.33936415127020136
1.225686583490842 13.077317742318307 1149.5662010040442 36.67561498839945 0.34457624041567464
1.2526812484864216 13.080485891120258 1020.6120049297652 38.348336047879535 0.3499169230811498
1.2797191441456224 13.08292705744763 907.1122504460874 40.0977661475648 0.3553831090514764
1.306761643692824 13.084519035992194 807.1115776396691 41.929363155653995 0.3609892815945581
1.3337967196439442 13.0852313577107 718.8433199208521 43.846544458554504 0.3667370115771193
1.3608030368804707 13.085038749161637 640.9054612787562 45.85410168473711 0.37263463325341795
1.3877327125031251 13.083784651286274 572.0605409370969 47.95731343882039 0.3786918089658743
1.4145879256517422 13.081497189702816 511.0477642719444 50.16087043673362 0.38491386330098926
1.4413087457529057 13.078049174020306 457.06266984598807 52.470112628791085 0.39130840004981177
1.4679021424775767 13.073456907267145 409.2051332547498 54.8913919112401 0.39788678734027844
1.4943100605363455 13.067596873681541 366.695498751961 57.43089403932234 0.404658079298547
1.5205213854044402 13.060457813922007 328.9937791992211 60.09524250917844 0.4116320395717879
1.5465034905606567 13.051979733133077 295.42748822839286 62.891537960337864 0.4188191997388114
1.5722192320195443 13.042106315460964 265.59070410555256 65.82740135017868 0.42623092248810157
1.597641420206184 13.030788939930227 239.02852779193648 68.91102128319451 0.433879470121265
1.6227232909780833 13.017946976843056 215.33670105466035 72.15120592550109 0.4417780790082522
1.6474819701798749 13.003644443098173 194.19026802144458 75.55743998896527 0.4499410406963876
1.671830429509381 12.987720525520405 175.3168188452159 79.13973770990111 0.4583829150502894
1.6957691332577822 12.97018174685382 158.4417131782462 82.90811909807803 0.4671162704176604
1.7192329505628032 12.950948951212492 143.3535200915595 86.87539289737606 0.47616298368008014
1.7422356306586189 12.930055620230663 129.83948930242636 91.05322913518242 0.4855377848729408
1.7647168563434181 12.907415548526474 117.736120850601 95.45550826821041 0.49526178414922556
1.7866448450997965 12.882992584604386 106.87309433241421 100.09609541966158 0.5053533039986707
1.8079840447935915 12.856749288717687 97.13304648155835 104.99140198213047 0.5158376230577092
1.8286979410650988 12.82862827603267 88.37599390149803 110.15794616915083 0.526737222982997
1.8487784751975291 12.798676510460066 80.50210697992428 115.61325937673459 0.5380751451004083
1.8681673314012748 12.766784206916258 73.4192103541854 121.37773339317351 0.5498814323456455
1.8868409157429507 12.7329489264328 67.04212248019324 127.47267110646715 0.5621854766209474
1.9047664924144576 12.69714756676428 61.28930904450313 133.9206205834272 0.5750169944870516
1.9219122561577027 12.659350116776912 56.101007773693084 140.74698695015505 0.5884113409555516
1.9382296357288225 12.619476310900811 51.418138802398886 147.97955659824564 0.6024072213178343
1.953741222461219 12.577686281860025 47.18556967074289 155.646959990776 0.617040901171992
1.9683518764611978 12.533739838371012 43.36043165336047 163.78266661866735 0.6323594225454382
1.9820760514565654 12.487760883744325 39.89794989442057 172.42026239071154 0.6484037803606015
1.994868097174715 12.439701553386623 36.76366083851004 181.59931473284715 0.6652281487696806
2.0067046765299033 12.38954517601151 33.92145364951217 191.36163470101224 0.6828863757512663
2.017562893087476 12.337306018518472 31.342904058528728 201.7532135751714 0.7014376386603389
2.0274061181191105 12.282940198974142 29.006132910081334 212.82412773072156 0.7209451231220357
2.0362228997299745 12.226494616936497 26.881631817445573 224.6294651138705 0.7414779565427604
2.043974843083849 12.167921936949579 24.95353549400534 237.23068407886237 0.7631143551903713
2.050643933319327 12.107236852368702 23.199856314932397 250.69430944458045 0.7859359329102928
2.056217541937188 12.044491064128986 21.603288502342465 265.0934980666818 0.8100311835617282
2.060680358672256 11.97968426532906 20.15138584565837 280.5101378619083 0.8355004486214975
2.0639988295369354 11.912824619016853 18.830225936711592 297.0334273980753 0.8624491541252125
2.066163049515723 11.843932120649914 17.626625364939144 314.7638359575947 0.8909982988634928
2.0671651560357374 11.77306432614141 16.530364819014597 333.81084968420726 0.9212742555919068
