M[M_sun], R[km], Lambda[1], P_c[MeV/fm^3], rho_c[fm^-3]
0.24162668629717493 15.618656898711224 2160425.4255784233 3.5677272577965504 0.1711233750220791
0.25363830478510857 15.277431317244108 1723202.4512141692 3.784729636091214 0.17388705162157744
0.2660293696747962 14.981508959622868 1383264.4356410087 4.011212354555204 0.1766643755985663
0.2787979581394078 14.723866075464384 1116777.1305086382 4.247434301770331 0.17945410527255234
0.2919477476606317 14.498755094188935 906153.5643955141 4.494019293730121 0.18226278199769666
0.3054772826009016 14.301581918648937 739003.8096086546 4.75111628271032 0.18508598178350325
0.31938734727675355 14.128511247219377 605350.9570967446 5.019418364355993 0.18793056115405668
0.33367774631419106 13.97637667756823 497949.98880187154 5.299134727672566 0.1907928526923408
0.3483522139228565 13.842425751155963 411257.52212791954 5.591010989952076 0.19367949781232804
0.36340757335760027 13.724366332387614 340883.65247893264 5.895192890942977 0.19658516217911132
0.37885281442390384 13.62039105658185 283517.05899773806 6.2125532164693835 0.19951771044711622
0.39467544783574476 13.528875511968902 236609.39557624742 6.543365527339259 0.20247360911447448
0.4108921476065006 13.448251252728772 198044.2580335949 6.888299740110573 0.20545602166744986
0.4274915790740795 13.377413237136928 166243.14190611214 7.248074799770377 0.20846828001240697
0.444477302101337 13.315265011454821 139939.9968979899 7.6229727566339855 0.2115063019254489
0.46184890551974483 13.260888976327676 118105.77317416405 8.013896214849437 0.21457553495530088
0.4796044423062286 13.213460947473092 99923.83344761579 8.421570513026154 0.2176779665571711
0.49775172435176224 13.172281553219875 84743.47590212151 8.84646772839625 0.22081151952017597
0.5162780052919457 13.136655480651498 72028.58060606419 9.289398390297261 0.2239787189062375
0.5351858286509019 13.10606541327126 61353.211733430435 9.751275290853457 0.22718290710453495
0.5544823398512835 13.080009017673602 52370.50092093575 10.232906624146946 0.2304254328153086
0.574151250097181 13.058005672709964 44790.44010481355 10.734807635065545 0.2337035597178512
0.5942025096581603 13.03967646394665 38380.16258653144 11.258134287993949 0.23702236754048306
0.6146232261334734 13.024633395175467 32950.950224726905 11.803864236868305 0.240384005236603
0.6354132232606747 13.012536701207436 28336.081610181944 12.37297469057517 0.24379010253292704
0.6565679401549309 13.003102396602353 24410.71582891613 12.966214786071653 0.24723929631165664
0.6780917631457773 12.996042982767952 21061.958577163376 13.58478999510183 0.2507350233079095
0.6999675546274172 12.991107679889842 18202.591121366706 14.229953163987162 0.25428057187599473
0.7221883474922801 12.98802482905172 15755.737093932234 14.902891636064888 0.2578779221559715
0.7447622365286571 12.986653654671407 13657.679594611018 15.604713419662275 0.2615277672917463
0.7676692394160062 12.986750601934741 11856.48645932609 16.33652619903042 0.2652304306522165
0.7909001772020267 12.988119870552625 10307.591091641141 17.10001829052482 0.26899136289155734
0.8144609106499567 12.990613831386918 8973.322960462954 17.896641649660978 0.2728129905017583
0.8383280326482869 12.994077041803516 7821.5235909559615 18.727859947580722 0.2766972893401713
0.8624973704025768 12.998334712770836 6827.750174977879 19.594817852964084 0.28064296889330925
0.8869552208196747 13.003275108969738 5966.953554848188 20.49969223626553 0.28465724592025204
0.9117020499629832 13.008768402850643 5221.450484646114 21.444273107368822 0.28874312558947013
0.9367086647681975 13.01464970758334 4574.8505580031515 22.430169589401036 0.29290155043911376
0.9619723282037019 13.020833830496256 4013.0716735830288 23.459152112850028 0.2971342924392145
0.987483234000277 13.02723369425494 3523.9595117953277 24.53375905875344 0.30144843119796005
1.013211488766336 13.033688782775245 3098.4598098287597 25.656080109165842 0.3058467111862795
1.0391598399276298 13.040139148612454 2727.3290785158265 26.827774704626655 0.3103281768282608
1.065301228524017 13.04647247610705 2403.4366674597622 28.05207661179825 0.3149026318400012
1.0916147441095652 13.05259598564172 2120.420942897226 29.33121314652897 0.31957172793439464
1.118099721408224 13.0584392557657 1872.6274025234582 30.667585545150196 0.32433774319841163
1.1447164335096374 13.06389808693657 1655.922118692147 32.06485977904871 0.32921057873197457
1.1714673233522561 13.068916994087807 1465.5194902102448 33.52486069337982 0.33418718748322157
1.198314214405234 13.073400791142697 1298.5452521380985 35.05203035385389 0.33928056022749614
1.2252425123252646 13.077259489238026 1146.6362385774776 36.6487080001047 0.344489442636548
1.2522255692664466 13.080433477944608 1022.6213891307777 38.31949172745195 0.34982555059733894
1.2792568409015228 13.082891793362512 908.9308386162287 40.06705965462775 0.35528811342070565
1.306288546905801 13.084499214205431 808.7572882041849 41.89666762899574 0.36089043806411963
1.3333144766044704 13.085228300031964 720.3378535489427 43.811493529732545 0.3666328220896549
1.3603124836677651 13.085048362048816 642.2969648423905 45.816768763108854 0.37252607418861705
1.3872337657820215 13.083818687823928 573.2709909010166 47.917539152324906 0.3785785985070891
1.4140742179611148 13.08153093326392 512.1461447048143 50.118218902038656 0.3847943490004777
1.4408039103069405 13.078141807703249 458.05118636740525 52.42465152005986 0.3911835808780413
1.4673839370501003 13.073558573243815 410.0926240910028 54.84292004771938 0.39775630980115523
1.4937871411973087 13.067726403557634 367.50888639591005 57.37919395005723 0.4045215625786425
1.5199919172516556 13.060620928526108 329.6993717244654 60.04007897507512 0.411489073298019
1.545971903875587 13.052166751374656 296.08614339658584 62.83265641080828 0.41866934151396784
1.57168397463887 13.042326908716824 266.182161147052 65.76452609817883 0.42607369518039434
1.5970997821650768 13.031036045342068 239.56065609341104 68.84385358050126 0.433714358881274
1.6221936216077844 13.018261633731752 215.82058529323064 72.07942181783767 0.4416045279834695
1.6469412879238428 13.00397512657993 194.62853042571388 75.48068794806245 0.44975844940997384
1.6712968198821772 12.988094077502453 175.71967005694523 79.05784563730639 0.4581915098157505
1.6952187528068263 12.970572887205993 158.80949764594268 82.82067212450657 0.4669153175270801
1.7186970285670813 12.951408482261751 143.68181107095344 86.78175031731055 0.47595092930925775
1.7417157039380082 12.930581981409347 130.15304037964955 90.95335195903503 0.48531559491947984
1.7641951558994746 12.907986004223162 118.01204029151141 95.34843502836722 0.4950268415527169
1.7861250173086234 12.88360397143445 107.13121858124615 99.98173290551243 0.5051065146546141
1.8074711530712249 12.857410676640763 97.35266197007269 104.86915755897789 0.5155780367689103
1.8282019230343025 12.829366464877186 88.58068511989751 110.0266566273233 0.5264618880133789
1.8482849740650273 12.799449445884878 80.69318420014082 115.47271889444507 0.5377848369607902
1.8676839233130536 12.767616365852511 73.59520837189626 121.22716958680158 0.5495749396113518
1.8863629476006152 12.733820563133742 67.1955185336282 127.31123926050293 0.5618614841941846
1.9043077299179798 12.698106347416411 61.428913762302656 133.74798927498423 0.5746761666826397
1.9214576803103456 12.660343246018005 56.23275567585205 140.56157275946063 0.5880500836026257
1.9378019905108548 12.620566753775767 51.53772999929704 147.7802500270324 0.6020238452119854
1.9533221602147803 12.578817456978319 47.29633302618507 155.43319830956835 0.6166358013882575
1.967962395865358 12.534972110124942 43.460529706238205 163.55249779372647 0.631928467227629
1.9817058740910811 12.489070908288763 39.990118423258245 172.17289020662713 0.6479470346698047
1.9945199322249338 12.441075983886735 36.84747454591315 181.33318542126602 0.6647433905385438
2.0063804452320393 12.391001864458971 34.000333221898074 191.07502143439646 0.682371127644462
2.0172711416595215 12.33886117005453 31.417171787623385 201.44421154921574 0.700889190544804
2.026884390435956 12.285014669573561 29.106278571281656 212.5682863890164 0.8180312791847636
2.034137389857144 12.229886639877979 27.147205115041928 224.76399655623985 0.9894820977175427
2.0387524654798064 12.172258774877767 25.485513970950837 238.16557183385436 1.1717859800470287
2.040700343106969 12.111573075171673 24.073966114757006 252.9043146183006 1.3661271219747064
