M[M_sun], R[km], Lambda[1], P_c[MeV/fm^3], rho_c[fm^-3]
0.24162668629717493 15.618656898711224 2160425.4255784233 3.5677272577965504 0.1711233750220791
0.2536433732190986 15.277279406291493 1723163.2570052573 3.784809461244301 0.17388804660360174
0.26603821223937973 14.981295571875659 1383052.3583291187 4.011380159995396 0.17666640342827902
0.27881275486039875 14.723588358671618 1116429.7728259638 4.247695761566873 0.17945713781218073
0.2919666617491702 14.498490808012978 905989.6318748568 4.494381265631736 0.18226681263883046
0.3055012479941692 14.30128787820486 738723.0643676973 4.751591053675967 0.18509111021604624
0.31941700308738386 14.128195439192092 605140.1722396001 5.020009428338336 0.18793669367100324
0.33371461129052 13.976008406706018 497715.20869605395 5.299857641422988 0.19080013123427675
0.34839446609807057 13.842081805947103 411037.9698391868 5.591867554981782 0.19368778531462336
0.3634557454361472 13.724104978512907 340681.387236258 5.896202345981401 0.19659464319445566
0.3789080220934825 13.62005969014477 283331.9636554594 6.213727772314366 0.19952842098216514
0.3947395725320688 13.52851213128404 236424.15579724387 6.544703961093034 0.20248534537035967
0.41096363638721867 13.447945820779626 197886.7054583247 6.889827883246796 0.20546903597565833
0.427570172016906 13.377126719543746 166102.36082006586 7.249806986080258 0.2084826099458273
0.444564683013433 13.314967221873115 139825.96463421744 7.624904195397766 0.21152167741991962
0.461944221404042 13.260616262485284 117993.78259024306 8.016060585786581 0.21459227811431844
0.47970785649779857 13.213193246367993 99826.08845751401 8.4239846861916 0.21769611776442305
0.4978641833710527 13.172030134718447 84655.93486700213 8.849122799786814 0.22083074337146838
0.5164003191680225 13.136443121715393 71948.83096458779 9.29233731509623 0.22399940912004282
0.5353179416063266 13.105889369046023 61288.31581851251 9.754517986841314 0.22720510831772683
0.5546236097693734 13.079844417137286 52310.39289621311 10.236474218996678 0.23044919160528457
0.5743037369429622 13.0578631510968 44738.81092478861 10.738684626304403 0.23372845120254626
0.5943594682190526 13.039557788355179 38335.90674221988 11.262378962419199 0.23704888834310492
0.6147945305429656 13.024535729067367 32907.82953821704 11.808501658517388 0.2404122084975966
0.6355948132216079 13.012453675417598 28297.96623389882 12.378031486678701 0.24382004419788533
0.6567654459468282 13.003028337729573 24375.557070661904 12.97166773577982 0.24727046313610124
0.6782962118024749 12.995985623573556 21032.013768715817 13.590716506507281 0.25076802053560765
0.7001825553898335 12.991070256471 18040.63778962072 14.236384999211529 0.25431546489599277
0.7224168465467341 12.987986478047455 15733.100912869586 14.909862597386065 0.2579147802562003
0.7450006240854857 12.98664695647047 13540.965816029431 15.612191485948276 0.26156599020620297
0.7679191877894899 12.986747303931274 11838.288198394053 16.344612603630004 0.2652707393510051
0.7911623821597946 12.988129303620108 10291.595844050455 17.10875359799244 0.26903383973374906
0.8147346741702254 12.990661332165843 8958.205742610742 17.906069113122374 0.27285772314178663
0.838615103370612 12.994114586150966 7809.59010439233 18.73793776015938 0.27674359167456997
0.8627935000970276 12.998400659649377 6816.235423621855 19.60567700134954 0.2806916870436083
0.8872673489647075 13.003338515763511 5956.795433929299 20.511384959528442 0.28470848524657555
0.912026676247314 13.008830381341445 5212.608795685431 21.456855220703048 0.288796998555151
0.9370423197712318 13.014734321628296 4566.307719229154 22.443588693003324 0.29295728575579866
0.9623198545287627 13.020924425135647 4005.766824811821 23.473576538366657 0.29719287431715197
0.9878442319812196 13.027317847714567 3517.5776833329523 24.549256665997984 0.301509995834483
1.0135840907059628 13.033776080158997 3093.0053983317134 25.672590925938405 0.3059104296080086
1.0395458085749594 13.040233902227186 2722.270320476516 26.845500491904104 0.3103951416607205
1.0656957777054488 13.046557292768803 2399.0137184280165 28.071100299839433 0.31497300873419914
1.092025394525094 13.05268480539705 2116.3226489088524 29.35146733366313 0.3196446305719433
1.1185214188274215 13.05852508518943 1869.1903911572235 30.689311935263504 0.3244143844473713
1.1451508014669385 13.063980780141954 1644.6932005524934 32.08808009769259 0.32929064238130784
1.1719120489313668 13.068997189846531 1462.6179704157644 33.549660874021924 0.3342707666489911
1.1987661682845543 13.073453688044358 1295.8519516576164 35.07861999435322 0.3393684849601596
1.2257096760670316 13.077325593144979 1149.4537665120881 36.67700996892728 0.34458074040691905
1.252703943004147 13.080490396584862 1020.5145701757975 38.349831489946546 0.34992166031378463
1.279743092142822 13.0829344468946 907.0094935803205 40.09935815322351 0.3553880341851297
1.3067876494986344 13.084517827984117 807.0343371663845 41.93105830480853 0.36099440628726626
1.3338218808072395 13.085236980058584 718.8046160052298 43.84836175421661 0.3667424135196632
1.3608278765331645 13.085035068661803 640.8352641007862 45.85603731947136 0.37264026181628906
1.387758467876854 13.08378198877909 572.0006479926718 47.95937567923707 0.37869767876780586
1.4146137312525933 13.081492840019033 510.9911784706662 50.16308189290234 0.38492006004488155
1.441337099102707 13.0780425398744 457.0425502897858 52.47246979049215 0.3913148719326907
1.4679288270682054 13.073451388989898 409.1576131543672 54.8939052143278 0.39789355270018284
1.494337837269021 13.067589859329226 366.6612718776217 57.43357476490003 0.4046651578910221
1.5205487571646985 13.060450199719282 328.957561063918 60.09810285926947 0.41163945268628166
1.5465310512393935 13.05197007671351 295.3926028197628 62.894591141106126 0.4188269703266052
1.5722474339062218 13.04209553887876 265.55838726702063 65.83066166353919 0.42623907530301125
1.5976705514594112 13.030774282582838 239.004804910483 68.9145042277585 0.43388803187449937
1.622758425981707 13.017961700040631 215.3150684636949 72.1549283079124 0.4417870785389721
1.647509315027686 13.003628261737994 194.16935677411888 75.56142004682006 0.4499505091597034
1.6718581499496779 12.98770095315538 175.29424722705969 79.14397446872977 0.45839279936016497
1.6957960018172953 12.97016114548384 158.42334205677565 82.91265388749771 0.46712669135053936
1.719261579060081 12.950922820282416 143.33739390743247 86.88024905749604 0.4761739804934757
1.742263630356038 12.930027161721572 129.82470004256308 91.05840868748493 0.48554930747028924
1.764743870860677 12.907388297357802 117.72301811663797 95.46106110073295 0.49527396830366727
1.786671664863823 12.882962134131787 106.86083911507991 100.10202636715245 0.5053661027260491
1.8080104990312316 12.85671541046687 97.12183140595445 104.99774179469681 0.5158510856629825
1.828723273145375 12.828591364962962 88.36124946613855 110.16473836056237 0.5267514399152443
1.8488041814820348 12.79863704612334 80.49354065033712 115.62054831907271 0.5380902015400583
1.868192992270532 12.7667383462195 73.4081016859369 121.38554231968268 0.5498973284583659
1.88686525504422 12.732901612738702 67.033694511312 127.48104385194947 0.5622022806543232
1.9047899337347431 12.697101681257038 61.28115292781089 133.92957434266955 0.5750346719879136
1.9219351450258106 12.65929567819879 56.09604015284923 140.75660389853962 0.5884300784281453
1.9382517339812906 12.619419401045816 51.4109554192184 147.9898943160085 0.6024271064322847
1.9537520069023264 12.57759110758005 47.17950265220858 155.65804767805713 0.6170619134492829
1.9683716048266944 12.533677035879624 43.35501382250225 163.7945714543221 0.6323816608773773
1.9820920263791444 12.48769205856313 39.895650422133386 172.43309396633404 0.648427472462013
1.9948861598227652 12.439629621114653 36.75920568935778 181.61311955656873 0.6652532944475043
2.006718737647868 12.389469004332964 33.91684950712649 191.37650240206685 0.6829131035957634
2.0175791817729998 12.337225697903857 31.339812722246947 201.76924302394733 0.7014660893507415
2.0274198895261866 12.2828562271866 29.002792871588486 212.84138769879112 0.7209753184035423
2.0362353570498892 12.226406696860508 26.87995946141085 224.64811532259242 0.7415101938725347
2.043985955717981 12.167829193037871 24.95085325827465 237.25081537134014 0.7631486808933379
2.050651985387121 12.107141837401256 23.196595375523373 250.71611093139995 0.7859726852890864
2.0562256128738494 12.044389809415966 21.601162000667337 265.11708845183665 0.8100704393331984
2.060684764466271 11.97957985554044 20.148932332913116 280.53565049741394 0.8355422952817407
2.0639973898115582 11.912703423312601 18.828159641537827 297.0611064800137 0.8624939991975215
2.0661653230887107 11.843818393686618 17.623920062667583 314.79390369920793 0.891046431403946
2.067165721254325 11.772943945944963 16.528440696319826 333.84350435648435 0.9213258310383317
