M[M_sun], R[km], Lambda[1], P_c[MeV/fm^3], rho_c[fm^-3]
0.24162668629717493 15.618656898711224 2160425.4255784233 3.5677272577965504 0.1711233750220791
0.2536380337261424 15.277461417261671 1723340.7172646846 3.7847242299910646 0.17388698423714707
0.26602910993082507 14.981488806677467 1383187.9257138744 4.0112009902359835 0.17666423826747527
0.2787981402940108 14.72382470791035 1116691.3825552107 4.247416595152856 0.17945389990247296
0.29194619216409257 14.498775942349077 906232.8705286353 4.493994780586252 0.1822625090381505
0.3054767570287266 14.30156856578575 738995.3157224556 4.7510841311773975 0.18508563448558557
0.31938373529840697 14.128591808995589 605367.8735498672 5.019378338026565 0.1879301458654401
0.33367521129916533 13.976412404088828 497989.3498281141 5.29908577332138 0.19079235980325435
0.3483484502396097 13.84247456578162 411276.3792615144 5.590952985793186 0.1936789366061344
0.36340346638283316 13.724422032194916 340912.0006699617 5.895124534498494 0.19658452016091899
0.3788486605698709 13.620418491750799 283525.8379137665 6.212473681174889 0.19951698518099714
0.39467198195587094 13.528870268610582 236619.57661280353 6.54327489621145 0.20247281440192028
0.41088712786651527 13.448272079093753 198048.52164006516 6.888196264404164 0.2054551404249122
0.42748700554769237 13.377422284790239 166256.08362160102 7.247957509263089 0.20846730969809915
0.44447242448659463 13.315275643684714 139948.86744387276 7.622841975908434 0.21150526082678175
0.46184313426604995 13.260907550950337 118106.74822826001 8.01374966394903 0.21457440126560492
0.47959905727632113 13.213477413997525 99925.57659971004 8.421407050110393 0.21767673754456152
0.49774423680999486 13.172262831518795 83868.90450487175 8.846287956509473 0.2208102178949051
0.5162704116181382 13.136676706963462 72035.50250973392 9.289199401717585 0.22397731801423107
0.5351770374165841 13.106077800822362 61360.06676511326 9.751055737519447 0.227181403926194
0.5544722665180358 13.08004513028516 52376.325865799954 10.232665076133582 0.23042382419976778
0.5741407229818368 13.058032418730852 44794.17958861847 10.734545142063427 0.23370187443146745
0.5941911314599978 13.039708326244172 38384.287288349544 11.25784690472058 0.23702057196459048
0.6146120075306927 13.024637585335787 32951.461310456434 11.80355026706068 0.24038209577632558
0.6354003514282265 13.01254127431325 28338.65839568777 12.372632332206937 0.24378807540362474
0.6565554393787959 13.003099051803755 24411.428241265654 12.965845611209987 0.24723718625953464
0.6780779802487269 12.99604644209992 21064.141517063486 13.584388764561298 0.2507327893637559
0.6999526443415939 12.991104820133017 18203.719702466326 14.229517728326993 0.2542782096162869
0.7221723984336293 12.988030929482004 15757.069615255652 14.902419707817462 0.2578754268934327
0.744744527113293 12.98666642866776 13659.026509001695 15.604207166411005 0.26152517966093686
0.7676522572926686 12.986743577915501 11857.653661063378 16.335978769529177 0.26522770185345285
0.790882861406698 12.988110556170444 10308.691896523032 17.09942693981142 0.26898848735328623
0.8144412412108615 12.99062844337173 8974.487871282374 17.89600345088861 0.2728099622942168
0.8383089981920395 12.994074401096627 7822.580302793942 18.727177730442385 0.2766941549054093
0.8624757386860282 12.998339642153685 6829.136736648236 19.59408275323399 0.2806396709644235
0.8869355089429879 13.003269925215069 5967.82531710905 20.498900719199263 0.284653777369741
0.9116802945996633 13.008752170827245 5222.196092431736 21.443421396308814 0.28873947880935563
0.936684993688872 13.014644295214428 4575.296380346218 22.429261230659804 0.2928977776340437
0.9619483651386113 13.020826867526623 4013.193957818033 23.45817571584069 0.2971303270008438
0.9874584294961375 13.02722563027568 3524.3969514619853 24.532710032056766 0.30144426391289053
1.0131874772032188 13.033681273708444 3098.8735068459573 25.654962511281525 0.3058423981608067
1.039133955173633 13.040132426050643 2727.7521477056866 26.826574883690682 0.3103236441208159
1.0652741375420465 13.04646686530825 2403.769639175822 28.050788957001693 0.31489786824499355
1.0915868944985316 13.05259056933303 2120.71487322204 29.32984221881699 0.3195667934363854
1.1180709314581887 13.05843041978439 1872.8792537093698 30.66611499096911 0.3243325557232483
1.1446871157356635 13.063890818012196 1656.1274304831243 32.06328270587066 0.3292051245994283
1.1714364034807876 13.06891343224694 1465.7069662310337 33.52318213369297 0.3341815305640101
1.1982832143103863 13.073396589386805 1298.6353658261664 35.050230704396284 0.33927460927462594
1.225210652951935 13.077256763564563 1151.962559138553 36.646792479600734 0.34448326346391844
1.2521937751555396 13.080430056813908 1022.7900646478398 38.31743831739607 0.3498190458444342
1.2792231313852778 13.082886621354456 909.0731424547532 40.06487370380412 0.3552813508191363
1.30625545594929 13.084501479260576 808.8589846647332 41.89434011007364 0.36088340162180055
1.3332798199706992 13.08522731122498 720.4834856441362 43.808998373096465 0.3666254051937325
1.3602778191404687 13.085049719359901 642.3890162210945 45.8141111926198 0.37251834633463854
1.3871974301309726 13.083813702205717 573.2944154780957 47.91470782786177 0.3785705396436956
1.4140390595332273 13.081535311252814 512.2337744856942 50.115182809511154 0.3847858415346313
1.440767450227709 13.078146209386139 458.12958792581895 52.42141547486584 0.3911746959103799
1.467343223436668 13.07355409679789 410.17894043023097 54.8394697357236 0.39774702218178765
1.4937498719812834 13.067732712942156 367.5675617744017 57.37551389838391 0.40451184521469474
1.5199545922571898 13.060631786771399 329.75211564331386 60.03615244843515 0.41147889699420354
1.545934030197307 13.052181071618447 296.13354455230683 62.82846529748867 0.41865867479736113
1.5716458048530573 13.042341286468918 266.22349689037935 65.76005078454452 0.42606250410773083
1.5970611360735976 13.0310519328672 239.60314683391368 68.83907281271902 0.4337026068268642
1.6221553561979847 13.018281803344063 215.85144871439192 72.07431254937265 0.44159217540562384
1.646903725692844 13.003998700009394 194.66116024319336 75.47522517131935 0.4497454535935606
1.6712589043190473 12.98812214335197 175.74677835322746 79.0520021975845 0.45817782458822987
1.6951818972075285 12.970616355495734 158.84017675932952 82.81444833102506 0.4669010152677862
1.7186770365719901 12.95147651425728 143.70398717899178 86.77508568279104 0.47593583719113364
1.7416764094647663 12.930619531000737 130.1721458485026 90.9462437079066 0.4852997816771723
1.7641576571483046 12.90802388276757 118.03163802326023 95.34081477090713 0.4950101210063287
1.7860877916460887 12.883648115178488 107.1467785166986 99.97359400920875 0.5050889512694867
1.8074354281445673 12.857458013199155 97.37361415696824 104.86045786917514 0.515559562959379
1.8281656849288859 12.829419078388542 88.59697516838385 110.01731341092027 0.5264422938083214
1.8482497971106273 12.799504241670254 80.70486697771965 115.4627175094629 0.5377641775506297
1.8676497609291043 12.767674489435587 73.6038301373332 121.2164550975936 0.5495531288377467
1.886335580047684 12.733911592263434 67.2063219669808 127.29975158858436 0.5618384285283058
1.9042752600909538 12.698174525186667 61.43945641421793 133.73570484342642 0.5746519134004624
1.921427271695496 12.660415496307603 56.2444011283141 140.54837896091638 0.5880243770657134
1.937772287888989 12.620645435474271 51.54790713962831 147.76606795802113 0.6019965652966403
1.9532927724483935 12.578900802940725 47.303988271319874 155.41798794502552 0.6166069762248698
1.9679404731629904 12.535077437072832 43.469531610367255 163.53611935490574 0.6318977996814268
1.9816797995916329 12.489165045259602 39.99507217860352 172.15528900658444 0.6479145359784013
1.9945080289526465 12.441218471551409 36.85121977901526 181.3142500020138 0.6647088994098215
2.0063577264325043 12.39110840608077 34.00404638169375 191.05462900577695 0.6823344679309623
2.0172494971791144 12.33897051970377 31.421603242476255 201.42222667042932 0.7008501695535877
2.0271105365647837 12.284662764133571 29.076368916080888 212.46748085823523 0.7203207942910185
2.0359476283616695 12.228275776550472 26.947343250303657 224.2443816687048 0.7408123306402548
2.0437428935574946 12.169830073493364 25.01259606956504 236.8149840177372 0.7624054769605928
2.050451049491592 12.10925439595876 23.253324551633565 250.24418303868546 0.7851771215360321
2.056052319514327 12.046576582203096 21.653133614308715 264.60645006954934 0.8092207073976077
2.0605489499444083 11.981861060250287 20.19765384888834 279.9825941856974 0.8346338166598881
2.063905858794215 11.915096552207492 18.871828520943208 296.4619955731356 0.8615233321790188
2.066108199430964 11.846294545907615 17.665125923407476 314.14310926344507 0.8900046375137036
2.0671501094196683 11.77552265765411 16.566906663786657 333.1367377685232 0.9202095496687637
