M[M_sun], R[km], Lambda[1], P_c[MeV/fm^3], rho_c[fm^-3]
0.24162668629717493 15.618656898711224 2160425.4255784233 3.5677272577965504 0.1711233750220791
0.25364400070762305 15.277275008751998 1723276.9550509579 3.7848196617976533 0.17388817374857837
0.2660398472433128 14.98125681652813 1382985.4105374492 4.011401603577577 0.17666666256131452
0.27881487995407045 14.723513929053082 1116395.8993894185 4.247729173630341 0.17945752534176607
0.2919693983158784 14.498413740346992 905854.9472275665 4.494427522916496 0.18226732772443202
0.3055044447439669 14.301245936622928 738669.551569142 4.751651726809421 0.18509176560168397
0.3194207673555356 14.128152554475545 605107.5777315074 5.020084964233835 0.18793747738507321
0.3337172304266097 13.97599772954142 497686.99687082996 5.299950028705199 0.19080106142091038
0.3483999418203744 13.84203554963659 411010.8599902447 5.5919770242976705 0.19368884446036858
0.3634614498732314 13.724011686513744 335710.33905210654 5.896331356674284 0.19659585489018477
0.3789158593075711 13.620007430764915 283304.14492935326 6.21387788555897 0.19952978983420783
0.394748315816632 13.52844753766916 236425.41412802433 6.5448750210123245 0.20248684533476122
0.41097246778266566 13.447881599820462 197873.77674541468 6.8900231920871695 0.20547069930770112
0.4275806109767414 13.377060812780432 166088.06237298367 7.2500283765457105 0.20848444145241046
0.4445755276327174 13.31493734901616 139806.72893285047 7.625151055568826 0.21152364258561182
0.4619566991671747 13.26058330941718 117979.3623746548 8.016337221416194 0.21459441811456378
0.4797215664885918 13.213152484682785 99814.65867764948 8.424293254379043 0.2176984377658222
0.49787761958318644 13.171994675066335 84642.5448320889 8.849462162777812 0.22083320050452185
0.5164155665889644 13.136409658951829 71938.25910604425 9.292712964734907 0.22400205371691814
0.5353340724146872 13.105851798379842 61278.19464197026 9.754932470051312 0.22720794608918124
0.5546414224436372 13.079823824224205 52303.153085101694 10.23693023745986 0.230452228510356
0.5743233961913533 13.0578419906033 44732.07016634135 10.73918019861409 0.23373163293028354
0.5943796155345135 13.03952571661058 38329.59484274203 11.262921541107136 0.2370522783845658
0.614816354517456 13.024514447806377 32903.18294711903 11.809094448775948 0.24041581365141734
0.6356201105798129 13.012453936717604 28293.88054120722 12.378677893659697 0.24382387162158514
0.6567904243246558 13.003014996977 24371.53901826547 12.972364791086836 0.24727444721839517
0.6783221190794092 12.995982212773677 21028.971705264514 13.59147410824941 0.2507722386591342
0.7002092131742299 12.991065346318297 18036.617565667144 14.237207209391487 0.254319925426347
0.7224434305742724 12.98799089324996 15729.829909517932 14.91075373899223 0.25791949205779047
0.7450301944373519 12.986657470919766 13634.554757137623 15.613147465079617 0.26157087653739636
0.7679513745759924 12.986759307125686 11837.070797371489 16.34564636590077 0.26527589239664834
0.7911950721776316 12.988137367197192 10289.27574395135 17.109870331465505 0.2690392700304709
0.8147685637683707 12.990671696837454 8956.784516084466 17.907274349815456 0.27286344190371675
0.8386513923245231 12.99413423933374 7807.832372729798 18.739226154446417 0.27674951117968577
0.862831670031078 12.998404555588545 6814.829164413494 19.607065304987266 0.2806979154864735
0.8873113645583691 13.003350919964447 5955.613950889324 20.512879854148732 0.2847150361065887
0.9120672042214415 13.008841329676548 5211.436729879307 21.458463845469907 0.2888038862205659
0.9370875794409386 13.014730995306017 4565.467306275331 22.44530434710817 0.2929644116062049
0.9623656640850787 13.02093800314408 4004.6684504795417 23.4754207513186 0.2972003642139189
0.9878897844041439 13.027327479354334 3516.6477115383577 24.551238117995254 0.30151786720262874
1.0136315368138915 13.033786268744297 3092.0760039628694 25.674701947232254 0.30591857644574133
1.0395956572226006 13.04023792378901 2721.6197993508385 26.847766889196702 0.3104037037015828
1.06574632996629 13.046570035577545 2398.4741637128764 28.07353268160792 0.31498200717204144
1.0920774091021246 13.052700121710492 2115.884961277021 29.354057079358782 0.31965395206633573
1.1185752928402182 13.058533385973426 1859.5753317879987 30.692089962552917 0.3244241841186464
1.1452062045870095 13.06399626417508 1652.163477309124 32.091037339955015 0.32930080317444493
1.1719687924717788 13.069000961177762 1462.1202093087618 33.552832017827235 0.3342814537305736
1.1988241220398879 13.073465447149259 1295.5944952043465 35.08202000606119 0.3393797278771326
1.2257696235044926 13.07732896087452 1149.1208988104006 36.68062898231617 0.3445924147839004
1.2527641889715488 13.080491327376528 1020.2019928750367 38.35370743534934 0.3499339284580337
1.2798067106770488 13.082937377396231 906.770485630077 40.10348833017614 0.3554008115728182
1.3068505823117167 13.0845214301798 806.8103492833105 41.935456078617676 0.3610077014237511
1.333887348581157 13.085235084134043 718.64596455928 43.853076428652905 0.3667564279703379
1.3608945006996456 13.085036643318036 640.6488876330135 45.86105901614624 0.3726548642280737
1.3878253249364312 13.083777362904797 571.8338415043469 47.964725846164484 0.3787129070699527
1.4146820278673466 13.081485817154963 510.8685589894347 50.168819193103644 0.38493613659230913
1.4414044583304915 13.078034377043467 456.8987204235532 52.47858511659231 0.39133166232694705
1.4679993632372528 13.073436539842483 409.0359992239843 54.900425642812564 0.3979111045209903
1.4944081939462144 13.067573308124723 366.5604497728259 57.440529565411936 0.4046835223961317
1.5206203284252755 13.060427535442269 328.865597241011 60.10552369096043 0.4116586851135068
1.5466030421928663 13.051943588391797 295.3089440570102 62.90251226858105 0.41884713022578646
1.5723188996425175 13.042064920298326 265.473005457489 65.83912019457274 0.4262602269011244
1.5977431137103641 13.030740976858668 238.9351403399714 68.92354037523243 0.4339102444774966
1.6228309231889992 13.017920198926648 215.25421940217586 72.16458567872112 0.4418104269743726
1.6475820606228209 13.00358367752935 194.11017652156823 75.57174596083249 0.44997507426443223
1.671930920999885 12.987650903057613 175.24669472117048 79.15496639700525 0.45841844340307586
1.6958683390340261 12.97010457442961 158.37346919136172 82.92441906616743 0.46715372769685665
1.71934852549519 12.950894936594903 143.28717651081334 86.89284804632902 0.47620251100436195
1.7423343368996123 12.929956571639392 129.7849855318783 91.07184673087521 0.48557920217046663
1.7648149296218587 12.907311528951956 117.68547819879207 95.47546764270197 0.4953055794735718
1.7867411843071739 12.882878091164176 106.82661226179876 100.11741395159288 0.5053993084657001
1.8080797564045419 12.856627938353077 97.08984667517254 105.0141902085514 0.51588601390428
1.828790746007334 12.828495716701978 88.33680295731146 110.1823346317631 0.5267882290375804
1.848871263648101 12.798532997893659 80.4725654238463 115.63945933691379 0.5381292651772274
1.8682582822992893 12.766627653689294 73.3873436103822 121.40580248968213 0.5499385707399608
1.8869271331252682 12.732782034282236 67.01177435955545 127.50276691402836 0.5622458786665842
1.904851051771698 12.696970361719561 61.260435558319315 133.9528049111191 0.5750805363430604
1.9219946615387056 12.659156523691566 56.07877429975802 140.7815552003493 0.5884786930525712
1.9383098847908091 12.619285055447753 51.396012967197365 148.01671575926073 0.6024786988128303
1.953806884594244 12.577432653962992 47.16484019467292 155.68681502881026 0.6171164304586124
1.9684250177798008 12.533509847241783 43.34184633607326 163.8254590276689 0.6324393591210828
1.9821411633757107 12.487514490642619 39.88157278507141 172.46638613445575 0.6484889428103594
1.9949297916076294 12.43944486681942 36.745806791443066 181.64893699777048 0.6653185364132902
2.0067692472025644 12.389287966356209 33.904924206317425 191.4150776896664 0.6829824508529221
2.0176181887261024 12.337019528874123 31.329703776160002 201.81083271214374 0.7015399069448056
2.0274566992715872 12.282639182208925 28.993573145653357 212.8861702369145 0.721053662774735
2.0362686406592587 12.226179499905893 26.8711863919025 224.6965051719073 0.7415938368790743
2.043229156936612 12.169637022120222 25.05201605361471 237.64612709261024 1.1108103102548876
2.043356139605879 12.117733092033006 23.982431190239534 253.6809089971845 1.7749387458001562
