M[M_sun], R[km], Lambda[1], P_c[MeV/fm^3], rho_c[fm^-3]
0.24162668629717493 15.618656898711224 2160425.4255784233 3.5677272577965504 0.1711233750220791
0.2536439995337435 15.277273047265009 1723115.1445518173 3.784820298143372 0.17388818168032077
0.2660399630870942 14.981260503576557 1383055.2740396033 4.011402941304934 0.17666667872696015
0.27881495502870723 14.723528366792968 1116376.586533656 4.247731257998461 0.17945754951729517
0.29196921584389174 14.498417416905541 905840.7075968189 4.494430408622561 0.18226735985743878
0.3055045974923438 14.301233939059278 738658.6449256937 4.751655511838522 0.1850918064872221
0.3194217561793497 14.12813423512417 605136.0557185592 5.020089676469227 0.18793752627633414
0.33371923778331036 13.975940315206369 497680.8450766622 5.299955792209291 0.1908011194498332
0.34840028411750695 13.842032649777748 411009.11464492587 5.591983853462333 0.1936889105344153
0.363462353391615 13.72403510537968 335727.444627984 5.8963394049285744 0.19659593048109228
0.3789160751465379 13.620009278792947 283305.99021958315 6.213887250300399 0.19952987522937377
0.39474904599642335 13.528448356256598 236416.29442916455 6.544885692519686 0.20248693890946426
0.4109731519820863 13.447880125763103 197862.67897056174 6.890035376376076 0.2054708030742184
0.42758132212788924 13.377060914961211 166089.66932540888 7.250042187954384 0.20848455571065486
0.4445761603226747 13.314949827240069 139809.5967802184 7.625166455925623 0.21152376518235433
0.4619572465989252 13.260575049054694 117982.78344366375 8.0163544793435 0.21459455161858393
0.4797223335333366 13.213152341234814 99811.51206155395 8.424312504454193 0.2176985824994762
0.49787957860430143 13.171983285339818 83766.92854175773 8.849483334024178 0.22083335379339133
0.516416581689165 13.136416027926266 71939.24198927154 9.29273639977345 0.2240022187010505
0.5353355936405397 13.105846649824368 61276.74429159028 9.754958327780743 0.22720812312488423
0.5546418637127617 13.079827562197844 52300.299638851 10.236958686434365 0.2304524179694282
0.5743246629080394 13.057854773542225 44731.73913080247 10.739211115223654 0.2337318314244937
0.5943811964472082 13.039522590672437 38329.77759706614 11.262955390298567 0.23705248987492641
0.6148178540400472 13.024502764769453 32901.577199694395 11.809131430517871 0.2404160385621109
0.6356215174135337 13.012452216625508 28292.941122465516 12.378718220396436 0.24382411039918575
0.6567919613117273 13.003014634557656 24371.50901641744 12.972408277631464 0.24727469576965178
0.6783240553684842 12.99598656631524 21028.856858354648 13.591521372128325 0.2507725018117492
0.7002109222521178 12.9910545450884 18173.068196082993 14.237258504030777 0.2543202037022686
0.7224453313920206 12.987998104935157 15615.907586644265 14.910809334101334 0.257919786010089
0.7450333527623001 12.986651721360131 13634.381746786197 15.613207105251496 0.26157118137839414
0.7679535347399142 12.986745993663714 11836.51496706459 16.34571085879805 0.2652762138775659
0.791197141661259 12.98814273959538 10289.110215643197 17.109940000771076 0.2690396088087119
0.8147703870072087 12.990673219298207 8956.405943628635 17.90734954067221 0.27286379867895566
0.8386539202508619 12.99412133382078 7807.655305619412 18.73930653335109 0.2767498804791636
0.8628347938929087 12.998404141048763 6814.953950286745 19.607151917073406 0.2806983040602806
0.8873137730840598 13.003358647474684 5955.497577459486 20.512973116286172 0.2847154447957355
0.9120697877481161 13.008849040321856 5211.291394717041 21.4585642030751 0.28880431592276906
0.937090188201118 13.014736544417339 4565.486299904839 22.445411382125144 0.2929648561687289
0.9623685382039527 13.02093517782463 4004.547571557376 23.475535806975575 0.29720083148912824
0.9878926963527762 13.027328348787716 3516.6957481519953 24.551361735858006 0.30151835827771334
1.0136352621286062 13.033793524716383 3091.9515158909435 25.67483364878932 0.30591908470741436
1.0395986454655008 13.040239050331406 2721.567033575925 26.847908284542772 0.3104042378677393
1.065749465163578 13.046570072351544 2398.419484515017 28.073684432620073 0.31498256856502177
1.0920804419806482 13.052698031006118 2115.853174595838 29.3542186482008 0.3196545336149632
1.1185788709350608 13.058541115540965 1868.6995741881085 30.6922632782102 0.324424795500858
1.1452100548216997 13.063996596210272 1652.1716374089665 32.09122183675758 0.3293014370872863
1.1719722832062172 13.069003634962726 1462.0785858329912 33.55302985991754 0.3342821204788163
1.1988266895688353 13.073468622215199 1295.5148974635513 35.082232127220934 0.33938042930430173
1.2257733366867942 13.077333549438261 1149.083731961735 36.68085476698225 0.34459314313028244
1.252768444896277 13.080497598572071 1020.2149983903915 38.35394779981925 0.34993468534270655
1.2798105438346614 13.08293847942228 906.7376075462231 40.10374600646216 0.35540160873716303
1.3068542933002312 13.084523777083167 806.7600092343037 41.93573045036358 0.36100853089110607
1.3338909956209253 13.085232733468356 718.621164633434 43.85337057203851 0.3667573023165997
1.360898496551874 13.085033691954338 640.6485213112204 45.86137231483978 0.37265577525811605
1.3878295080879683 13.083773939543343 571.8358789330658 47.965059638363385 0.37871385715030126
1.414686140027448 13.081484872954828 510.84486972433484 50.16917713896492 0.38493713959605885
1.4414095264095252 13.078032700082789 456.90892744827875 52.478966647883965 0.3913327098689265
1.4680038524142829 13.07343610817396 409.0417252279974 54.900832448920546 0.3979121995698705
1.494412255200783 13.067573543257616 366.54928930983294 57.44096347256543 0.4046846681500787
1.5206242856566972 13.06042685545493 328.85092334477037 60.105986674483454 0.41165988501902734
1.5466074484202488 13.051941848898599 295.3050325300145 62.90300646636688 0.4188483879984419
1.5723236998027204 13.042062694909248 265.4748898211292 65.83964792191709 0.42626154654831333
1.5977474529669398 13.030737790194683 238.93199197951628 68.9241041411782 0.4339116303235303
1.6228343982341435 13.0179191488674 215.24916941081028 72.1651882040856 0.4418118836880919
1.647586638939719 13.003579632376827 194.10583533060665 75.57239019811033 0.44997660688964886
1.6719354450986723 12.987646561912841 175.24137859449132 79.15565218837806 0.45842004334650266
1.695872790611174 12.970102635377998 158.37243467429838 82.92515310261409 0.4671554145104732
1.7193529960661134 12.95089104292487 143.28422678889652 86.89363410647559 0.476204291043845
1.7423385897704198 12.929952212146723 129.78140566153658 91.07268514191321 0.4855810673264182
1.764819117719732 12.90730665208141 117.68286362011565 95.47636648135008 0.49530755172626667
1.7867453575328303 12.882872367250078 106.82510669176119 100.11837400049598 0.5054013802095825
1.8080843507428614 12.856620456510434 97.08763622107631 105.01521644604878 0.5158881931217568
1.8287949413668672 12.828489203576458 88.33654974633221 110.18343248801811 0.5267905243629714
1.8488749667825402 12.798526162567642 80.46916889979302 115.64063922521 0.5381317024192992
1.8682616019197933 12.766620540465476 73.3829815897606 121.40706655674845 0.5499411439172789
1.8869311626143113 12.732774386426726 67.0127106597679 127.50412225682354 0.5622485988287597
1.9048548695380145 12.696962105764909 61.25863028328504 133.9542543133308 0.5750833979130618
1.9219983639413611 12.659148364289015 56.077725732936386 140.7831119667221 0.5884817262254737
1.9383131208558524 12.61927604007929 51.394094304605886 148.01838921242825 0.6024819177832575
1.9538108401342593 12.57742257994416 47.16504322321807 155.68860989626538 0.6171198319121086
1.968428604385999 12.533499325194448 43.34095673328576 163.8273861862042 0.6324429590692425
1.9821442262589928 12.487503545293652 39.88109747550197 172.46846332836424 0.6484927781217957
1.9949355683245515 12.439431305364318 36.74678474504496 181.65117175702622 0.6653226070582612
2.0067716211117537 12.389276265723012 33.904776020221554 191.4174845264183 0.6829867776522167
2.017621106564597 12.337006457919664 31.32939373045769 201.81342763498057 0.701544512676873
2.027460371082985 12.282624839085074 28.99311350046878 212.888964380664 0.7210585509620565
2.036271182542852 12.226165319322535 26.871939926438465 224.69952439868524 0.7415990556844376
2.044016979792057 12.167575511733734 24.942723589366828 237.30630727516206 0.7632432996869274
2.0506785918975514 12.106875157770007 23.188691583820457 250.77614316372373 0.7860737857847425
2.0562541081182144 12.044133687872261 21.59458796827222 265.1821159587079 0.8101786488826507
2.060702151906986 11.979289818633472 20.14313580573361 280.60597705595364 0.835657647206109
2.064009303845543 11.912397651198317 18.82170523050787 297.1374053162085 0.8626176169834677
2.066172899676346 11.843504770790263 17.61962929528462 314.87678743524293 0.8911791119633617
2.0671680049143286 11.772619406372778 16.52459854223594 333.93351960462894 0.9214680029324087
