M[M_sun], R[km], Lambda[1], P_c[MeV/fm^3], rho_c[fm^-3]
0.24162668629717493 15.618656898711224 2160425.4255784233 3.5677272577965504 0.1711233750220791
0.2536443480008378 15.277267222074846 1723206.4491411366 3.7848257302929906 0.17388824938944522
0.2660406040062763 14.981258946697372 1383022.780425299 4.011414360794825 0.17666681672475618
0.2788157934865007 14.723494205880806 1116352.2617044647 4.247749051195782 0.17945775589157031
0.29197088580464375 14.498401716314564 905872.163790658 4.4944550424632865 0.18226763416097247
0.30550630333343687 14.301208379224542 738608.0645548655 4.751687822788788 0.18509215550715133
0.31942315382881614 14.128112921040625 605073.5030092543 5.02012990256936 0.1879379436376489
0.33372130069203254 13.975963878737561 497669.18103464507 5.300004992539813 0.19080161481552346
0.3484032083551849 13.842009023017424 410995.33199919335 5.592042150894664 0.19368947457811017
0.3634666739741286 13.723948708861313 340635.7797250074 5.896408109238529 0.19659657576651077
0.37891967886728734 13.619991989243935 283300.5365804838 6.213967192948184 0.19953060421006436
0.39475167804106415 13.528453247302961 236404.317767499 6.54497679053461 0.20248773771598777
0.41097824628259716 13.447862976232976 197861.95026108113 6.890139388453328 0.20547168888471523
0.4275862248645133 13.377043909130611 166076.10281180468 7.250160090177013 0.20848553108552692
0.44458244556656773 13.31492666540015 139795.9377604388 7.625297922452057 0.21152481174043744
0.4619639571910131 13.260582307785569 117976.34151213814 8.01650180333202 0.21459569128874148
0.4797292115796189 13.21313608376997 99806.72562026168 8.424476834769138 0.21769981803371505
0.4978865362056674 13.171980578877257 84638.99720827193 8.849664064777336 0.2208346623612645
0.5164255855332104 13.13639587171279 71935.79783941756 9.292936455839447 0.22400362710822716
0.5353443201502932 13.10583717729757 61273.396864065 9.755179065655678 0.2272096344132194
0.554650119345808 13.079826491649218 52301.88451251713 10.237201545043632 0.23045403531302647
0.5743345151207331 13.057855632246827 44728.06198658873 10.739475039358808 0.23373352589919486
0.5943914559728409 13.03952026527396 38323.21794882335 11.263244349120603 0.2370542952948756
0.6148294204968189 13.024511882140484 32900.184646204136 11.809447131138798 0.240417958548621
0.6356343176893734 13.012434053054541 28290.457665704238 12.379062476434108 0.2438261487647296
0.65680513427204 13.003016340117862 24368.8601999406 12.972779508202262 0.2472768175713642
0.678337544087224 12.995987419637174 21026.692215730214 13.591924848962414 0.2507747482626635
0.7002259922326471 12.99105781746829 18035.12274162526 14.23769639061024 0.25432257925833324
0.7224560067069783 12.988030954800003 15728.039690425725 14.911283932920556 0.25792229539294764
0.7450482629680087 12.986655386981006 13632.634925474045 15.613716235961398 0.2615737837168634
0.7679701437593534 12.986758069124928 11835.424341075357 16.34626141632811 0.2652789582687687
0.7912153875935264 12.98813244649165 10287.972395696246 17.11053474839288 0.26904250086499826
0.8147910131694616 12.99066791266916 8955.667331845863 17.907991424864473 0.272866844373551
0.8386734365034629 12.994126150174978 7806.861513750197 18.739992707053418 0.27675303309229
0.8628527542564195 12.998414037125496 6813.544238882978 19.607891302526475 0.28070162121650255
0.8873340109776755 13.003366108452425 5954.7265828176905 20.513769272311777 0.28471893367488565
0.9120921954314603 13.008850361377506 5210.774464018957 21.459420932202352 0.28880798418879433
0.9371117532410923 13.014744000579546 4564.897202073368 22.44632511545628 0.29296865129678556
0.9623968980524491 13.02095616763119 4004.2359952786715 23.476518011629466 0.2972048205140691
0.9879181669574914 13.02734087694293 3516.2496968148926 24.552417035207803 0.3015225504810559
1.0136599504062842 13.033795548414785 3091.6260619241316 25.675957957813853 0.3059234236324697
1.0396282340065757 13.040246519066185 2721.2201313157316 26.84911534865392 0.3104087979385957
1.065776257761363 13.046581770304229 2397.9794169175157 28.07497990231535 0.314987361070738
1.0921085607450471 13.052703262227759 2105.020478177213 29.355597931983223 0.31965949818969536
1.1186071893959244 13.058542829572291 1868.4596422922752 30.69374284393986 0.32443001476484284
1.145238683170385 13.064002287162069 1652.0231195763579 32.092796855303924 0.32930684869587845
1.1720026299739184 13.069008356528775 1455.1393177354862 33.554718806743544 0.33428781240375766
1.1988587053421085 13.07347173312384 1295.3723912587784 35.08404297414571 0.33938641728416025
1.2258055493907416 13.077332944051493 1148.9443483947869 36.682782258911026 0.34459936092087534
1.2528013220513288 13.080493133176232 1020.0582478901287 38.35599975929107 0.34994114676636906
1.2798452957271653 13.082937038501038 906.6409593134617 40.10594575703039 0.35540841403053197
1.306887821689137 13.084522845070373 806.6821508351373 41.938072730135815 0.36101561195771137
1.3339262652378547 13.085233996148862 718.5291036872343 43.85588164285503 0.3667647665176966
1.360933958372913 13.085035525567434 640.5474078310441 45.86404691499941 0.37266355263206336
1.3878647417714287 13.083773172948364 571.7286376366801 47.96790919229311 0.3787219679006413
1.4147226567426445 13.081484174947631 510.7530378937791 50.17223289416085 0.38494570215886903
1.4414453249390367 13.07802773452084 456.806622172662 52.48222375325203 0.3913416526599353
1.468041067031545 13.07343018518678 408.9784762021933 54.904305327115445 0.39792154793338763
1.4944497265099337 13.067564086038299 366.4936587780033 57.44466771452301 0.4046944493897046
1.5206619224561657 13.060415689539836 328.79659050261887 60.109939144022874 0.41167012855855795
1.5466454843281956 13.051931216400964 295.26145027340226 62.90722541523049 0.41885912555872107
1.5723616627225678 13.042047266215944 265.43145577621505 65.84415311641078 0.42627281234174413
1.5977860296963111 13.030718658656102 238.89032079006685 68.92891700171421 0.4339234612681531
1.6228729246242326 13.017896220309625 215.2071036972264 72.17033195909453 0.44182431964337626
1.6476250469414677 13.003556194370232 194.07747725480095 75.57789005396661 0.4499896909163937
1.6719740753633143 12.987623231237949 175.20480097220604 79.16150679761438 0.4584337020828699
1.6959109841971716 12.970068040436823 158.34813345218848 82.9314195884322 0.4671698148766323
1.7193920419806594 12.95085898089871 143.2636745876924 86.90034472836584 0.4762194873007376
1.742372863672758 12.929914182968716 129.76443629498365 91.07984269307316 0.4855969902431492
1.7648563625009295 12.907269177282476 117.66696937263839 95.4840399159231 0.49532438895511455
1.7867824573138198 12.882830932022344 106.81460660796053 100.12657000004913 0.5054190668210448
1.8081212486172105 12.856572337966414 97.0764592459418 105.02397751261788 0.5159067972649802
1.8288310078795997 12.828438052935946 88.32081569830777 110.1928049811352 0.5268101197529232
1.8489107689251643 12.798470605662047 80.45320854541339 115.65071204790851 0.5381525093951304
1.8682865868772964 12.766531253633898 73.37888764364051 121.41785803641676 0.5499631114152475
1.886965676925498 12.732708531210118 67.00149059036059 127.51568107315727 0.5622717786350422
1.9048891657473803 12.69689262374461 61.25070341072479 133.96662805226316 0.5751078275157261
1.9220301410336695 12.659075235274539 56.06862595777743 140.79640230744712 0.5885076208632672
1.9383435780496616 12.619186374283597 51.38643403723139 148.03267574714368 0.6025093986435821
1.9538401609009965 12.577340423832386 47.15718212742098 155.7039329856152 0.6171488707002895
1.9684554408452404 12.533410658712132 43.33654642871428 163.84383869121223 0.6324736924853274
1.982170642745445 12.48740942494205 39.87424125671389 172.4861967427184 0.6485255209324693
1.9949607400632012 12.439332855707734 36.741403482684056 181.67025036802963 0.6653573590127438
2.0067959045825763 12.389171195021763 33.89946413085895 191.43803223304695 0.6830237165108557
2.0176421925934953 12.336896554552311 31.324628614905873 201.83558111257642 0.7015838329143452
2.027477500975231 12.282511150205018 28.988853779843332 212.91281869357834 0.7211002826553419
2.036287917021951 12.226044414511614 26.86673665652413 224.72530034974787 0.7416436100294878
2.044032686241306 12.167448753160492 24.9398766478448 237.3341304431399 0.7632907407442093
2.0506918951906528 12.10674159207481 23.18501031483705 250.8062145724738 0.7861243845117554
2.056264473700192 12.043994258864583 21.590830995817083 265.2147205363875 0.8102329047941956
2.060713357908406 11.979143530167391 20.141380539611728 280.6412387367915 0.8357154845697674
2.064015542038257 11.912247852926805 18.819351222217826 297.1756617049585 0.862679599188065
2.066176327470158 11.843346718361854 17.617287313534934 314.91834574595043 0.8912456386449139
2.067169101565224 11.772451826039052 16.521638895034595 333.978653947297 0.9215392890213471
