M[M_sun], R[km], Lambda[1], P_c[MeV/fm^3], rho_c[fm^-3]
0.24162668629717493 15.618656898711224 2160425.4255784233 3.5677272577965504 0.1711233750220791
0.25364489703427223 15.277244585029827 1723309.610156491 3.7848366043003225 0.17388838492870082
0.26604107273496014 14.981252598884192 1383018.9407201314 4.0114372202528665 0.17666709296781588
0.2788206707977282 14.723368069809288 1116308.3263152498 4.247784669603619 0.17945816901142544
0.29197309452336684 14.498341394522825 905801.7660587599 4.494504354607422 0.18226818326314217
0.30550994838829637 14.301153090666556 738591.7467688824 4.751752503197433 0.18509285417900911
0.31942840283031 14.128050281524988 605042.8133803474 5.020210427832527 0.18793877911833415
0.3337248448152577 13.975983935458899 497656.6318633625 5.300103482843803 0.19080260644945965
0.34840906283929735 13.841959865482472 410961.62878062297 5.592158852286635 0.19369060369618094
0.3634732965116995 13.723951572663184 340631.2814528967 5.896545643784546 0.19659786752007236
0.378927696707124 13.619942664311404 283270.1167240565 6.214127225209777 0.1995320635115987
0.3947603723046954 13.528404944267647 236372.9282391925 6.5451591544979255 0.2024893368015844
0.4109878080104209 13.447827929009186 197839.9406450122 6.890347604910694 0.2054734621434408
0.42759646728243617 13.377005225995408 166063.5372554599 7.2503961132404315 0.20848748364384306
0.44459338728306347 13.314897350636203 139780.6646994866 7.625561099907933 0.21152690680220876
0.4619770143520008 13.260531944693277 117962.77253293415 8.016796725971696 0.21459797275379408
0.4797428710110185 13.213139682113 99794.59101438898 8.424805802633232 0.21770229141216438
0.497901551860414 13.171944341133718 84628.89035616297 8.850025865017072 0.22083728194958555
0.5164418120741597 13.13636899172366 71926.44156893209 9.293336943965262 0.22400644656960042
0.5353624290020571 13.10580604724952 61263.26252915388 9.755620957413717 0.22721265983810185
0.554670107560561 13.07978540774892 52294.06090308829 10.237687721214972 0.23045727305666963
0.5743553514145167 13.057809728259718 44317.0168514277 10.740003387562664 0.2337369180583254
0.5944134097900393 13.03950299246149 38322.215169598065 11.263822815599855 0.23705790956390604
0.6148531722524119 13.024492743389589 32894.77149287604 11.810079133623189 0.24042180217819897
0.6356590369547813 13.012441433880634 28285.149104938024 12.379751645895002 0.243830229388246
0.6568312833965667 13.003013450180882 24365.10398882763 12.97352267983639 0.247281065235673
0.6783646880957982 12.995973367604481 21022.54430033113 13.592732576892134 0.2507792454753729
0.7002554050792513 12.991055780959158 18167.73000034112 14.238573006292814 0.2543273349411944
0.722491667017187 12.988000024036692 15725.12282036266 14.912234046140354 0.2579273189996886
0.7450815103157994 12.98665467144481 13630.410021658514 15.614735481729369 0.2615789934251368
0.7680035815405581 12.986759894426845 11832.779365630902 16.347363598639564 0.2652844523711544
0.7912511804542959 12.988148710499495 10287.576181526581 17.111725399593503 0.2690482905985986
0.8148287843208489 12.99066591877747 8953.980773130286 17.90927644411778 0.2728729416980247
0.8387124249466437 12.994130619768537 7755.860920159755 18.741366394516124 0.2767593444754161
0.8628950821561358 12.998406926346213 6811.976024616123 19.60937152122705 0.28070826202428695
0.8873779780347428 13.003362944365094 5953.354796611419 20.515363147452295 0.2847259182828857
0.9121364672792115 13.008854433853024 5209.646544195634 21.461136076941372 0.28881532794188325
0.9371587220839437 13.014748377172268 4563.710349318881 22.44815438468585 0.29297624903973724
0.9624442122564754 13.020959250389131 4003.282024613538 23.47848436376151 0.2972128064543375
0.9879645951729709 13.027358478453989 3515.234214167874 24.554529726923406 0.3015309432023002
1.0137109704982525 13.03380451546712 3090.7133927010013 25.67820881058579 0.3059321101068064
1.0396763131169071 13.040265916419198 2720.4131546018007 26.851531882593015 0.31041792716867345
1.0658297432607424 13.046595740843498 2397.336908991654 28.077573430667012 0.31499695565986335
1.0921648302384865 13.052718695500738 2114.9369605280276 29.35835926208994 0.3196694372826142
1.1186643986858955 13.058554616490493 1867.6954277772331 30.696704946990966 0.3244404637752951
1.145298475728258 13.064008404718434 1651.468398111354 32.09595006278678 0.3293176828062111
1.1720615371796628 13.069026842239975 1461.441823389111 33.558100109666306 0.33429920774323424
1.1989209752035392 13.073474200755848 1294.9183912897695 35.08766833369891 0.3393984053653655
1.225868325948189 13.077346683006006 1148.6177691644755 36.68664115360534 0.34461180911781514
1.252866527004244 13.08050336653329 1019.7737045819324 38.36010785134221 0.3499540827544095
1.2799110187432128 13.082939514096916 906.3478984365622 40.11034974489959 0.35542203849772197
1.306956164452053 13.084520535896447 806.4961722508972 41.94276207857789 0.36102978856848494
1.3339949196484508 13.085236623307566 718.3275200105388 43.86090893381491 0.3667797102263528
1.3610040241711103 13.085033044471514 640.3626100388716 45.8694016135173 0.37267912336797254
1.3879368205604752 13.083766140963919 571.5605022157248 47.973614172686645 0.37873820611644904
1.4147872277065074 13.081459828895305 510.6240925835514 50.178350721550686 0.3849628449854139
1.4415196479605092 13.078016535834545 456.7050506821695 52.48874471465647 0.39135955677675877
1.4681150307953839 13.073418123497275 408.83768716413533 54.91125830034777 0.3979402640868641
1.4945259840985619 13.067544504384504 366.3869384943999 57.452083916720504 0.4047140322494741
1.5207379638412108 13.060393013329772 328.7206471053175 60.11785234111109 0.4116906370397438
1.5467216418521341 13.051901953074816 295.1660875229419 62.91567215229062 0.4188806231760845
1.5724383060479534 13.04201705075223 265.34796414813013 65.85317297127649 0.4262953675991998
1.5978521421076053 13.030675800336844 238.81151825450524 68.93855286441149 0.43394714808748047
1.6229497025544404 13.017855679411387 215.14579406054176 72.18063034005397 0.4418492178364066
1.647701465371044 13.003508303127145 194.00760895810743 75.58890142430617 0.45001588670548054
1.6720509683734073 12.987569644755862 175.157635431104 79.17322845860309 0.45846104858385206
1.6959879379717295 12.97000782891982 158.29596571725764 82.94396591991175 0.4671986463098314
1.7194677114008627 12.950791891046235 143.21143523203025 86.91378032494235 0.4762499123165441
1.7424498412924232 12.929847738383383 129.72368810873348 91.0941731468597 0.48562887022797385
1.7649318093348512 12.907186963989975 117.62652311544048 95.49940329841515 0.4953580996467787
1.7868578295303519 12.882747042729271 106.78549036226387 100.1429796892335 0.5054544782183905
1.8081947935878289 12.856478348029121 97.04295455678205 105.04151861308019 0.5159440458285794
1.8289085435490682 12.828345184541089 88.29402323319431 110.21157032208271 0.5268493530891181
1.8489805142167852 12.798357703467813 80.42597935364923 115.67087964968135 0.5381941687010887
1.8683561561196678 12.766410538808097 73.35631784838594 121.43946459669239 0.5500070944540476
1.8870309934352283 12.73258353305826 66.97627933079545 127.53876575836173 0.5623179808047778
1.9049536318337068 12.696755923106785 61.23081027680903 133.99140276756472 0.5751567404962122
1.9220926816025585 12.658928741944266 56.04835134132413 140.8230123500211 0.588559467345489
1.9384043143701002 12.619029420008943 51.368591232813316 148.0612804961584 0.6025644213014869
1.9538982680736827 12.577174906854438 47.14314784253354 155.73461325879126 0.6172070128890966
1.9685112082218772 12.533235880144503 43.32225696008844 163.87678043870017 0.6325352279433999
1.9822232883696334 12.487222926293892 39.86184442195727 172.5217033300456 0.648591079963759
1.9950071750968752 12.439129904838111 36.72742278006733 181.70845052700867 0.6654269411319993
2.0068419821168195 12.388961655562127 33.88818744947279 191.47917407112558 0.6830976776865918
2.017685136948934 12.336676447460796 31.31428477182416 201.87993832380093 0.7016625625887907
2.0275182087531425 12.282282603104845 28.978706984765456 212.96058164197945 0.7211838410760032
2.036323448826764 12.225800153119607 26.858505567339602 224.77691120516758 0.7417328206217609
2.044063465940626 12.167195141455931 24.932060357881905 237.38984067869796 0.7633857318134653
2.050718669454138 12.106473917536134 23.17830551125207 250.86642675050055 0.7862256986731286
2.0562868966895707 12.043714211175045 21.585523117500017 265.27998877888285 0.8103414886764208
2.0607275056503562 11.978852965763412 20.13354282500084 280.7118441721799 0.8358312939170756
2.064028010230444 11.911944049598269 18.814003252586822 297.252263953313 0.8628037085560756
2.066184461844118 11.843029567983743 17.611870900083233 315.00156004229774 0.8913788483663735
2.0671714554395093 11.772124835331066 16.51719110512187 334.06902922802516 0.9216820295581307
