M[M_sun], R[km], Lambda[1], P_c[MeV/fm^3], rho_c[fm^-3]
0.24162668629717493 15.618656898711224 2160425.4255784233 3.5677272577965504 0.1711233750220791
0.2536450365099623 15.277268442598734 1723273.503054949 3.784839326413556 0.17388841885852907
0.26604186447410505 14.981241972776376 1382980.9766213058 4.011442942723902 0.17666716212050118
0.27881792601413 14.723460642734839 1116432.7260439442 4.247793586079606 0.17945827242911003
0.29197371202377587 14.498330386191437 905788.5193802156 4.494516699112161 0.18226832072206745
0.30551037756709537 14.301148884092596 738597.5693910125 4.751768694940189 0.1850930290807333
0.3194281814896852 14.128058932499483 605041.566344476 5.020230586136612 0.1879389882685194
0.3337261872491141 13.975931251751637 497645.1029394984 5.300128138487601 0.1908028546908816
0.3484105384868132 13.84194698689962 410957.0764426841 5.592188066881358 0.19369088635542156
0.3634746063871804 13.723906401022647 340622.2483527184 5.8965800737537615 0.1965981908936294
0.37892824608712555 13.619964163878315 283263.20661216835 6.214167287279089 0.19953242882943295
0.39476376121159895 13.528365288568398 236372.3396423965 6.5452048071245335 0.20248973711344606
0.41099026499007557 13.447796135457965 197834.59598303976 6.890399729516047 0.20547390605845323
0.4276008676421543 13.376967551105633 166050.39504839742 7.250455199043594 0.20848797244555023
0.4445969904061432 13.314860124585994 139779.55326835124 7.625626983649687 0.21152743127915624
0.46198029679338165 13.2605327930366 117960.61171896213 8.016870556953181 0.21459854389612565
0.47974717589907917 13.213090961494997 99792.71482120983 8.424888156682423 0.21770291059948546
0.4979061048402833 13.171927574582163 84622.52595499482 8.850116438521253 0.22083793774045488
0.5164459778022271 13.136354934938113 71922.74008908911 9.293437202858172 0.22400715239845692
0.5353670002384343 13.105803146953836 61262.01075289488 9.755731581602602 0.22721341722985575
0.5546760039473425 13.079780855000454 52291.763816749175 10.237808346752761 0.23045806964927007
0.5743604361766473 13.057827069375543 44718.01337594459 10.740135655984277 0.2337377672625638
0.5944194261811894 13.039494222938522 38319.07097954057 11.263967631103805 0.23705881437379536
0.6148582088796191 13.024483857148635 32891.13701431304 11.810237351871978 0.2404227644091329
0.6356649546050916 13.012422873997375 28283.84809268812 12.379924175940552 0.24383125095144792
0.656837889213767 13.003011428496217 24364.06804609612 12.973708729382754 0.2472821286185868
0.6783715382934509 12.995972769872896 21021.647921971216 13.592934788234174 0.25078037133394976
0.7002625520639881 12.991056512616746 18166.595430068734 14.238792463864081 0.2543285255092292
0.7224993536915627 12.988003231043768 15723.898658139808 14.912471904060116 0.2579285766441716
0.7450895779396822 12.986652622423005 13629.843774562185 15.614990647218281 0.2615802976618582
0.7680125333037754 12.986761233815592 11832.441794173797 16.34763952765966 0.26528582780811416
0.7912602849869738 12.988148714280891 10286.653335042538 17.112023477248986 0.26904974004929966
0.8148374841573734 12.990669703019705 8953.310469862465 17.90959814735497 0.27287446815688227
0.8387221157098097 12.994143586272685 7805.007695142917 18.741710296348764 0.27676092452639756
0.862905290746553 12.998417435785829 6811.553121328292 19.60974209388802 0.28070992455010874
0.8873877773124705 13.003367759002414 5953.1979207562745 20.515762174858537 0.28472766688285
0.9121484628907827 13.008864948779685 5209.320963913772 21.461565465183423 0.28881716645799044
0.9371697298218268 13.014757612928388 4563.429326753972 22.44861234491863 0.2929781511458212
0.9624551012687246 13.020968971746388 4002.9613974936738 23.478976643981266 0.2972148057505806
0.9879791533763397 13.027348723377425 3515.159247543749 24.555058644723662 0.30153304434163153
1.013724252849163 13.033811035670507 3090.6140056588447 25.6787723183713 0.3059342847918762
1.0396902304120725 13.040271626027407 2720.3199341835725 26.852136870517022 0.31042021270411047
1.0658452849014508 13.046592361577702 2397.2877629948252 28.07822273124743 0.31499935770504783
1.0921788867129594 13.05272582369542 2114.815422540579 29.359050573805046 0.31967192558032104
1.118679531258129 13.058558659170837 1867.611402050318 30.697446524848896 0.324443079739242
1.145313513664867 13.064016971881081 1651.3094232755325 32.096739486109904 0.3293203951869943
1.172077806981729 13.069023705060085 1461.3955220033115 33.55894663996647 0.33430206063762674
1.1989369065670366 13.073479810090683 1294.8573741589757 35.088575967264774 0.33940140666350777
1.2258843866112823 13.077345141276693 1148.5466501513617 36.68760725617206 0.3446149256151459
1.2528818624483222 13.080505262604529 1019.6452678147423 38.36113634432421 0.34995732138021174
1.279927175546589 13.082942336540032 906.3145368095048 40.11145232044076 0.3554254494980997
1.3069727587067583 13.084524706504785 806.4182706826878 41.9439360989385 0.3610333378098984
1.3340121660193465 13.085240028515836 718.2837545104821 43.86216756430993 0.36678345152709974
1.3610217343097462 13.085031529852403 640.3209666373929 45.87074221645821 0.3726830216592176
1.3879545879158206 13.083765943700358 571.5170114273889 47.975042475303276 0.37874227152676204
1.4148061825544613 13.081460000557 510.57785095902295 50.17988238888414 0.3849671368860755
1.4415364026902475 13.078016498531069 456.66093245232753 52.490377314792006 0.39136403928504854
1.4681334566966697 13.073410739963903 408.8157769490417 54.912999063734155 0.3979449499088308
1.4945445109386453 13.067538734805613 366.3515399110219 57.453940659554995 0.4047189350735325
1.5207564247252217 13.060390628392472 328.6945412338746 60.11983351779058 0.4116957716173619
1.546740386742564 13.051896562215648 295.1428003612651 62.917786913096734 0.418886005410467
1.5724576457808066 13.042008960455844 265.32392957844826 65.85543122587842 0.42630101464282805
1.5978720562129354 13.030666119467178 238.79438617471322 68.94096535183947 0.43395307844946585
1.6229695476421149 13.017845014095093 215.13284225844973 72.18320870587961 0.44185545150073524
1.6477222136675782 13.003496029804712 193.98521932373816 75.59165830585223 0.45002244526134516
1.6720709601946073 12.987554845680567 175.14820305184043 79.17616318000108 0.4584678952552982
1.6960076058043043 12.969993879395014 158.28407761557207 82.94710712065401 0.46720586477998843
1.7194859631403492 12.950775875486029 143.19911584646562 86.91714417888542 0.47625752979067754
1.7424681107757505 12.929819712235169 129.71228131987502 91.09776105404113 0.4856368520007913
1.7649506325775484 12.907167803869058 117.61050932302231 95.50324983091011 0.49536653979796164
1.786875975625982 12.882726341531935 106.76286769146824 100.14708819658989 0.5054633441990231
1.8082128447523496 12.85645516318529 97.03498254991152 105.04591040483528 0.5159533718075769
1.8289264849728313 12.828319007221301 88.28583297491474 110.21626864206665 0.526859176026415
1.848998762245011 12.798328138414483 80.4217077780918 115.67592907366624 0.5382045990686193
1.8683723879416456 12.766382465048586 73.34588933522353 121.44487431340403 0.5500181066548325
1.887048013222889 12.732551293831953 66.97122735674718 127.54454557449048 0.5623295486491497
1.9049698014046657 12.696721542826147 61.224481403770355 133.9976057440691 0.5751689870978389
1.9221080577347025 12.658891400871289 56.04466257863791 140.82967486925864 0.5885724484665918
1.9384194078436496 12.618989941270364 51.36462616502548 148.06844246682047 0.6025781977083857
1.9539125280014518 12.577131019250652 47.140586284930514 155.74229491722298 0.6172215704007696
1.9685254315537515 12.53319121105588 43.319116018672524 163.88502834717067 0.6325506351049677
1.9822367348373091 12.487176877015516 39.85759175143308 172.53059345311434 0.6486074946039795
1.9950207387639092 12.439084176766135 36.72615910732188 181.71801509921795 0.6654443631328989
2.0068530263825015 12.388909949503214 33.88470708352421 191.48947522012503 0.6831161961856919
2.0176950268664315 12.336620921619538 31.311173423998497 201.89104458469163 0.7016822751063294
2.027527326499345 12.282225861396384 28.976434155001268 212.9725406826535 0.7212047627021758
2.036331847983433 12.225740166742018 26.856460442424517 224.7898337503426 0.7417551575487381
2.0440713619761777 12.16713219455008 24.930193737332615 237.4037896992048 0.7634095161748082
2.0507246182868126 12.106407825667251 23.176237290425693 250.88150305305567 0.7862510663479086
2.0562916663218815 12.043644838608667 21.583322775907465 265.29630419752306 0.8103685889772427
2.0607320749217912 11.978779854791815 20.13294124625018 280.72952295850473 0.8358602912413498
2.0640316489761985 11.911867714818502 18.812606853302764 297.27144436151 0.8628347842541217
2.066185664507329 11.84295091877894 17.610386117338823 315.0223961392999 0.891412202859529
2.067169954111328 11.772045050670037 16.515048262871815 334.09165847753474 0.9217177706501194
