M[M_sun], R[km], Lambda[1], P_c[MeV/fm^3], rho_c[fm^-3]
0.24162668629717493 15.618656898711224 2160425.4255784233 3.5677272577965504 0.1711233750220791
0.25364216479910695 15.27734309683761 1723186.925782738 3.7848046424724004 0.17388798653993465
0.26603814284880395 14.981281769556288 1383095.0023131974 4.011370030011584 0.17666628101340295
0.27881180469707184 14.723628090774378 1116469.7628124626 4.247679977695552 0.1794569547430592
0.291965386220199 14.498488278406105 906006.022583578 4.494359413730964 0.1822665693128438
0.3054995762840843 14.30130014477617 738691.6520062531 4.751562391817934 0.1850908006132775
0.31941529378027766 14.128210051071454 605153.8893170913 5.01997374543409 0.18793632344709935
0.33371215772070745 13.976042328787445 497737.3345242741 5.29981399809437 0.19079969181837494
0.3483921738898723 13.842094643040088 411056.6109267074 5.591815842305068 0.1936872849802505
0.3634538158071855 13.724052090696196 340680.66894456994 5.896141402226341 0.19659407079781105
0.378905304370949 13.62006909106383 283347.2033904517 6.213656860040652 0.19952777434761282
0.39473596984800535 13.528529382275309 236439.9751243637 6.5446231539683986 0.2024846368010417
0.4109597344043797 13.447952225951386 197900.2395597114 6.889735621385821 0.20546825023493406
0.42756498964055334 13.377136418227066 166112.36816530622 7.24970240379032 0.20848174476334477
0.4445596350417789 13.31498260319596 139823.78802337838 7.624787581772619 0.21152074910048113
0.4619391768107174 13.26062344029257 118005.7754471082 8.01592990692936 0.21459126720770852
0.47970152544380834 13.213214323720425 99830.55065969792 8.423838923187729 0.21769502183040687
0.49785635266730194 13.172040977367496 84661.36354091682 8.848962490119085 0.22082958266097896
0.516393068581847 13.136449008905098 71950.19322257854 9.292159864618998 0.22399815985762037
0.5353097232948464 13.105882046605455 61289.40378598734 9.754322192514739 0.22720376780612714
0.5546147216978266 13.079860519421596 52312.48946728604 10.236258804684551 0.2304477570299992
0.5742945643882214 13.057871347934473 44741.19169722426 10.738450527997289 0.2337269482189
0.5943491774608967 13.03955028005127 38335.84050092701 11.26212265985649 0.23704728696005498
0.6147840863262515 13.024526717879217 32910.283637022374 11.80822163774222 0.24041050550407922
0.6355841465906298 13.012445168654901 28302.300020471543 12.377726139289008 0.2438182362133333
0.6567539923969511 13.003031311009343 24377.7577497001 12.9713384639688 0.24726858115345374
0.6782840827726174 12.995992126122074 21034.628555121584 13.590358634885 0.2507660280022943
0.7001695075658713 12.99106282278507 18041.624465251614 14.235996609131378 0.2543133578608526
0.7224004374682068 12.988011311370315 15734.496994301522 14.909441646933205 0.2579125545324776
0.74498667367669 12.986653206447986 13638.968238141157 15.611739908932819 0.2615636820440428
0.7679034979696895 12.986764227478586 11839.36957667249 16.34412428524536 0.26526830520633216
0.791145792026226 12.988139504405668 10293.368792024752 17.10822608773487 0.2690312746299965
0.8147180307930904 12.990649587767654 8959.49903361698 17.905499798033766 0.2728550217823992
0.8385988851550937 12.994121490102733 7809.832717755174 18.73732916527057 0.2767407954959513
0.8627763842861149 12.998392853326123 6817.057255799216 19.60502121414225 0.2806887449399925
0.8872485344191516 13.003331690276548 5957.243022883389 20.51067882406859 0.2847053908515024
0.9120064822802468 13.008836635010967 5213.162036740858 21.456095364960724 0.28879374507290667
0.9370240268097739 13.014714222411515 4567.035769625025 22.44277828207932 0.29295391977019836
0.962300213845156 13.020919222536406 4006.231177160928 23.472705403158233 0.2971893363782311
0.9878223356319443 13.0273161618472 3517.918280998105 24.54832070663582 0.3015062777122579
1.013562224499068 13.03377774300078 3093.384136834928 25.671593765151385 0.3059065813724892
1.0395225899645777 13.040228642657443 2722.552999087944 26.844429940455747 0.3103910973101224
1.0656719144112747 13.046550506189897 2399.311857916511 28.069951347131447 0.3149687582585294
1.0920000596836552 13.052678669861516 2116.595194573883 29.35024405147356 0.31964022750716
1.1184968186756377 13.058518513838811 1869.4182185268855 30.6879997204581 0.3244097555246158
1.1451243517702345 13.063979718463417 1652.7922213981453 32.08668323270853 0.3292858428908083
1.1718849506466653 13.068987430414381 1462.790741054623 33.54816297570203 0.33426571857721327
1.1987381431058695 13.073443363309172 1295.9922212379963 35.07701399389299 0.33936317435202534
1.22568116589742 13.077322772171016 1149.5815022253892 36.67530052638082 0.34457522600988016
1.2526750310050052 13.080487512870462 1020.6346058784754 38.347998939715794 0.34991585519638857
1.2797137103145957 13.082931949242134 907.1284080807934 40.097407271928844 0.35538199881015137
1.306756324347226 13.084522460227753 807.1211122902586 41.928981029316226 0.36098812636874716
1.3337906688458938 13.085229540371644 718.8787224505355 43.84613479790112 0.36673579385379657
1.3607983905998084 13.085036815370362 640.9374561876671 45.85366534803377 0.3726333644455565
1.3877273313161174 13.08378571213313 572.0754917955292 47.956848562630384 0.3786904857781722
1.4145820008123198 13.081496713084034 511.07565383398855 50.16037192436764 0.3849124664144026
1.4413033130342061 13.078050253785237 457.0697472403027 52.469581271513846 0.3913069411418108
1.4678959342286997 13.0734586364856 409.2149376994674 54.89082535663808 0.3978852622771824
1.4943045631057614 13.06759635045417 366.71899095017375 57.430289744452104 0.40465648362715245
1.5205147430125274 13.060462370040012 328.99783738124285 60.09459772350975 0.41163036849313184
1.5464972742001808 13.051981930844319 295.435173241105 62.89084970699508 0.4188174480793354
1.572211999730168 13.042110471792295 265.5843117166964 65.82666640529065 0.42622908466793574
1.597635954151319 13.030791114956918 239.04163693405548 68.9102361531414 0.43387754011932317
1.6227167625496677 13.017952293764155 215.34545180397592 72.15036682181778 0.44177605032378603
1.647475118585926 13.003649795388794 194.19963670894464 75.55654280063487 0.4499389063066114
1.6718245574120865 12.987724559170353 175.32460304118194 79.13878265656668 0.4583806869217867
1.6957621790431152 12.970186889838248 158.44567723660828 82.9070968634764 0.4671139213255231
1.7192267101732042 12.950954579688105 143.3590094266683 86.87429822033232 0.4761605047751674
1.7422298993516216 12.93006059525495 129.84472193695694 91.0520615600074 0.4855351874479454
1.764710884671744 12.907423473164785 117.74047865382761 95.45425654950624 0.4952590375988934
1.7866386670566996 12.88300149507115 106.87706871491707 100.09475846759172 0.5053504189141059
1.8079789860885236 12.856756920146305 97.13511112089517 104.98997286522795 0.5158345883249712
1.8286913354125605 12.828636551497333 88.37630283039377 110.15641128142035 0.5267340040802515
1.8487730006898706 12.798683965491943 80.50556509124482 115.61161631113515 0.5380717510938583
1.868161838080791 12.766793224082672 73.42161113528438 121.37597311517636 0.5498778490647133
1.8868353568804528 12.732959125673576 67.0441479381858 127.47078373521526 0.5621816886819045
1.9047610879207137 12.697158054510345 61.28901131306559 133.9186022429718 0.5750130096563035
1.9219070812166554 12.659361665994801 56.104349248657634 140.744819117337 0.5884071171928369
1.9382244199300733 12.61949050571076 51.41818515543176 147.97722629390177 0.602402738861489
1.9537260491646378 12.577670530624664 47.191187170923854 155.6444606328456 0.6170361646385246
1.9683472901320538 12.533755200233198 43.36171597250685 163.7799830643824 0.632354409643732
1.9820705723584702 12.487777629974032 39.898847266036086 172.41736993720554 0.648398439761457
1.994863619559707 12.439718491742877 36.764552224314095 181.59620289671793 0.6652224805170233
2.0067017102689046 12.389564719726726 33.92232013520582 191.35828327908155 0.6828803508598672
2.017559593518838 12.337323726763529 31.344345155956645 201.74960028127649 0.7014312254200975
2.0274026812066364 12.282959165054633 29.006479961120224 212.82023706312356 0.7209383166318443
2.0362205402134075 12.2265142616958 26.883067264686133 224.62526107034583 0.7414706897534439
2.0439722266681914 12.167942110853648 24.9538086620513 237.2261461826625 0.7631066176604923
2.0506402290891597 12.107260074505756 23.199162382009074 250.68939506914774 0.7859276483841533
2.0562152847950896 12.044514476973708 21.6037825811263 265.0881804553516 0.8100223347475282
2.060677990885553 11.979708966615183 20.1519854534286 280.5043869562719 0.8354910157977423
2.063997118575878 11.912849389598197 18.83057079949095 297.0271881553165 0.8624390454339889
2.066162629667688 11.843958142839274 17.626973797869407 314.7570582899457 0.8909874491506514
2.0671652899768596 11.773091309883183 16.530771160902912 333.8034889004929 0.9212626298220051
