M[M_sun], R[km], Lambda[1], P_c[MeV/fm^3], rho_c[fm^-3]
0.24162668629717493 15.618656898711224 2160425.4255784233 3.5677272577965504 0.1711233750220791
0.25364470270124295 15.277271584358363 1723165.4505909448 3.78483287921318 0.1738883384972866
0.26604039792160017 14.981273613441124 1382977.0890535738 4.011429389323125 0.17666699833565144
0.2788171373630025 14.723486334797412 1116400.260851569 4.24777246784407 0.17945802748940232
0.29197227519273317 14.498355065485278 905798.067276264 4.494487461778106 0.18226799515756711
0.30550865183057935 14.301186143032899 738596.0835404999 4.751730345643337 0.18509261483513656
0.31942545734706657 14.128109622797753 605046.2083105053 5.020182842276579 0.18793849290754414
0.33372633585061584 13.975894729431326 497644.62745015277 5.300069742958041 0.1908022667447946
0.3484070518828774 13.841976589761273 410975.1375757177 5.59211887377047 0.19369021689303934
0.3634702947450197 13.723938539660756 340641.88905440434 5.896498528375899 0.19659742500218366
0.3789252694603729 13.619952111244375 283273.38063130254 6.214072402659812 0.19953156359595367
0.39475813478832716 13.528418804706634 236390.13817783687 6.5450966816662985 0.2024887889992477
0.4109844235814706 13.447819122704134 197836.95840013938 6.890276275647647 0.20547285467350454
0.42759323156147544 13.37702212404708 166054.95960021947 7.250315258099468 0.20848681474998326
0.444590208180614 13.314885390303441 139794.9114080922 7.625470942308734 0.211526189089748
0.4619725457022095 13.260527906481192 117967.5818697288 8.016695693199438 0.21459719118361917
0.4797382956580963 13.213134832018675 99805.42281131182 8.424693106728695 0.21770144409650827
0.4978969138289233 13.171950782510768 84632.25462140841 8.849901921461864 0.2208363845452888
0.5164356705350529 13.136377094447148 71927.96343398312 9.293199746768613 0.22400548069278275
0.5353564118090656 13.10581350402439 60676.330167294655 9.755469576198285 0.22721162340217027
0.5546643705390656 13.079788507102586 52297.68932814824 10.237521169063456 0.23045616388431275
0.5743484137125342 13.057819084460926 44320.94865573885 10.739822388120862 0.23373575598584242
0.5944078314706149 13.03949089219548 38321.42843276604 11.26362464661483 0.2370566714005015
0.6148446546644418 13.024510579809293 32895.2569251031 11.809862624221712 0.24042048543980002
0.6356506283646665 13.012418582727918 28286.86543591834 12.379515552148133 0.24382883145965192
0.6568225707800077 13.003026586639283 24366.89596435811 12.973268085936226 0.2472796100813408
0.6783556124080432 12.995968757358447 21023.873194368494 13.59245586714749 0.25077770482964973
0.7002449585700093 12.991059255541584 18168.640055907617 14.238272696790881 0.25432570574748986
0.72248095980888 12.988004762318557 15726.373578170218 14.91190855761415 0.25792559801915677
0.7450702260632937 12.98663922979299 13631.21384459389 15.61438630954381 0.2615772086885393
0.7679929396332013 12.986760505836957 11833.948776826692 16.346986013714815 0.2652825702050061
0.7912393287002636 12.988147463425404 10287.10388146683 17.11131750659508 0.26904630715307143
0.8148135456932163 12.990680352565105 8954.040076276851 17.908836222039724 0.2728708528757417
0.8386985173909588 12.994139963530655 7805.869953196533 18.74089579603771 0.276757182318902
0.8628806501827533 12.998409224915033 6812.533801935367 19.608864426655238 0.280705987010751
0.887364243107325 13.003359974025733 5953.986770548932 20.514817115740783 0.28472352548726226
0.9121212080987244 13.00885232008174 5209.876504997908 21.460548499869514 0.2888128121070162
0.9371424178052851 13.014750478491097 4564.15643039971 22.44752771007942 0.29297364619019656
0.9624279147451721 13.020957540955363 4003.6294692801393 23.47781072625001 0.2972100706122461
0.9879502256775816 13.027340831042187 3515.6491924388015 24.553805955212866 0.3015280680008848
1.0136934884887243 13.033806597931584 3091.2604397252 25.677437706555793 0.3059291342678484
1.0396592101000368 13.040263592917455 2720.7015924965744 26.850704018024572 0.3104147996454071
1.0658119820822973 13.046585802119754 2397.5490538953686 28.076684929680813 0.3149936687083656
1.0921458179335357 13.052718502165318 2115.1311724767347 29.357413274015485 0.31966603230638585
1.1186448467446317 13.058548590459099 1867.882431919603 30.695690176046195 0.3244368841050319
1.1452776943057028 13.064003837918293 1651.659030889304 32.0948698213384 0.329313971202994
1.172041940356913 13.069013679944991 1461.6594377612255 33.55694172471692 0.33429530386652034
1.198900066524957 13.073473003469788 1295.0644396445903 35.08642633695865 0.3393942984188515
1.2258466114979971 13.077341601953275 1148.7190962491152 36.685319149686606 0.3446075445378151
1.2528430366149543 13.080497598523268 1019.8517153074117 38.358700474396414 0.3499496510593275
1.279887898162158 13.082942427769094 906.4588971035992 40.108840996074726 0.35541737093289827
1.3069330288866625 13.084523094335815 806.5803751959762 41.941155567220875 0.3610249318412673
1.3339703152529228 13.085236331405483 718.4026158266539 43.85918664533121 0.3667745906942772
1.360979546206791 13.085032499289975 640.4215312931858 45.86756715717077 0.3726737890181089
1.3879127293691012 13.083769075905726 571.6423067236789 47.97165971170944 0.37873264308959415
1.414761960523766 13.081464621680531 510.67532000596276 50.176254820988 0.3849569720410642
1.4414943753934166 13.078022768536282 456.73931465535634 52.48651070218414 0.3913534230155219
1.4680894332106313 13.073420945857368 408.8875842468942 54.9088762823398 0.39793385212278326
1.4944991558067564 13.067551088307145 366.4148621412445 57.44954319807223 0.40470732335242976
1.520711771202846 13.060403289355856 328.72995894094595 60.115141353472254 0.41168361102505385
1.5466957249136826 13.051910606606622 295.1947391933946 62.91277837513666 0.4188732582831622
1.5724119405802657 13.042028146331248 265.38014897049715 65.85008284502068 0.4262876403580958
1.5978258108402665 13.030688232492786 238.83856480647995 68.93525169466241 0.4339390331719953
1.6229237518079274 13.01786620238921 215.16707818529036 72.17710219201467 0.4418406879023065
1.6476762040396589 13.003525114792621 194.03508788771094 75.58512900618466 0.45000691221216943
1.6720242732771275 12.987589781380011 175.17630589723117 79.16921269510651 0.45845167985355784
1.6959626838259436 12.970028281874017 158.31573414035728 82.93966762345568 0.46718876883709404
1.719441950234853 12.950814134861155 143.2329746226082 86.9091773647805 0.476239488876477
1.742418205724266 12.92983868531491 129.74387227280488 91.08926360720412 0.4856179483093767
1.7649056719430163 12.907213922363505 117.63872901877819 95.49413987438221 0.49534655051918497
1.7868327893163938 12.882774873933522 106.7948023826477 100.13735779751508 0.505442346419961
1.8081696682788317 12.856511093517842 97.05356185136944 105.0355090958787 0.5159312846062056
1.8288783780318099 12.828369097679287 88.29998038490474 110.20514137498104 0.5268359118708783
1.8489568467394488 12.798394959178172 80.43722740085263 115.6639702802837 0.5381798963281533
1.8683321306147331 12.766451957628266 73.3638086548559 121.432062232024 0.5499920259522467
1.887010696178006 12.732625535743903 66.98701891896428 127.53085697976387 0.5623021520105819
1.9049316281912427 12.696802606197652 61.2362253365117 133.98291497282258 0.5751399829539543
1.9220713036748571 12.658978942499068 56.05623068082248 140.81389575791246 0.5885417047571967
1.938384111350205 12.619082663249923 51.37474741133206 148.05148050058634 0.6025455705224239
1.953878443754906 12.577232302949623 47.149672848532965 155.72410217053874 0.6171870933246834
1.9684914216313636 12.533294243644065 43.325230630771955 163.86549454785776 0.632514145805514
1.9822053967883129 12.487286827797577 39.86671627931199 172.5095386971506 0.6485686192991718
1.9949912836972101 12.439199580753442 36.733163112178254 181.69536304630256 0.665403102104425
2.006825001184811 12.389034279584921 33.89090221206085 191.46507873570198 0.6830723383330527
2.01767037985296 12.336751333162612 31.317347560356968 201.86474135994578 0.7016355894770047
2.027503957530724 12.282361280720085 28.982671936198436 212.9442178272344 0.7211552135611227
2.0363107992511105 12.225884047015683 26.860449400471378 224.75922904081284 0.7417022565797211
2.044052323282553 12.167282421828588 24.93440158277525 237.37075400439136 0.7633531872804408
2.050709283724013 12.106565393257787 23.180512660736262 250.84579763792448 0.7861909877340958
2.056279399641451 12.043809931458794 21.586982454494233 265.25763820005477 0.8103043222800016
2.0607219576290534 11.97895562081622 20.13590664457002 280.6876541456702 0.8357916166434203
2.0640240259605043 11.91204931419902 18.81583542131604 297.2260193032505 0.8627611875204286
2.0661812541087157 11.843138346887812 17.61335728293196 314.9730499700968 0.8913332093482794
2.0671698776985385 11.772236490473892 16.51875009380844 334.0380656516079 0.9216331250625327
