M[M_sun], R[km], Lambda[1], P_c[MeV/fm^3], rho_c[fm^-3]
0.24162668629717493 15.618656898711224 2160425.4255784233 3.5677272577965504 0.1711233750220791
0.25363417060623444 15.277525122493945 1723472.4244262578 3.784639231216785 0.17388592476843043
0.2660189139102516 14.981733948311295 1383512.122417433 4.0110223148859125 0.17666207908131662
0.27878304056256037 14.724122600884296 1117034.011502765 4.247138207663722 0.17945067102712
0.2919258610136562 14.499123280253286 906539.8560186903 4.493609385480103 0.182258217574198
0.3054486816168425 14.301986848858853 739295.067938504 4.750578653663217 0.18508017436371407
0.31935233435666627 14.128918166391758 605639.0747960036 5.018749064761612 0.18792361691243906
0.3336359211248851 13.976783744883278 498222.91814101173 5.298316150447553 0.1907846109779502
0.34830278611497006 13.84281855931223 411494.047245729 5.5900411021685334 0.19367011388121533
0.36335140782146513 13.724788368598205 341116.5555512304 5.8940499191049955 0.19657442714573037
0.37878832734997303 13.620796608438658 283726.70793287084 6.211223344861313 0.19950558361932028
0.3946040249181492 13.529228466768599 236791.2293361502 6.541850147508534 0.2024603212805369
0.4108114870927998 13.44864373335772 198217.55398896756 6.886569619431118 0.20544128723372665
0.42740220910203364 13.377763358730581 166394.65482853178 7.246113722178021 0.20845205652006651
0.444378672557491 13.315621462278246 140076.15561389402 7.620786152284271 0.21148889514884317
0.46174106186425984 13.261199776299778 118221.65962129884 8.011445972892169 0.21455658035282588
0.4794870136867675 13.213741834412255 100036.70821662595 8.418837549936985 0.21765741849535286
0.4976232001396894 13.172528773977158 84837.77933762847 8.843462129189078 0.2207897576977223
0.5161394874328659 13.13688174298037 72119.70258597027 9.286071552967435 0.2239552977640314
0.5350377649456034 13.10628655917485 61432.538463077595 9.747604686361669 0.22715777620322
0.5543233125639676 13.080219646898243 52440.04050618623 10.228868355729166 0.2303985395229798
0.5739807243119854 13.05817831829165 44851.1630786841 10.730419253050403 0.23367538494596338
0.5940193504187236 13.039834856217379 38434.83654093245 11.253329852198739 0.23699234933869207
0.614429934181118 13.024777153870385 32994.889520879966 11.798615400778768 0.24035208355568896
0.6352064621291639 13.012642114714858 28376.364316697403 12.367251340733121 0.24375621415382273
0.6563504567608327 13.003165534297665 24447.935781535005 12.960043202631587 0.24720402207149011
0.6778614249467656 12.99611301871702 21094.10963647279 13.57808261813843 0.2506976784299911
0.6997237356245654 12.991148114870752 18231.287052533004 14.222674076017434 0.25424108246850297
0.7219314929627034 12.988059720823589 15781.495131370073 14.89500261377229 0.2578362099213211
0.7444929351212527 12.986669452710688 13680.544324228998 15.596250693930376 0.26148451145135265
0.7673862691298639 12.986735439718624 11877.32841697627 16.327375276616472 0.26518481559911355
0.7906020364919182 12.988094676626037 10326.075745212058 17.090133305465937 0.2689432955565528
0.8141507081199562 12.990585703493805 8989.905789687971 17.88597369765836 0.272762371832301
0.838004911815853 12.994032264460868 7836.947048866502 18.7164230576028 0.27664460065856095
0.8621607920663754 12.998279064824976 6840.5013093563 19.58253043091444 0.28058784297984407
0.8866036320465913 13.003196490736325 5978.689906971556 20.486461959430102 0.28459926879577235
0.9113331960249283 13.008688620052709 5231.60997849318 21.430036876029693 0.28868217016950337
0.9363321180597964 13.014556363733863 4583.756903896503 22.41498666724003 0.2928384892243019
0.961577556554465 13.020743922773761 4020.897659235712 23.442832176999413 0.29706801233059976
0.9870752230901988 13.027121790784554 3531.1715856499886 24.51622540027849 0.3013787782964576
1.0127897634150356 13.033585555730475 3105.064799147078 25.637389450872636 0.3057745415812536
1.0387191294110936 13.04001916472305 2733.305073139225 26.80772114435334 0.3102524180885837
1.064850497950902 13.046363198982041 2408.794138996734 28.03055531907633 0.3148230152200476
1.0911506099532071 13.05248999438015 2125.0095906732954 29.30830032987335 0.3194892558629755
1.1176218691025013 13.05833632756895 1876.8474884949057 30.643007989039038 0.3242510442766436
1.1442300819806495 13.063805435143092 1659.4744307650858 32.03850234170202 0.3291194244603342
1.170962512685472 13.06883059257935 1468.8202678514783 33.496807456286156 0.33409264518180615
1.1977920296475724 13.073296468615483 1301.5104892834706 35.0219538296278 0.3391811053156446
1.2247137870220097 13.077188629468042 1154.4263546683476 36.616695377679044 0.3443861748720503
1.2516904155077033 13.080397081009181 1025.0828380192559 38.28517518643472 0.34971684331833014
1.2787031763759578 13.08284945796375 911.082260034605 40.03052855258854 0.355175098395249
1.3057250457790204 13.08447814684972 810.7006474956579 41.85777116847155 0.36077284817116706
1.332747469185277 13.085251138710074 722.0965187602093 43.76979624428198 0.3665088761930478
1.3597279051653104 13.08506436664875 643.8913804225366 45.77235791694363 0.37239693348072606
1.3866402981579795 13.083851433280067 574.7026723309809 47.870225325270425 0.37844392808205635
1.413469544893218 13.081596174013185 513.4359105625359 50.06748406983294 0.3846521844095432
1.4401930014900781 13.078238234556766 459.2140644721333 52.37057611757689 0.3910351100831255
1.466762069452959 13.073668285895561 411.15325118868884 54.78526499362315 0.3976011127645635
1.4931621472067291 13.067882747233476 368.4585901107981 57.31770081473013 0.4043591868216404
1.519362828745943 13.060807254414144 330.58099689512886 59.97446825007241 0.4113190312398842
1.5453363846697261 13.052391081934664 296.86219757364194 62.7626256058113 0.41849110754755464
1.5710453540070777 13.042590056552601 266.8853585938648 65.68974764625777 0.4258867024559741
1.5964628200312272 13.031348700162054 240.17990117502396 68.76397253016292 0.43351799576709427
1.6215583322742886 13.018622756487366 216.39572326163724 71.99405328769166 0.4413981341677171
1.6462903897495689 13.004365303977231 195.16272750048404 75.38941431694455 0.4495413116045756
1.670654326080642 12.988538269367789 176.19139239898 78.96021343930273 0.4579628570176361
1.6945859510193877 12.971093639410602 159.23608337597852 82.71668649204501 0.46667635884653874
1.7180785027582595 12.951992073380826 144.07192258481956 86.67040120718565 0.47569877835962937
1.7410810631098506 12.931184584090685 130.50323760681766 90.8345929871497 0.48505139992064117
1.7635674738723526 12.90864391525539 118.33531737715046 95.22112425438893 0.49474749328749407
1.7855051442144951 12.884323333631219 107.41800935348718 99.84575954090707 0.5048130900328331
1.806851222149914 12.858171802663028 97.62488069589031 104.72355142420294 0.5152684006465647
1.8276012989608508 12.830221988303911 88.82391320496231 109.87056899149931 0.5261345475118497
1.8476815074260555 12.80032503178348 80.92043980684613 115.30563894512763 0.5374397074403584
1.8671079608093768 12.768606029433963 73.79637416948911 121.0481801106832 0.5492105826303002
1.8857964465517159 12.734880065504376 67.38307039948856 127.11933720931503 0.5614763383086638
1.903751708208245 12.699214035802829 61.602624522530476 133.54215609470967 0.5742688151385421
1.9209238950334373 12.661534046498563 56.38908010980517 140.34117823245703 0.5876206712522198
1.9372927803142628 12.621883416950284 51.682634078948546 147.54335210227958 0.6015681602673166
1.9528447825066266 12.58022862753037 47.42505883815735 155.17912870461507 0.616154314054145
1.967499671729138 12.536449493380315 43.580663455403524 163.27892325347952 0.6314162169487967
1.9812685907322596 12.49062707283168 40.10173665004247 171.87889773575628 0.6474042097168135
1.9940936144533326 12.442774652733808 36.948932778652946 181.0221758464304 0.6832578573671642
2.0056532043876083 12.393015063055513 34.13766525081357 190.80758100656143 0.7552824464813164
2.0157293369262104 12.341049661781144 31.63342829555486 201.31051075785615 0.8328137439747354
2.0242713619061927 12.286623688960072 29.40154425914588 212.5990626321784 0.9164380137218318
2.0312213081847856 12.229614699557962 27.40843043725433 224.75029391797162 1.0068063864761858
2.0365365546768213 12.169887347408807 25.627620691793737 237.84973498192903 1.104635960992342
2.04020563267407 12.107409077250052 24.03454593741945 251.99369243717354 1.2107212722449123
2.0422166517221703 12.042169715769296 22.60645501023874 267.2899622888391 1.325941397848153
2.0425455885713193 11.97415746900048 21.32888082249721 283.86029948938125 1.4512712813425228
