M[M_sun], R[km], Lambda[1], P_c[MeV/fm^3], rho_c[fm^-3]
0.24162668629717493 15.618656898711224 2160425.4255784233 3.5677272577965504 0.1711233750220791
0.2536448409687489 15.277250848371143 1723262.142057597 3.784834258271026 0.1738883556865774
0.2660406799369856 14.981255476024339 1383014.3343467936 4.011432288396355 0.17666703336924053
0.2788164965055124 14.72349615354409 1116373.3122581053 4.247776985031749 0.17945807988197213
0.2919725278172606 14.498373500963957 905848.1802941279 4.494493715634236 0.18226806479570656
0.3055089170035165 14.301190973572766 738650.7208831833 4.75173854853787 0.18509270344205297
0.3194268298969699 14.128054655997854 605080.9326004627 5.020193054654502 0.1879385988649067
0.3337268727497325 13.975895856496006 497654.2743636226 5.300082233709513 0.19080239250593606
0.3484077933723758 13.841970331773576 410971.2440498437 5.59213367410271 0.1936903600903252
0.36347174733906956 13.723924498846793 340628.44339223235 5.896515970829739 0.19659758882540135
0.3789261488537898 13.619949538372406 283273.7556680984 6.214092698343243 0.19953174866814896
0.39476012318395653 13.528385011040584 236381.78999684658 6.545119809527979 0.20248899179935043
0.410985690310432 13.447813988548718 197836.93978796838 6.890302682209448 0.20547307956286592
0.4275944010997035 13.37702106890775 166064.9663950506 7.250345191192254 0.2084870623787887
0.4445907432632436 13.314887730213966 139775.1532586058 7.6255043192197896 0.2115264547914213
0.46197423938320326 13.260549893007862 117965.28494308828 8.01673309615382 0.21459748052571032
0.47974007970770033 13.213115035238411 99796.77492803823 8.424734827430663 0.21770175777786258
0.4978982907895818 13.171954132909587 84630.94237009007 8.849947806096532 0.2208367167696488
0.5164391527669048 13.136362204166057 71923.77642219428 9.293250537960457 0.2240058382659398
0.5353585802832821 13.105811843361588 61265.166082394935 9.755525618374673 0.22721200709657466
0.5546660334251519 13.079786506872425 52296.55626553163 10.23758282758269 0.2304565745059978
0.5743508407941557 13.057813703444154 44720.85913429589 10.739889395084779 0.23373618619130693
0.5944058992340576 13.039528206800842 38319.5201789471 11.263698009808676 0.23705712977506424
0.6148481187924401 13.024479699372622 32895.06147862896 11.809942777104132 0.24042097290305728
0.6356535007780706 13.012419631768992 28286.110781518873 12.379602955222781 0.24382934897974248
0.6568258033811104 13.003014892404376 24365.972401416417 12.973362337830107 0.2472801487865164
0.6783589097551889 12.99596945813652 21023.389817597854 13.59255830639657 0.25077827518394347
0.7002486725142921 12.991047005344425 18168.22658644337 14.238383872740398 0.2543263088824419
0.7224853184938241 12.988003193619496 15725.72070648798 14.912029054909336 0.2579262351337782
0.7450743287660678 12.986639161796399 13630.885541041145 15.614515574595465 0.26157786940573846
0.7679961934348329 12.986754337246442 11833.260939741836 16.347125797233993 0.2652832669907903
0.7912430937739506 12.98814404184629 10286.003345753703 17.111468510234403 0.2690470414326353
0.8148186388481481 12.990667992280521 8953.94640989246 17.908999193975074 0.2728716261659219
0.8387027904437532 12.99413549098752 7805.588360253683 18.74107001338273 0.2767579827574599
0.8628850042287272 12.9984186075285 6812.332659796574 19.609052154923084 0.28070682922909485
0.8873696542385013 13.003362671860858 5953.780526413429 20.515019258604955 0.2847244113086358
0.9121273698841293 13.00885995091943 5209.864839461708 21.460766022890894 0.2888137434776019
0.9371493507274873 13.014758221499639 4564.029734352306 22.447759707069903 0.29297460977361595
0.9624339876497472 13.020957915096812 4003.4258587154004 23.478060108967124 0.2972110834295591
0.987956975228326 13.027341993842294 3515.625291639071 24.554073897665184 0.30152913240904955
1.013699939126895 13.033801478749824 3091.0685147315503 25.67772317148606 0.3059302359319917
1.0396662519802833 13.040263454207999 2720.6696373978534 26.8510104957508 0.31041595746306944
1.0658193318073266 13.04659373564642 2397.5307337588597 28.077013855046008 0.31499488554631916
1.092153590085312 13.052718693891135 2115.090588808487 29.357763481138623 0.31966729283700085
1.1186524807221214 13.05855027537797 1867.8442569913022 30.69606584660832 0.3244382093072827
1.1452860009953216 13.064011066817528 1651.5569483278125 32.095269729103755 0.32931534524668643
1.1720507540318448 13.06901573136151 1461.6411864710722 33.557370561204294 0.3342967490896977
1.1989070945770646 13.073477287449125 1295.0016575167442 35.08688612651346 0.33939581881826003
1.2258549729010007 13.077342665787368 1148.661489473862 36.68580855788672 0.3446091232929099
1.2528525664110506 13.080496823184674 1019.8214797650174 38.35922148766532 0.3499512916801636
1.2798960817088727 13.082944277461962 906.4082460553223 40.109399537142274 0.3554190988723648
1.3069412019192537 13.084525748331679 806.5176782682875 41.94175029991481 0.3610267298083027
1.3339795224295603 13.08524201675076 718.3456950885897 43.85982423859552 0.3667764859511977
1.3609891684613258 13.085028829090403 640.3943303918992 45.86824627486565 0.3726757638001144
1.3879213100102474 13.083767339703307 571.6160126524668 47.972383254978645 0.3787347025273032
1.4147719590017858 13.08146005720168 510.64429612318776 50.17703072496712 0.3849591462095201
1.4415030153336343 13.078020395856978 456.7311224134591 52.487337734979 0.39135569373771417
1.4680988365142378 13.0734192589515 408.8763554227676 54.909758106529125 0.3979362258349083
1.4945088159816706 13.067550527998108 366.40308645398915 57.45048377293656 0.4047098069882828
1.5207202098559671 13.060399369954172 328.7326546596485 60.11614496156093 0.4116862120568966
1.5467054430478535 13.051907021404544 295.18492344592835 62.91384965148713 0.41887598476664434
1.5724216812236804 13.042023111421361 265.37375520201715 65.85122680932247 0.42629050098165694
1.5978358495626175 13.030683291986659 238.8270722088144 68.93647378670069 0.43394203731124276
1.6229331954867918 13.017861300448644 215.16071530578984 72.17840831076198 0.44184384567990465
1.647685493136424 13.003518476376358 194.02953548415775 75.58652555296135 0.45001023456385536
1.672033342547048 12.987582629797688 175.1679148494425 79.17069932760364 0.45845514815016547
1.6959712188454887 12.970022530007329 158.30727073927278 82.94125884866666 0.46719242546799444
1.7194516427705535 12.95080577870288 143.22714592050752 86.91088137536141 0.4762433476220536
1.7424281844439091 12.929826535912182 129.74073391748598 91.09108111238206 0.48562199158939806
1.7649153556487982 12.907204371225523 117.63336633499597 95.4960883860838 0.49535082598893976
1.7868419849962518 12.882763478689265 106.78756819686822 100.13943901246554 0.5054468375915331
1.8081796857722874 12.856498925203176 97.05381437767088 105.03773380808603 0.5159360087872411
1.8288921713489381 12.828367692708076 88.29860491441913 110.20752135820341 0.5268408877827023
1.848965877964099 12.798380651822608 80.43455492748345 115.66652811339588 0.5381851799287227
1.868341312792808 12.766435400731423 73.35968757825084 121.43480256945921 0.5499976042750432
1.8870163759803156 12.732611654748334 66.98041621142947 127.53378478903839 0.5623080117890392
1.9049398658281502 12.696784729903861 61.233214683627 133.98605713062335 0.5751461865490844
1.9220789590967386 12.658959719478306 56.05255049265753 140.81727069279899 0.5885482804137785
1.9383934526238422 12.619062022486203 51.374238404411905 148.0551084272257 0.6025525490198154
1.953885495915431 12.577211957389853 47.14749776452429 155.72799333926264 0.6171944674789266
1.9684988207059726 12.533272495197538 43.32513160719236 163.86967254346345 0.632521950336027
1.9822113073385754 12.487264401937962 39.86413203061179 172.5140419969202 0.6485769341498158
1.994997100841234 12.439175889502945 36.73096796559268 181.70020797777795 0.6654119272142862
2.0068319180988317 12.389007489643973 33.8913340660144 191.4702967675302 0.6830817188514511
2.0176753479281415 12.336723378222082 31.31562408105899 201.8703672061167 0.701645574799014
2.027508567809254 12.282332315105563 28.979896907316633 212.95027563244346 0.721165811328909
2.0363151635299133 12.225855805707079 26.859788817021858 224.76577488803542 0.7417135712324799
2.0440565812412275 12.167250250702875 24.933343950879845 237.37781978922916 0.7633652350926632
2.050712741509743 12.106531975420772 23.17954574477108 250.8534344197377 0.7862038375291099
2.0562822143330464 12.043774252320405 21.586628398106413 265.26591835147866 0.8103181009330376
2.0607243482703144 11.978915689182378 20.135433119614113 280.69660914432114 0.8358063049254655
2.0640258514618424 11.91201083112118 18.815380987051523 297.2357349030828 0.862776928533009
2.0661829256063386 11.843097611016148 17.61310535117382 314.9836042057703 0.8913501046037343
2.0671705359421253 11.772196448923795 16.518007959650607 334.0495281485176 0.9216512291607838
