M[M_sun], R[km], Lambda[1], P_c[MeV/fm^3], rho_c[fm^-3]
0.24162668629717493 15.618656898711224 2160425.4255784233 3.5677272577965504 0.1711233750220791
0.2536434009987414 15.277279426441199 1723303.6600328889 3.78480849321884 0.17388803453763135
0.2660380651850528 14.98132036443164 1383060.2844465713 4.0113781250185205 0.17666637883678443
0.27881305435180276 14.723574782255344 1116460.7566842986 4.247692590798182 0.17945710103604215
0.2919663580243728 14.498475603224389 906002.2609022366 4.494376875874078 0.18226676375786013
0.3055010024716439 14.301289491980263 738667.4366336078 4.751585295884066 0.1850910480209048
0.319417552130427 14.12817885940661 605129.9322446125 5.020002260105545 0.18793661929782135
0.333714390662519 13.976006568303621 497717.6251271085 5.299848874038265 0.1908000429612603
0.34839360366019895 13.842035153329817 411019.90415142477 5.591857166562046 0.19368768480380466
0.36345484539393924 13.724057585339938 340674.37117119366 5.896190103147276 0.1965945282071667
0.37890805904188424 13.620047202114911 283328.818514062 6.213713526920905 0.19952829108132936
0.39473834538145 13.52851958306725 236428.52118199374 6.5446877279374895 0.20248520302751546
0.4109629121238988 13.447918527076222 197890.44340143504 6.88980934896403 0.20546887812992867
0.4275696867227053 13.377123327718751 166104.7139970484 7.249785976760212 0.20848243614110679
0.444563064983071 13.314983137325447 139818.74214778352 7.624880769114358 0.21152149093164066
0.4619442955553174 13.260604567592722 117996.47816709007 8.016034333949788 0.21459207503513714
0.47970689817938045 13.213195152302685 99825.63261235651 8.423955404109941 0.21769589760410457
0.4978627960780179 13.17201792102852 84653.15611545772 8.849090595433015 0.22083051019818703
0.5163991469167705 13.136440639503013 71950.09915785516 9.29230166733068 0.22399915815755098
0.5353146088830784 13.105885794629142 61286.70999317248 9.754478653982778 0.2272048390241572
0.5546212228933943 13.079834447223448 52308.8726957124 10.236430944679292 0.23044890341521213
0.5743019244787159 13.057866387780535 44740.658321780174 10.738637598557519 0.2337281492698439
0.5943572564818629 13.03954762049685 38337.316884647655 11.262327474053151 0.23704856664286209
0.6147920760792633 13.024523009687533 32908.731959786615 11.808445405389335 0.24041186638472176
0.6355926415987045 13.012439158001875 28299.942733467025 12.377970145672283 0.24381968099323467
0.6567634924410595 13.003026541311593 24375.90091131365 12.971601588580908 0.2472700850658372
0.6782936232694096 12.995982731241625 21032.631344946698 13.59064461386786 0.25076762025665256
0.7001798656170344 12.991061359959952 18040.558407957098 14.23630697568848 0.2543150416145723
0.7224117284714835 12.988009561774858 15733.616378504037 14.909778032772275 0.2579143331312103
0.7449980893434601 12.986643490498048 13637.892564902972 15.612100768728084 0.26156552651994847
0.7679148631641891 12.986766478048953 11838.539590442495 16.34451450538416 0.2652702503558535
0.7911591845245335 12.98812886632306 10291.789152394871 17.10864762643008 0.2690333244299263
0.8147319001086094 12.99065956531267 8958.747577261114 17.905954743316112 0.2728571804652338
0.8386117246198431 12.994124510250003 7809.68128548823 18.737815499366697 0.276743029949487
0.8627898692578577 12.99840003889133 6816.556423160545 19.60554525999896 0.28069109600325315
0.8872633426074042 13.003332402175507 5956.705351202639 20.511243103610738 0.28470786361194905
0.9120222619360365 13.008837030970398 5212.549613195481 21.456702572796008 0.2887963449610179
0.937040117497346 13.01472355512865 4566.5299856920565 22.443425888952184 0.2929566095604568
0.9623164923569345 13.020926215287133 4005.5259458673786 23.473401535260116 0.2971921635775378
0.9878400605245007 13.02731748503772 3517.6610812780496 24.549068640193195 0.30150924889722064
1.0135800947426998 13.03377335700598 3093.132483595607 25.672390605216982 0.30590965653176505
1.0395414985890368 13.04022957144227 2722.326599818943 26.845285427515723 0.31039432918618776
1.065692082572529 13.046552609308998 2399.1117922824888 28.0708694851781 0.314972154850401
1.0920207253480536 13.052685998759248 2116.3742335227525 29.351221586724083 0.31964374603385215
1.118516297288267 13.058519804819305 1869.1952574625218 30.68904832234956 0.32441345453573567
1.1451452361021939 13.0639838603799 1652.5646678816772 32.08779947912104 0.32928967820353583
1.1719064248044404 13.06899609495761 1462.6456834492074 33.54935995849173 0.33426975253262864
1.1987599620791682 13.073456810047123 1295.874319221353 35.07829736176873 0.3393674181016686
1.2257047403748977 13.077324727191957 1149.4602500539308 36.67666655546979 0.3445796326082644
1.2526982823466442 13.080489903021787 1020.4959746254502 38.34946334487642 0.34992049411090786
1.279737055264269 13.082929453323668 907.0110439683507 40.098966236141685 0.3553868217246096
1.306779080357339 13.08452212462006 806.9787892821295 41.930640995861665 0.3609931446990978
1.3338139718109308 13.085235861993601 718.8073767975062 43.84791437520153 0.366741083677863
1.3608227546331824 13.085033734556475 640.8581837894943 45.85556080770899 0.37263887618481334
1.3877531158672476 13.083779484922351 572.0329319998235 47.95886799963328 0.3786962337477709
1.414607187806987 13.081494256069892 511.0005926793367 50.16253747924748 0.384918534537825
1.4413294222423891 13.07804479546797 457.0542086546945 52.47188950694037 0.391313278691471
1.467922713579053 13.073452968264197 409.1636863772152 54.89328649174937 0.3978918872102765
1.4943314018122111 13.067590293736412 366.6700008100216 57.43291482607731 0.4046634152889358
1.5205418401743378 13.060453379915554 328.96790730851933 60.09739870026732 0.41163762773089557
1.546524279158378 13.051972367415145 295.4020807404825 62.89383951078432 0.41882505736767894
1.5722402973254301 13.04209731438767 265.56501007984986 65.82985904099877 0.42623706824654434
1.5976636868824845 13.030777943401342 239.01415286295438 68.91364679749022 0.43388592414460647
1.622750541440931 13.01796495872131 215.32068629035888 72.15401193238677 0.441784863035893
1.647502045543243 13.003632997964504 194.1743594130368 75.5604402362261 0.4499481782135203
1.6718521239315225 12.987706137469125 175.30509772653835 79.14293146297761 0.458390366039678
1.6957892187936863 12.970166914077977 158.42664438590708 82.91153751186297 0.4671241259225822
1.7192542767341281 12.950926975039373 143.34259047667976 86.87905356599393 0.4761712732934164
1.7422562861785613 12.93003467878332 129.82941048489442 91.05713358247039 0.4855464708309811
1.7647372427807806 12.907393748637446 117.72698774144291 95.45969410049364 0.4952709687999059
1.7866651253622385 12.882970276348809 106.86413001890566 100.10056628145918 0.5053629519244671
1.808004557841211 12.856724319061303 97.12485092019477 104.99618105332009 0.5158477714253977
1.8287167167986569 12.828601285237946 88.36788624192731 110.16306870627473 0.52674794911227
1.848797779612252 12.79864667958491 80.4960895461023 115.61875391757053 0.5380864949257551
1.8681869722888476 12.76675255948662 73.4114865121881 121.38361990652494 0.5498934151296625
1.8868592500240218 12.732913463913727 67.0354908644554 127.47898263559938 0.5621981438095552
1.904784186005526 12.697110836743702 61.281910671728035 133.92737009003693 0.5750303201088024
1.9219295431483694 12.659308893114748 56.09688023678569 140.75423637909066 0.5884254655999367
1.9382460898505267 12.619433090590766 51.41291278220275 147.9873493542203 0.6024222110716654
1.953757191604132 12.577641034169934 47.18148587447356 155.65531808526373 0.6170567405977032
1.9683671778986935 12.533691476090068 43.357356640131584 163.79164069192856 0.6323761861888699
1.9820872311222666 12.487708377087856 39.896054507340104 172.4299350541611 0.6484216398760739
1.9948819867695913 12.439646678798566 36.7600369960792 181.6097210449069 0.6652471040113892
2.0067147027662515 12.389490083095737 33.917039605976605 191.3728422252347 0.6829065236519751
2.0175751256265126 12.337246182862769 31.34037775697324 201.7652968411677 0.7014590852655664
2.0274164709092815 12.282877419140855 29.003154754383146 212.83713857933162 0.7209678848232647
2.036232016635639 12.2264284476633 26.880426955303918 224.64352394469756 0.7415022575665382
2.0439832357883287 12.167852034099909 24.951527998106428 237.2458593704573 0.7631402304565666
2.0506498936329662 12.107166769162939 23.197443926909397 250.71074375032217 0.7859636374349809
2.0562234323011266 12.044415547408247 21.601593725167405 265.1112808668739 0.8100607751744069
2.060684367449166 11.979605571130168 20.149708196667348 280.52936967867527 0.8355319932771615
2.063996277859343 11.912728007873358 18.82862306590583 297.05429230856186 0.8624829590187987
2.066165033434523 11.843846172671729 17.62519675454913 314.78650146807246 0.8910345818878049
2.0671649543840664 11.772973616460547 16.52898114865011 333.8354652531288 0.9213131339167405
