M[M_sun], R[km], Lambda[1], P_c[MeV/fm^3], rho_c[fm^-3]
0.24162668629717493 15.618656898711224 2160425.4255784233 3.5677272577965504 0.1711233750220791
0.25364380623675503 15.27728209445095 1723296.511873193 3.7848158158619603 0.1738881258108453
0.26603946495977915 14.98126233845988 1383062.1872544603 4.011393518649873 0.17666656485973461
0.2788142849854642 14.723559874254159 1116457.0099424024 4.24771657618154 0.1794573792303439
0.291967782719336 14.49846520049039 905903.6516453574 4.494410082376476 0.18226713351997115
0.30550482220744696 14.301212777282757 738686.429538936 4.751628850987365 0.1850915184991466
0.31941986873331524 14.128158828507932 605126.4541173069 5.020056484617521 0.18793718189806183
0.333717049634583 13.975975278541549 497687.3834510187 5.299915195501079 0.19080071070834362
0.34839787328025845 13.842053056479667 411021.45942253637 5.591935750532763 0.19368844512533906
0.3634589914951934 13.724040003365028 340658.1900698473 5.896282715073354 0.19659539803797518
0.378913254248943 13.620019775152143 283315.1063581277 6.213821287487725 0.1995292737279466
0.39474470445939913 13.528487195891083 236414.77877520857 6.544810525230957 0.20248627979388817
0.41096908525488823 13.447920509430407 197879.60122917645 6.889949553507216 0.205470072170653
0.4275771702474213 13.37708130405345 166098.319099131 7.249944904151227 0.20848375090668303
0.4445715680697539 13.314949914095584 139808.93048444035 7.625057980065921 0.21152290164476137
0.46195078457743044 13.260603483550836 117985.70478504992 8.01623291934605 0.21459361125372664
0.47971615380045524 13.21317345398632 99817.97827063437 8.4241769124104 0.2176975630368611
0.49787297943503156 13.17202931371501 84651.5661703843 8.849334209879085 0.220832274070865
0.5164096737717891 13.136426275048027 71942.4679105649 9.292571330231175 0.22400105660118197
0.5353275836585893 13.105862197880754 61280.62187035076 9.754776193625238 0.2272068761380464
0.5546323321821072 13.079830295196482 52305.53214514084 10.236758300441346 0.23045108347688553
0.5743157487565961 13.057865766624863 44332.194354418665 10.73899334806775 0.23373043329189697
0.5943724522701962 13.039529260758 38331.922802412926 11.262716967075505 0.23705100020231415
0.6148077567632252 13.024513377559586 32904.1143038503 11.808870942736032 0.24041445436178308
0.6356116785231231 13.012438568863596 28294.46473463918 12.378434171691936 0.24382242852572913
0.6567800913071842 13.00303934073426 24373.40245692774 12.972101972400928 0.2472729450545604
0.6783127793178005 12.995991265594178 21030.464050318285 13.591188460769832 0.2507706482504974
0.700199264161411 12.991066632100807 18174.68414826341 14.23689720152669 0.25431824361855054
0.7224329739151013 12.987990889270106 15731.6141103672 14.910417740743119 0.25791771550839193
0.7450190066637418 12.98664840941106 13635.402365934066 15.612787020032505 0.26156903418140814
0.7679394927647336 12.986758656228172 11837.915636112604 16.345256592893985 0.265273949475968
0.7911824853301237 12.988135394292566 10290.080741750355 17.10944927431392 0.26903722257212465
0.8147547164924688 12.990662187768635 8957.17114852886 17.90681992264146 0.27286128567926926
0.8386374366049534 12.994132632062152 7808.454647867483 18.738740372809858 0.27674727926441595
0.8628180556352122 12.998401077162578 6815.635491292127 19.606541852580136 0.28069556708564686
0.8872928869075246 13.003349402265972 5956.256825925176 20.512316211616508 0.28471256613761836
0.912051242232498 13.008839433316545 5211.764899121123 21.457857320939045 0.28880128925816634
0.9370712571060053 13.014733334249348 4565.945142978892 22.44465746712715 0.29296172483504135
0.9623483691926258 13.020932824002463 4004.908876272324 23.47472539806484 0.2971975401777458
0.98787365701064 13.027322455213522 3517.0845394765965 24.55049101852543 0.30151489933109993
1.0136145869784334 13.03377877512697 3092.315280759758 25.673905993450706 0.3059155047068063
1.039576621185035 13.040234963594834 2721.8413472708803 26.846912350498556 0.31040047540825766
1.0657272542861291 13.046568444227102 2398.6947520754234 28.072615557960578 0.314978614332874
1.0920582259136797 13.052702460867218 2116.1447129551257 29.353080621186482 0.3196504374164638
1.1185561452166723 13.058527442821601 1868.9095722612094 30.69104251207182 0.3244204891692012
1.1451842114966162 13.063986499370259 1652.3597327521338 32.08992231579538 0.32929697206125785
1.1719479932344947 13.069001626294101 1462.3054762442684 33.5516363410666 0.3342774241766108
1.1988028011794454 13.073458328549956 1295.6272488611983 35.08073803344655 0.3393754887412396
1.2257469734552553 13.077323710168907 1149.250258738184 36.67926443399248 0.3445880129622357
1.2527414745321694 13.080488454502294 1020.3323440579827 38.352248318039074 0.34992931629536034
1.2797824461708383 13.082933745105082 906.8658103542805 40.10193104448956 0.35539599385115944
1.3068252613360838 13.084519936500719 806.8684114684531 41.93379789379828 0.36100268847982814
1.3338617637748333 13.085237455749988 718.732119358922 43.85129875403702 0.3667511438020339
1.3608695998617037 13.085032636791746 640.7316766058476 45.859165576500054 0.3726493583627869
1.3878000319945263 13.083775562795822 571.8964717153923 47.9627085542036 0.378707165205836
1.4146562775497462 13.08148990420099 510.9112955287993 50.166655929019875 0.3849300748879498
1.4413791209243652 13.07803751849417 456.9608037868517 52.47627931445074 0.3913253314581757
1.4679734372038822 13.073441207983846 409.0834008061142 54.897967092982746 0.397904486547009
1.494381272268987 13.06757997520064 366.599851199986 57.437907231280406 0.4046765979892454
1.520592793317031 13.06043704925388 328.88925287896103 60.10272563488891 0.41165143344522914
1.5465756907758414 13.051954791117232 295.3421440511062 62.899525570477934 0.41883952884166104
1.5722914302309259 13.04207832758248 265.5078612792705 65.83593086225353 0.4262522515830464
1.5977155866606745 13.030752678949252 238.96287415275089 68.92013324564684 0.433901869092183
1.622802014530904 13.01793668047571 215.26245392056856 72.16094430901073 0.44180162330646583
1.6475546808997614 13.00359916840074 194.1309270411382 75.56785250805405 0.4499658118325406
1.6719035559509259 12.987669205607995 175.26618656156325 79.15082181484163 0.45840877414030523
1.695840853644509 12.970126492722981 158.39246420565587 82.91998291883966 0.4671435334432176
1.7193214951410918 12.950918975774213 143.30279476816773 86.88809749838619 0.4761917533505855
1.7423076850581884 12.929983007299484 129.8001806367006 91.06677980491251 0.48556793012526805
1.7647876598328114 12.907341261957699 117.69892479003204 95.47003552866505 0.49529366020244264
1.7867155589860724 12.88290893306872 106.8477313592666 100.1116119196312 0.5053867879324409
1.8080545360659126 12.856659771710403 97.10280906104205 105.00798817304621 0.5158728438688848
1.8287663528576958 12.828530481075607 88.34970699248768 110.17569977663337 0.5267743573204271
1.8488467640964739 12.798570691025462 80.48007843006016 115.63232873191392 0.5381145358078803
1.8682333604990753 12.76667030861651 73.39124006220736 121.39816316143055 0.549923019867142
1.8869042919859196 12.732826782992532 67.02273150062067 127.49457597372006 0.562229439514742
1.904827760392921 12.697019188832465 61.267100072984206 133.94404553598295 0.5750632426167799
1.921972210224204 12.659208732421211 56.085358597815464 140.77214698666347 0.5884603622745483
1.9382872105271534 12.619327800697102 51.400919800805696 148.0066023681512 0.6024592452018586
1.9537857372390004 12.577492900920316 47.1707402761202 155.67596789069574 0.6170958740460716
1.9684047873239972 12.53357268542948 43.34770371156564 163.81381241160946 0.6324176031454937
1.9821221702314713 12.487581233018293 39.88732543394222 172.45383280822475 0.6484657644660261
1.9949149389278844 12.43951383833732 36.752267316929974 181.6354314559485 0.6652939358815965
2.0067534333717854 12.389361124618892 33.909336774128484 191.4005322325233 0.6829563023101695
2.017602962577119 12.337098301654496 31.332713635110782 201.79515059686926 0.7015120727371066
2.0274429397325013 12.282721345269564 28.997430877426908 212.86928417337555 0.7210241216168347
2.036255325380407 12.2262652196864 26.87365489568787 224.6782588715597 0.7415622977145407
2.0440045812757095 12.167680230353238 24.946330150518882 237.2833528310322 0.7632041602510548
2.050667759279044 12.106985471698945 23.1918326041453 250.7513339687796 0.7860320413592379
2.056244096901762 12.044249385362983 21.59718811074711 265.1552169654904 0.8101338873951383
2.0606942739531933 11.979413337611387 20.145163019493232 280.5768860235245 0.8356099311420466
2.064004122410831 11.912523855920936 18.824596349524715 297.10584374427816 0.8625664815817029
2.0661700123609967 11.843634584681455 17.621575405770436 314.84250189396454 0.891124227555222
2.0671675492116446 11.772753725826375 16.526778182927462 333.8962839717487 0.9214091922246357
