M[M_sun], R[km], Lambda[1], P_c[MeV/fm^3], rho_c[fm^-3]
0.24162668629717493 15.618656898711224 2160425.4255784233 3.5677272577965504 0.1711233750220791
0.253644946110603 15.277275274808462 1723282.9142013378 3.7848376504965158 0.17388839796903166
0.2660412180792037 14.981255099430522 1382927.147547199 4.011439419582948 0.17666711954542197
0.2788174497637815 14.723469941050874 1116367.6048916895 4.24778809649171 0.17945820875816307
0.29197343511273444 14.49835568499548 905851.1957214617 4.494509098995654 0.18226823609300627
0.3055102576625011 14.30117120268767 738569.7215309332 4.7517587262004835 0.18509292139931885
0.3194279895014547 14.128063948250796 605033.9125029288 5.020218175309393 0.18793885950139688
0.33372535356232413 13.975959458983404 497657.6138378896 5.3001129587884686 0.190802701856499
0.34840962619853333 13.84195548764702 410965.337191542 5.5921700803774606 0.19369071233104843
0.3634748933828313 13.723870358598194 340626.5478454928 5.896558876304598 0.196597991802701
0.37892744125843625 13.619963924175998 283257.6229357991 6.214142622318678 0.19953220391469256
0.39476251487548664 13.528380013234555 236361.25129517162 6.5451767002286685 0.2024894906539399
0.4109887169942362 13.447799230204494 197829.6246009309 6.890367638019519 0.20547363275380212
0.42759884752300253 13.377021319672004 166059.77318516004 7.250418821748046 0.20848767150550684
0.44459507535821147 13.31486766478694 139779.25203956646 7.62558642106803 0.2115271083749246
0.461978197674385 13.260513100316492 117958.46170032107 8.016825101494144 0.21459819226140084
0.47974456462004966 13.213106438852142 99794.41961559156 8.424837453824821 0.21770252938487758
0.49790314945289055 13.171938565425513 84625.38183263317 8.850060675189487 0.22083753399010705
0.5164441100480704 13.136358691368356 71926.04819536803 9.29337547651901 0.22400671784118104
0.5353630360213014 13.105811865442252 61260.59863280847 9.755663473655892 0.22721295092680094
0.5546726265235737 13.079788925849844 52294.63326393181 10.237734141903198 0.2304575799910158
0.5743572461185029 13.05783583391092 44718.92378489094 10.740054222317035 0.2337372444331951
0.5944155449492492 13.039526360695373 38319.885381017324 11.26387847256277 0.23705825730961752
0.6148552435174242 13.024476752635106 32893.421486938954 11.810139941648933 0.24042217199245144
0.6356615347556027 13.012413907778983 28284.07064951073 12.37981795435676 0.24383062200556835
0.6568337961543786 13.002999825584826 24364.60360405221 12.973594184231239 0.2472814739254722
0.6783673116797121 12.99596759573833 21022.200462932065 13.592810292727261 0.2507796781763216
0.7002579451663337 12.991050246874943 18167.14506196236 14.238657350344896 0.2543277925117934
0.7224949287339973 12.98799334081653 15724.62353316116 14.912325461968063 0.25792780234962914
0.7450844128150385 12.986639916833504 13630.043868884422 15.614833549346125 0.26157949468174285
0.7680074312258122 12.986761645580492 11832.858012078166 16.34746964626539 0.2652849809919715
0.7912543663488683 12.988150255288673 10286.896792857206 17.111839959560285 0.2690488476649238
0.8148317120362877 12.990665014760472 8953.383533383349 17.90940008405444 0.27287352836068346
0.8387161265288159 12.99414237255082 7805.293004298039 18.74149856599199 0.2767599517349604
0.8628991585257073 12.998419871105192 6811.953720388659 19.60951394304017 0.28070890098114165
0.8873822039189208 13.00336379464753 5953.2597308451595 20.515516505207767 0.28472659032034864
0.9121405484316586 13.008856760595513 5209.4637094373265 21.46130110319857 0.2888160345365271
0.9371635099470285 13.014748534969268 4563.633959305855 22.448330391943028 0.2929769800736802
0.9624477382141147 13.02096721013358 4003.1104159702 23.47867356112314 0.2972135748410391
0.9879707138465291 13.027354361356744 3515.2886903959984 24.55473300509914 0.3015317507299917
1.0137159485547182 13.033808098665116 3090.6587516850714 25.678425382630255 0.3059329459000354
1.0396826404476691 13.040265723528947 2720.4168116757214 26.851764396568285 0.31041880556460333
1.065836341580327 13.046594369417246 2397.298628155734 28.07782297518012 0.31499787883352764
1.0921709282544432 13.052724004191138 2114.842634737129 29.35862495260605 0.3196703936053374
1.118670275685358 13.058551684513121 1867.6733895625794 30.696989956117076 0.3244414691634556
1.1453037415175944 13.064017766928464 1651.4379395069263 32.09625346019407 0.32931872524981914
1.1720686670412892 13.069019142648889 1461.4559106213007 33.55842545478363 0.33430030418982415
1.1989274167499577 13.073482295180723 1294.8667132784387 35.08801716239658 0.339399558847301
1.225875013569822 13.077342237607901 1148.606640847422 36.68701245346912 0.3446130068736997
1.2528726916932433 13.080498809821723 1019.7475017361286 38.36050312946725 0.34995532744733127
1.279916913735829 13.082938839579993 906.3093380095422 40.11077349485935 0.35542334943853177
1.3069615102660685 13.084523430692851 806.4546252623717 41.94321328662405 0.36103115263876623
1.334001476665351 13.085238550581293 718.2888579072345 43.861392659691866 0.3667811481098237
1.3610101734171343 13.085029647369542 640.3393591574927 45.86991684349741 0.37268062158676596
1.3879441122772318 13.083767906792623 571.5569422155587 47.974163107879534 0.3787397685632081
1.4147940462706088 13.08145593939704 510.60560643134346 50.17893938239736 0.38496449447797804
1.4415260096009013 13.078017857673595 456.6859104344997 52.4893721665143 0.39136127952447447
1.4681220265013972 13.07341281408858 408.8352781108422 54.91192732204573 0.3979420649729541
1.494532888015008 13.067541617182869 366.3707219868271 57.45279751220278 0.4047159165347039
1.520744875209326 13.0603931426614 328.7061502409847 60.11861375959534 0.4116926103934319
1.5467310877501248 13.051899255228363 295.1624374884211 62.91648491043735 0.41888269171018505
1.5724456878815132 13.042013092162675 265.3394514707065 65.8540408775942 0.4262975379057884
1.5978605677342936 13.030671157765001 238.81558516266912 68.9394800461489 0.43394942728001235
1.622957633693042 13.017851521280882 215.13557118400396 72.18162127286182 0.44185161359516006
1.6477100325189222 13.003503737002251 194.00907005815557 75.58996096498483 0.45001840732764575
1.6720592972625592 12.987561725142301 175.14804829197186 79.17435634740802 0.45846367993553006
1.6959943729105136 12.970002970244709 158.28578302028987 82.94517316361629 0.46720142055234837
1.7194754823132787 12.950785189087101 143.21274989489612 86.91507313950518 0.47625283990545203
1.7424559879508907 12.92982838949754 129.72023600000705 91.09555207035352 0.4856319378251841
1.7649391187917574 12.907178709293104 117.61977696652434 95.50088161761128 0.4953613434091877
1.7868641555716247 12.882740766222133 106.76939650243635 100.14455869144288 0.5054578856366553
1.8082017146479372 12.856470024017362 97.03954806863811 105.04320648800437 0.5159476300345189
1.82891544217869 12.828336129619059 88.28927571142445 110.21337600280786 0.5268531282871893
1.8489883910208333 12.798344937313294 80.42613833411494 115.67282026757097 0.5381981773479929
1.8683619084890277 12.766399737093135 73.35176505935328 121.44154368317042 0.5500113267122166
1.8870378249110598 12.732570921426554 66.97427326141836 127.54098708235836 0.5623224266088865
1.904959945438224 12.696743132731168 61.22725384432294 133.99378672144607 0.5751614471613851
1.9220991443359354 12.658913489020492 56.04633808486771 140.82557291623937 0.5885644563022163
1.9384095232917973 12.619014096996482 51.365719547494365 148.06403301239519 0.6025697159034147
1.953903840319406 12.577157500824558 47.141391257846955 155.7375655022886 0.6172126076860478
1.9685167702053592 12.533217927250917 43.32131387722424 163.87995030422937 0.6325411492785519
1.9822285205603576 12.487205088543226 39.86049322018465 172.5251200121822 0.6485973884937519
1.9950122095041114 12.439112228337045 36.72667085975527 181.71212641411168 0.6654336368113265
2.006845861055406 12.388942672577294 33.886409080677936 191.4831330399891 0.6831047947723985
2.017688648566648 12.33665530671794 31.313061870875707 201.88420671370187 0.7016701385598229
2.0275220945644254 12.282260005476198 28.978538449684127 212.96517777258313 0.7211918817315166
2.0363265416301517 12.225777338484242 26.85725792576634 224.78187762988796 0.7417414052051239
2.0440660754701665 12.167171394791241 24.93128096934225 237.39520159836061 0.7633948726739526
2.0507212923076072 12.106448448902023 23.17704813367044 250.8722209068511 0.7862354480313276
2.056289008285599 12.043686935202741 21.584226680255885 265.28625915161956 0.810351903915599
2.0607297567760257 11.978824660890991 20.13294391231817 280.71863851323803 0.8358424382177799
2.064029065959855 11.911915178889403 18.813183390604312 297.2596353960068 0.8628156516140628
2.066184996185538 11.842999349619815 17.611210112982185 315.0095677969827 0.89139166720662
2.0671709053144047 11.772095076841357 16.51674100609556 334.0777261242084 0.921695765610949
