M[M_sun], R[km], Lambda[1], P_c[MeV/fm^3], rho_c[fm^-3]
0.24162668629717493 15.618656898711224 2160425.4255784233 3.5677272577965504 0.1711233750220791
0.25364189237426343 15.277339517615594 1723171.2898740214 3.784802488406884 0.17388795969054716
0.26603788631364744 14.981292518035415 1383058.344845986 4.01136550175816 0.17666622629213272
0.27881139953021394 14.723608288444622 1116485.6105973057 4.2476729220792375 0.17945687290854254
0.2919656877125181 14.498485742299488 905999.349555902 4.494349645630668 0.18226646054277995
0.30549960777329654 14.301279229442194 738696.7710457203 4.751549579589043 0.185090662216753
0.3194143431314958 14.128229082202779 605156.98567643 5.01995779472367 0.18793615795232232
0.333710807045415 13.976037100285653 497722.5329413155 5.299794488997118 0.19079949539413704
0.34839079932078826 13.842108040340403 411041.50841976755 5.591792726137543 0.19368706132497066
0.3634515594101787 13.724071699959236 340699.07547062665 5.896114159691891 0.19659381493016237
0.37890421965475696 13.620069255117011 283347.4108922897 6.2136251615051945 0.19952748529513695
0.3947341603783672 13.528543153211846 236449.51145817412 6.544587032368953 0.20248432006341244
0.4109573591968758 13.447947766685978 197902.54780455 6.88969437945145 0.20546789900131446
0.42756428820413017 13.377135989787025 166112.82454506587 7.2496556545600725 0.20848135801894374
0.44455512607598124 13.315035712664741 139836.73200677315 7.624735454480325 0.21152033413371674
0.46193651024637733 13.260648403951631 118007.82303180255 8.01587149242352 0.21459081532427973
0.4796986937563995 13.213217244021038 99831.66853387664 8.42377376601968 0.2176945319395912
0.49785371952265045 13.172054501748011 84664.24138372061 8.848890830552861 0.22082906381510173
0.5163898375365621 13.136464792144078 71957.49518712546 9.29208054307661 0.22399760142901684
0.535307360888138 13.105886886552193 61294.471991799066 9.754234671246696 0.2272031685891984
0.5546107437010281 13.07984677726109 52313.39612795228 10.236162513268617 0.23044711576673246
0.5742909346942601 13.057875056995886 44742.41339657027 10.738345884829107 0.23372627637734586
0.5943446962701843 13.039557437576766 38337.268477362886 11.26200809139523 0.23704657113423577
0.614779283697963 13.024532283839282 32911.00241152249 11.808096467264296 0.2404097442587311
0.6355781679221353 13.012464413417577 28303.27381656575 12.377589647855677 0.24381742803742848
0.6567488207465585 13.003033178222951 24378.480471624374 12.971191278364241 0.24726773990089437
0.6782784396354782 12.995986243305762 21035.019017409675 13.590198665242706 0.25076513733418443
0.7001636861454609 12.991058349834956 18042.58902518203 14.23582299783973 0.25431241601112226
0.7223945109484604 12.988013393516127 15735.092165043316 14.909253481282327 0.2579115596297518
0.744979637068355 12.98664856207213 13639.205220656477 15.61153805333239 0.2615626502921095
0.7678967399165724 12.986762236310902 11839.851786521784 16.343906006435866 0.26526721714121304
0.7911392117126577 12.988125338036943 10292.93428675791 17.10799029037645 0.26903012802729015
0.8147112924501503 12.990658139019871 8959.90076947435 17.905245314173328 0.27285381427467786
0.8385902172648758 12.994114976847552 7809.977195064197 18.73705712358223 0.27673954560515157
0.8627672177820896 12.99838422841304 6817.151715740817 19.60472807782833 0.2806874298222234
0.8872394960462633 13.003337525928146 5958.091748351705 20.510363182479313 0.28470400766111725
0.9119982161241474 13.008830240721705 5213.383168811713 21.455755710856973 0.2887922907723938
0.937014412254342 13.014719077695409 4567.236607555677 22.442416030230937 0.2929524151822551
0.9622913840376789 13.020909995101656 4006.4705910620005 23.47231600813088 0.2971877549293245
0.9878121977353508 13.027314796715256 3498.7970489533036 24.54790233586591 0.301504615723799
1.0135525691171154 13.033763998863845 3093.553977338564 25.6711480379546 0.3059048612253946
1.0395128239095124 13.040222131252435 2722.6669929643726 26.843951408454725 0.31038928950239153
1.0656602432943436 13.046547320925225 2399.3356961080594 28.069437770693483 0.3149668583159652
1.0919869623342384 13.052679036062466 2116.5680410275895 29.34969725062294 0.31963825935983514
1.1184848996247072 13.058516176591661 1869.466573832129 30.6874131678794 0.3244076864223868
1.1451128830863062 13.063968659537696 1652.8777076829767 32.086058842580044 0.32928369754782677
1.1718731349748848 13.068987381244314 1462.8600066859103 33.54749342509736 0.33426346212264196
1.198725251889715 13.073444291854036 1296.0463959384108 35.076296123227024 0.33936080054834816
1.2256686765539482 13.077320876630239 1149.6093582014314 36.674536418608184 0.344572761116487
1.2526619264976688 13.080486510647676 1020.6932572848247 38.347179804773994 0.34991326035646514
1.2797018495579158 13.082929361855177 907.1636075683056 40.096535244866864 0.355379301049747
1.3067431923822623 13.084514250381439 807.1608756340518 41.92805250611114 0.36098531930242755
1.3337782425370845 13.085232839472395 718.915079148148 43.84513937003035 0.36673283492736725
1.3607833458933842 13.085036203859447 640.9710011263358 45.852605100955635 0.37263028139107696
1.3877130428853048 13.083782469771844 572.1208092861372 47.955718968484476 0.37868727058859203
1.4145675477677666 13.081500943837412 511.0923200450551 50.1591605990136 0.38490907214726977
1.4412891119125881 13.07805113243334 457.10788241366186 52.468290137601784 0.39130339617183435
1.4678819796682692 13.073460671705961 409.235024532358 54.88944869818442 0.3978815565602118
1.4942893975525362 13.06760108454346 366.7350033714378 57.428821382520695 0.4046526063426572
1.5204999715412477 13.060467219056523 329.0272604180028 60.09303097476778 0.4116263079804542
1.5464822199515087 13.051987955967746 295.4531876861265 62.88917733813371 0.418813191767624
1.5721975676477786 13.042116502223845 265.61040096624953 65.82488058285014 0.4262246189990846
1.5976217200229768 13.030797345063402 239.05450180972167 68.90832838822539 0.4338728504631601
1.6227012618160417 13.017960429072915 215.3588977189448 72.14832790911474 0.4417711208846584
1.6474602529459668 13.003659930227654 194.20976629973345 75.55436275109668 0.44993372002042353
1.671808401611515 12.987737448251384 175.33145406815763 79.13646200386296 0.4583752728655789
1.6957460656364762 12.970199446856304 158.45415433666818 82.90461297076904 0.46710821334731584
1.7192124530901922 12.950967612263454 143.37318247011177 86.87163830392653 0.4761544813732121
1.742214579732315 12.930075839172018 129.856768842461 91.04922451263059 0.48552887606181155
1.7646954053803985 12.907438328705068 117.74850881770563 95.45121504695163 0.4952523638631541
1.7866238348827124 12.883017498403497 106.88390661398974 100.09150986172462 0.5053434085635815
1.8079650690217168 12.856774561494355 97.14369113453145 104.98650031388051 0.5158272143549061
1.828676893502167 12.828658579043577 88.38288196982279 110.15268172467547 0.526726182608878
1.8487589094112342 12.798706560089684 80.51224252934882 115.60762390030811 0.5380635041507646
1.8681483621168882 12.76681722695952 73.4274582933419 121.37169589812319 0.5498691422182181
1.8868217980583535 12.732984876520922 67.0484882034951 127.46619770340587 0.5621724845526557
1.9047479744106415 12.69718653509796 61.29302519085921 133.9136979785379 0.5750033271155504
1.9218946418150678 12.659390706851802 56.10679981245569 140.73955161280753 0.5883968540908827
1.9382126587216986 12.619520142311055 51.422704209173155 147.9715640125802 0.6023918471816508
1.953715593114592 12.577703751990446 47.19364416320016 155.63838758159176 0.6170246555984775
1.9683366956224266 12.533789700487418 43.36440885130014 163.77344914951914 0.6323421840651352
1.9820601148206554 12.487816070598523 39.90137329946394 172.4103417359179 0.648385462956227
1.994853902486209 12.439757452359734 36.76787949695076 181.58864163659211 0.6652087075768612
2.0066911727091017 12.389605133150559 33.92664150035081 191.35013987078477 0.6828657113571066
2.0175506730108905 12.337367878055321 31.344688532779557 201.74082057434256 0.7014156423063365
2.027394396293761 12.28300578158875 29.007952138667633 212.81078339161718 0.720921777999139
2.03621361552509 12.226562360208192 26.884818836660013 224.61504595714868 0.7414530326870953
2.043966251390164 12.16799325984735 24.955845314709645 237.21511987379282 0.7630878167909755
2.0506350799895405 12.107312954373002 23.200286941377577 250.67745399216574 0.7859075184275095
2.0562109182465718 12.044569336531936 21.60520882101913 265.0752595976908 0.8100008336896944
2.0606750890573857 11.979766365987519 20.1535428705204 280.49041328290895 0.8354680957210832
2.063996081381956 11.912909028958104 18.83210122202479 297.01202792572826 0.8624144831456291
2.066161111503173 11.84402077846218 17.627987181280893 314.7405898031885 0.8909610863424552
2.0671646629041427 11.77315634272792 16.531851419043715 333.78560356788836 0.9212343813678266
