M[M_sun], R[km], Lambda[1], P_c[MeV/fm^3], rho_c[fm^-3]
0.24162668629717493 15.618656898711224 2160425.4255784233 3.5677272577965504 0.1711233750220791
0.25364029536503524 15.277406105339423 1723263.1501245298 3.7847688741245005 0.1738875407047333
0.26603402226443423 14.981390539329244 1383152.1679972955 4.011294838648279 0.1766653723701523
0.2788056225975547 14.723706389831033 1116648.7536271513 4.247562820343334 0.17945559589432583
0.29195737003408284 14.498599837833844 906129.3846433087 4.49419721698914 0.18226476321447968
0.30548887333809166 14.301458191169782 738809.493343507 4.751349649398968 0.18508850258912765
0.3194010712593638 14.12838906935228 605223.2948445699 5.019708891172539 0.1879335754819114
0.33369545992272587 13.976212029544095 497846.5906336657 5.29949006034372 0.19079643030273583
0.34837192024976443 13.842275879702159 411151.7239563106 5.591432013249505 0.19368357132855019
0.3634301260094295 13.72424218733187 340780.011608337 5.895689060100116 0.19658982230483577
0.3788787837142043 13.620259657869932 283423.5933191494 6.213130532307949 0.1995229748724304
0.39470733493375115 13.528684328658864 236520.91990550165 6.544023388063786 0.2024793776643023
0.4109274348345611 13.448080487188188 197961.7842410091 6.889050840850965 0.20546241835654222
0.42753085936325697 13.377265752430812 166168.7515463507 7.2489261844890285 0.20847532329999316
0.4445207067038918 13.315130420757537 139883.85500046192 7.623922069988587 0.211513859070158
0.461896365073424 13.26075607841113 118048.13076444206 8.014960008717154 0.21458376426090808
0.4796553559662448 13.213320331203336 99874.34344321149 8.422757077556522 0.21768688786365267
0.4978058702398181 13.172145458979156 84696.6712026187 8.847772686734375 0.2208209679761098
0.5163380351985585 13.136547957322154 71988.69087838016 9.290842852259404 0.22398888800850267
0.5352500176193635 13.105977874569529 61317.99876201486 9.752869044061466 0.22719381878261974
0.5545514690596717 13.079926587344422 52339.892757613416 10.23466005068371 0.23043710995202954
0.5742263866871977 13.057947561882594 44764.423169662165 10.736713115396258 0.2337157934918183
0.5942767199966764 13.039629446547803 38357.03880994736 11.260220465552374 0.23703540201562018
0.6147078434782851 13.024576896254263 32929.20678384061 11.806143427794034 0.24039786652017753
0.635502351735058 13.012487400095626 28317.563485278286 12.375459979039764 0.24380481811034171
0.6566675151311394 13.003080950648119 24393.093110159796 12.968894759766235 0.24725461394231993
0.6781913618433554 12.99602540312666 21046.6515157388 13.587702692818564 0.2507512404284379
0.7000724702759741 12.991092294544842 18189.786612739375 14.233114192768593 0.25429772061140804
0.7222987756895315 12.988022189967513 15744.234250896421 14.906317605303027 0.2578960365467624
0.7448794977759042 12.986657408581147 13647.73628416145 15.608388592919068 0.2615465523395963
0.7677919654302242 12.986750670044966 11847.761595687747 16.3405003212544 0.2652502406547588
0.7910284043713841 12.988128581720503 10300.02821375405 17.104311293458633 0.2690122383110917
0.8145954192533418 12.990646441002475 8966.529776736275 17.90127478593331 0.2728349744020854
0.8384680716552313 12.99410703305007 7815.174936083468 18.732812672726297 0.2767200445496064
0.8626420772280331 12.998366829971387 6821.886816707121 19.600154530112533 0.2806669111980082
0.8871078361198336 13.003312924783812 5962.1378461641625 20.505438532771404 0.2846824270825182
0.9118612900223131 13.008795710182023 5216.953131723239 21.45045644747056 0.2887696008611709
0.9368730908694686 13.014681260489173 4570.453626471882 22.436764224375093 0.2929289407983802
0.962143174134379 13.020879669952487 4009.4363884504182 23.466240753052837 0.2971630815133184
0.9876592397344871 13.027273400434282 3520.873886954379 24.54137504566351 0.30147868589847504
1.0134001570651276 13.033738411404475 3095.9240312186753 25.664193974090015 0.30587802415366405
1.0393503137103108 13.04018501357663 2724.8250765952084 26.836485580764805 0.31036108494974723
1.0654957800812594 13.046519848999203 2401.383418860055 28.061425244196688 0.31493721649634
1.0918165310382708 13.052634451872548 2118.577338228779 29.341166416994717 0.3196075535967321
1.1183074912078723 13.0584765457336 1871.0564998603695 30.678262209002796 0.3243754058219822
1.144932001733945 13.063939563570653 1654.1519684097282 32.07630989041366 0.3292501776712775
1.171685661026898 13.068952519979334 1464.0748804193447 33.537047708698466 0.33422825898137926
1.198533717202272 13.073415129508165 1297.1480178386985 35.065096631645915 0.33932376686587845
1.2254720417782468 13.077293775770183 1150.585757157054 36.662615643506214 0.34453430654130435
1.2524605460032163 13.080465583174611 1021.5857328572147 38.334400637971164 0.3498727787575057
1.2794969769104445 13.082906682943495 908.021085332066 40.08293098997037 0.3553372140299852
1.3065331411548236 13.084508724493265 807.9665024712156 41.91356694797545 0.3609415272656309
1.3335638454418774 13.085225883522916 719.5918712889435 43.8296101599839 0.3666866740839932
1.3605667493151559 13.085040616801896 641.5600110711675 45.83606476806353 0.3725821843498611
1.3874918761874184 13.083798210775486 572.638908026352 47.938096889480015 0.37863711246321446
1.4143423207915364 13.08152338122123 511.5772815812561 50.140263615629436 0.3848561207173367
1.4410688233441953 13.07810477438476 457.5505000410663 52.448148238479284 0.3912480940633614
1.467651909421907 13.073506013260896 409.629440554503 54.867972730733186 0.39782374711820156
1.49405760686293 13.06765900646904 367.104077974132 57.40591497432136 0.40459212080468976
1.520266133776954 13.060534415974367 329.33767270577175 60.06858988732448 0.41156296448269925
1.5462466768389622 13.052069916176277 295.74990284488894 62.86308875616147 0.41874679425237044
1.5719604671424607 13.042213665082746 265.8758909684702 65.79702233191595 0.42615495601321174
1.597376744940682 13.030902223996765 239.27280154225207 68.87856807269534 0.4337996938357535
1.6224693780710266 13.018113366284448 215.57907374782948 72.11652196136723 0.4416942242705548
1.6472209795923693 13.003805794873507 194.4075996325027 75.5203553818401 0.4498528172948795
1.6715704113421306 12.987901944737544 175.50833799090432 79.100261531626 0.4582908175780104
1.695509613359417 12.97038435323194 158.6263727523298 82.86586635905415 0.4670191737464435
1.7189819977369427 12.951199775526826 143.50934130167064 86.83014618435493 0.47606052213689365
1.741988129544005 12.930320696627552 129.99325935935184 91.00496961107253 0.48543042519548857
1.7644679464545072 12.907693945228273 117.87151697741301 95.40377123873301 0.4951482615542348
1.7863940538202234 12.883290224603435 106.99225363277436 100.04083584230288 0.5052340562280996
1.8077356916460883 12.857066990988722 97.23692292435004 104.93233342679416 0.51571219085664
1.8284632175205278 12.828999785350383 88.4752747490606 110.09450641428812 0.5266041797661911
1.8485396063668285 12.799049257572008 80.59555685785833 115.54534895079904 0.5379348655945119
1.8679341511160132 12.767187187536784 73.5009389015512 121.30497897500861 0.5497333310117816
1.8866129824175464 12.733384850923837 67.11475862486787 127.39466440852827 0.5620289178006105
1.9045454748548358 12.697609287201695 61.356293267028526 133.8372014317972 0.5748522991803173
1.9216984331419285 12.659845987403033 56.16452651573265 140.65738997743466 0.5882367719806856
1.938028915260387 12.620032233818081 51.474194583377006 147.88324551273152 0.6022219621530726
1.95352556462033 12.578187929403336 47.2382883046947 155.5436628081627 0.616845142670746
1.9681637924328972 12.534335860784749 43.40870703696453 163.6714468000461 0.6321511913948672
1.9818964252106566 12.488394166093679 39.94308341337018 172.30072099160182 0.6481830602375316
1.9946981836287079 12.4403682538032 36.803474572763626 181.47070772948703 0.6649938893298232
2.006548150312854 12.390248780907084 33.95921983877444 191.2231273559442 0.6826373794358918
2.01741870606694 12.33804788567822 31.3769259397353 201.60388510231164 0.701172595351052
2.0272738264730084 12.283721639902996 29.037891444557975 212.66333762679517 0.7206638304549828
2.03610433850454 12.22731580976665 26.91175166577545 224.45572596323993 0.7411776442847529
2.043871192187012 12.168784301120805 24.980070155348198 237.04314985480704 0.7627945921111696
2.0505537765727664 12.10814355751348 23.223135375826036 250.49121910732308 0.7855935685079936
2.056143936493312 12.04542947594092 21.626805409884096 264.8737461707835 0.8096655036396374
2.0606199093733832 11.980670013891089 20.171686268248884 280.2721804758181 0.8351096521916713
2.063957879837179 11.913848292725323 18.8488858267795 296.775594783505 0.8620314190908733
2.066138287181203 11.844998997598875 17.644132877357613 314.48375684244775 0.8905499472874647
2.0671586507652124 11.77417448583379 16.547256433032818 333.50667779050775 0.9207938403828878
