M[M_sun], R[km], Lambda[1], P_c[MeV/fm^3], rho_c[fm^-3]
0.24162668629717493 15.618656898711224 2160425.4255784233 3.5677272577965504 0.1711233750220791
0.2536448595411398 15.277248835748924 1723227.7807907665 3.7848367283275985 0.17388838647464097
0.26604107197813526 14.981259882150342 1383026.7656792211 4.011437480984914 0.17666709611860879
0.27881718781927817 14.723498391269025 1116500.5950118073 4.24778507586342 0.1794581737234269
0.2919730611254506 14.498359255787925 905850.9426782945 4.494504917057619 0.18226818952615567
0.305509963359427 14.301162405778772 738604.5483100347 4.751753240938211 0.1850928621480175
0.31942844149756194 14.12805197247289 605043.6014794626 5.020211346300478 0.18793878864779362
0.3337248947638547 13.975982916746457 497656.1829390745 5.300104606222429 0.1908026177600184
0.3484091294332015 13.841958939993974 410961.34211485577 5.592160183383006 0.19369061657490452
0.36347328619108266 13.723911612081173 340630.4659252999 5.896547212506852 0.19659788225384422
0.37892759876555054 13.619972105616078 283275.27681457286 6.214129050544969 0.1995320801564578
0.39476149643707936 13.528396408927497 236386.918921497 6.545161234553031 0.20248935504085766
0.4109879219702854 13.44783136619074 197840.05265176398 6.890349979845346 0.2054734823693809
0.4275967735331325 13.377007807774666 166060.65304719214 7.250398805344502 0.2084875059149301
0.4445935310704124 13.314881732153417 139783.3717422993 7.625564101742752 0.2115269306987441
0.46197715281660995 13.26051511771696 117964.54453861757 8.016800089902015 0.21459799877651473
0.4797432190886045 13.213142380063454 99791.37750219485 8.424809554894964 0.21770231962392705
0.4979013760463396 13.171979137338072 84630.79015045485 8.850029991776758 0.2208373118290889
0.5164420680801528 13.1363648872177 71926.76852596749 9.293341512014049 0.22400647872894866
0.5353626201446458 13.105804206996671 61262.98521689743 9.755625997729537 0.22721269434677194
0.5546704399490593 13.079794622398145 52294.723176100015 10.237693266658322 0.23045730998715908
0.5743554755643926 13.057809975520914 44720.75250947334 10.740009414039452 0.23373695675017314
0.5944134886745673 13.039504046313057 38320.80171701323 11.263829413750091 0.23705795078926814
0.6148533897384482 13.024477158266714 32893.950924385266 11.810086342432498 0.2404218460197872
0.6356592267128497 13.012432191748145 28284.4112396142 12.379759506781479 0.2438302759331381
0.6568315223908816 13.003003633242967 24364.550688357518 12.973531156701142 0.24728111368595582
0.6783650012051664 12.995973486313625 21022.515115839673 13.592741790123442 0.2507792967721765
0.7002557045570154 12.991048295386374 18167.709523701862 14.238583005299397 0.25432738918629316
0.7224916775490876 12.988009607384763 15724.650782912553 14.912244883506027 0.2579273763009261
0.7450815889643758 12.986653938466628 13630.292092358339 15.614747107664645 0.26157905284920613
0.7680043963474015 12.986749321393582 11833.010202714231 16.347376170604683 0.2652845150392474
0.7912515115622869 12.988142463711226 10286.859249293071 17.111738980696202 0.2690483566389021
0.8148302442029093 12.990667132062175 8953.810971402994 17.909291101650233 0.2728730112469681
0.8387127706837701 12.994134115545554 7805.293448097027 18.741382063461884 0.27675941646611457
0.8628955553111136 12.998412424129091 6812.135170980847 19.60938840534924 0.28070833777269494
0.8873794213617252 13.0033629477217 5953.629414528803 20.515381328029008 0.28472599795299175
0.9121368735563659 13.008867348097098 5209.490748216146 21.461155640817235 0.2888154117087342
0.9371600098188669 13.014752036975539 4563.801495690963 22.448175250357583 0.2929763357038585
0.9624447870309965 13.020964428720765 4003.278637670116 23.47850679311769 0.29721289754661734
0.9879675053411924 13.027349388781545 3515.4281899460057 24.554553825557186 0.30153103893473204
1.0137114987415585 13.033807417660677 3090.6871315480885 25.67823448520494 0.30593220919010633
1.0396763882593818 13.04026825387625 2720.4543946247213 26.851559447124075 0.3104180313025083
1.065830789550969 13.046591110457166 2397.3345092675086 28.077603014163753 0.3149970651020817
1.0921655096860445 13.052722036904955 2114.915405266026 29.35839075969107 0.31966955065463865
1.1186657171859313 13.05855602031961 1867.7095645354564 30.696738734807386 0.32444058296400696
1.145298516751085 13.064006527630266 1651.446238019049 32.09598603052826 0.32931780638782815
1.1720626674949464 13.069018527942017 1461.4657914576258 33.55813867930115 0.33429933772688036
1.1989213040365398 13.073482053348595 1294.9125998128084 35.087709687303416 0.33939854211052456
1.2258697083927126 13.077346449193232 1148.6054638753963 36.68668517115843 0.3446119511116276
1.2528672102678438 13.080497058654942 1019.7591867330868 38.360154711508905 0.34995423031258205
1.279911846223094 13.082937878123875 906.3596724387512 40.11039998038987 0.3554221939095463
1.3069568389209663 13.084522124978685 806.5040604866543 41.94281556921258 0.36102995027877743
1.3339957915193128 13.085242279154382 718.3112181084174 43.8609662794229 0.36677988068715667
1.361005613668891 13.085032872354677 640.3582945415652 45.86946269392178 0.3726793009814916
1.3879378791142152 13.083765846638952 571.5778163589682 47.97367924882738 0.3787383913441526
1.4147883520956643 13.081463657864642 510.62051652288994 50.178420507146036 0.3849630405323426
1.4415196400109733 13.078019808617547 456.7028827177427 52.488819098905175 0.3913597610080364
1.468115704364315 13.07341410857641 408.84574277359604 54.9113376126776 0.397940477581392
1.4945257813592876 13.06754413112095 366.37337795038707 57.45216851324627 0.40471425563091074
1.5207381264872322 13.060394833712415 328.7127159128141 60.11794260702459 0.41169087098018126
1.5467246950144524 13.051899753006703 295.16660610404205 62.915768504488575 0.4188808684000886
1.572439097288726 13.042015280893487 265.3535028846187 65.85327586125375 0.4262956248882539
1.5978527294022769 13.030676829647234 238.8083171775983 68.9386627814493 0.43394741828487715
1.622950732915474 13.017854786889492 215.13959408379782 72.18074781473588 0.44184950185263383
1.6477035476518744 13.003508586179414 194.01021171396548 75.58902703240067 0.4500161855241607
1.6720519691871807 12.98756857585983 175.15645584776456 79.17336216931818 0.4584613605294206
1.6959887781927525 12.9700088812507 158.29968228712272 82.94410903808777 0.4671989751949831
1.7194688543676502 12.950790933032495 143.2167028777521 86.91393358747371 0.47625025938077103
1.7424510344633322 12.929846503278284 129.72116987015823 91.09433661753502 0.485629233890055
1.7649326160062113 12.90718526304314 117.6264254194685 95.49957855236437 0.4953584841930756
1.7868584452168872 12.882746297675629 106.77894912575184 100.14316687906637 0.5054548821659288
1.8081956604643323 12.856477502506142 97.04267952543857 105.04171870967555 0.5159444707341192
1.828909332267424 12.82834495186273 88.29260333006954 110.21178438444646 0.5268498006365785
1.848983200923347 12.798354134426507 80.42769698481634 115.67110970871298 0.5381946439236608
1.8683567499415596 12.766409733567846 73.35115940513903 121.4397110710377 0.5500075961854919
1.8870321871214928 12.732582176828895 66.97814222048333 127.53902909482358 0.5623185078518569
1.9049539555022323 12.696754579830754 61.227990635465865 133.9916853836281 0.5751572984680728
1.9220932888803608 12.658926735059197 56.049196833006626 140.8233159032849 0.5885600587826825
1.9384051320322777 12.619027662956453 51.36884761229323 148.06160680488154 0.6025650489725508
1.9538989214363107 12.577172952081668 47.14318128980437 155.73496324495525 0.6172076761479115
1.9685118461900204 12.533233881352324 43.32206501668739 163.87715622370249 0.6325359299129072
1.9822242533278562 12.487221161763399 39.862653730371655 172.5221083748537 0.6485918278347105
1.9950086550209085 12.439128410363026 36.7289755156016 181.70888630024413 0.6654277348989901
2.0068424802636495 12.388959888437437 33.88814684228604 191.47964340334133 0.6830985214107449
2.0176854728446614 12.336673060322981 31.314105198976662 201.88044433747277 0.701663460713144
2.0275183181985224 12.282280176152153 28.978844803492127 212.96112650887386 0.7211847942880366
2.0363232543676357 12.225798099719231 26.85816810426056 224.777499969912 0.7417338383156381
2.044063861630453 12.167192946913573 24.931894644160202 237.39047621025756 0.7633868154531552
2.0507189986643777 12.106471106952535 23.178303679340516 250.86711364163568 0.7862268544492788
2.056287138908388 12.04371093669202 21.58549939916273 265.2807321247531 0.810342723391701
2.060727715823744 11.978849276123402 20.1337601077149 280.7126496336808 0.8358326150614066
2.0640279748573396 11.911940910957192 18.813391210711924 297.2531378292893 0.8628051243917393
2.066184413717129 11.84302567848448 17.61197171955157 315.00250935201115 0.8913803680245098
2.0671712448582498 11.772121250581181 16.517193122992865 334.07006023430347 0.9216836579501911
