M[M_sun], R[km], Lambda[1], P_c[MeV/fm^3], rho_c[fm^-3]
0.24162668629717493 15.618656898711224 2160425.4255784233 3.5677272577965504 0.1711233750220791
0.25364407394203864 15.27733769049176 1723145.9836269193 3.7848539311569986 0.17388860089961053
0.2660431940534973 14.981182270067016 1382964.5863135536 4.011473645154456 0.17666753314125508
0.2788208983827711 14.723382159263746 1116328.2141293387 4.247841425263445 0.17945882729155047
0.2919777885565426 14.498266915155776 905736.5683809711 4.49458293075315 0.18226905822676143
0.3055150200540069 14.301109067550884 738517.2413001476 4.751855568333755 0.18509396747918416
0.31943484403493355 14.12795802016001 604977.8866082858 5.020338741598575 0.18794011042318146
0.3337346400216093 13.97578956341891 497565.7018603077 5.300260423951365 0.19080418658600043
0.34841837531185965 13.841880979250892 410915.81668745086 5.592344813025674 0.19369240291748718
0.36348390863652597 13.72382916155205 340554.1404986844 5.8967648026850705 0.19659992590684505
0.3789394256471692 13.61986387459484 283225.7218897298 6.2143822350443845 0.1995343888942385
0.3947750467003708 13.528313913880371 236353.30459886137 6.5454497509457985 0.20249188493985568
0.4110032810081329 13.447758758595093 197807.5881216887 6.890679398785012 0.20547628783930638
0.4276135684537757 13.376950058930566 166020.84942688394 7.2507722188170085 0.20849059506889048
0.4446124758093218 13.31483076641132 139755.1291071938 7.6259804780797475 0.2115302453221157
0.46192207345588177 13.260629954317775 118026.10995964325 7.957176435895217 0.2177430367408459
0.4763383397210292 13.21660461703805 102706.79983549117 8.463119146415611 0.3342996588316424
0.4878430960689783 13.174491516725553 91648.5767977135 8.958560009135905 0.42049637155812963
0.4973775086114558 13.130135819337324 82993.458579818 9.51092279659455 0.5053088880873415
0.5054682333274997 13.081774231371334 75865.39510557069 10.120724216196539 0.5888433928197302
0.5125332240914829 13.028697725729769 69739.4545724638 10.788432465040842 0.67173103725886
0.5188566279824577 12.970587336624403 64300.924354414456 11.514757475554411 0.7551017142277435
0.5246330119696376 12.907193726976189 59374.76287939331 12.30084074095696 0.8402713694565913
0.5300944341878614 12.839103623322575 54811.71008169946 13.148430335389092 0.9295529243506837
0.535326974173217 12.766479451123358 50563.2306148396 14.060542494777474 1.028215990412826
0.540347762796951 12.689798619077905 46616.896351136405 15.042260112088563 1.1437165896948769
0.5451111633439456 12.609736937328973 42977.07014394628 16.09965104763096 1.2802439516319397
0.5500737937172402 12.523135981995429 39422.64662034034 17.214470184191413 1.3004295902152436
0.5559470471292689 12.42965998292021 35769.14512338028 18.37353695743938 1.312532048085491
0.5629285534605056 12.33162077309553 32114.6205349114 19.576540680867293 1.3234210343385802
0.5710996679450141 12.231127438428182 28548.257601898757 20.81534533494479 1.3332895236075462
0.5805286175661536 12.130231055764252 25147.32268582096 22.09923304072648 1.3426500173720932
0.5912106327938133 12.030216214541827 21974.90213179127 23.430486159631492 1.3517005747102178
0.6031250567474016 11.932405632897323 19072.58324540886 24.802373942455727 1.3604618925326475
0.6162792193934605 11.838053500398123 16456.121472924606 26.22770495687148 1.3691924688364923
0.6306137774634978 11.74776822341675 14130.689097865885 27.696689207486138 1.3778406052586805
0.6460995916075171 11.662305556764439 12090.216272539748 29.22113594879457 1.3865762044692551
0.6626914466352027 11.582083529537842 10313.224436258126 30.79798785782543 1.3954006678690478
0.6803411848272011 11.507377284875322 8779.097715986187 32.42916843230815 1.404359863687337
0.6989917392354151 11.43823901134503 7464.560388552986 34.12040596830094 1.4135167609963282
0.7185989728808301 11.374847301124015 6342.588362469549 35.87302461593793 1.4228946904597615
0.7390938548216766 11.316943790229832 5388.873976250116 37.68665198912289 1.4325043805457438
0.7604490052539464 11.264343523919338 4579.352105408398 39.56606937176753 1.4423874420774163
0.7825965794227874 11.216995656143926 3894.688926593786 41.514828508054165 1.4525733789226976
0.8054840240765964 11.174503987242055 3315.980673943572 43.535830608936365 1.4630855018126514
0.8290621785412313 11.136676739777503 2826.8378805499347 45.63236345644326 1.4739477957618445
0.8532853549185522 11.103108736523893 2413.50207858257 47.808090442950046 1.485184968103553
0.8780904006072947 11.073505764665363 2063.8117148364613 50.06458591986546 1.4968091333511313
0.9034492966973058 11.047613007196425 1768.1781755689499 52.40725344670624 1.5088526433661518
0.9292972754357115 11.02502555920854 1517.7925399438002 54.84159922941142 1.5213471644816998
0.9555813324228388 11.00554167829405 1305.5073376742691 57.370713613714955 1.5343106306209153
0.9822783714542701 10.988737526049054 1124.8826801036582 59.99815109898536 1.5477630020440445
1.0093041134285845 10.97441590906446 971.5206674649985 62.73122124798815 1.5617435241822484
1.036650261212538 10.962184322333272 840.6988109097539 65.57329977926445 1.5762701442508738
1.0642512905934436 10.951938356821941 728.996129732498 68.53006019379735 1.5913724852881839
1.0920511355055709 10.943288414228075 633.5464677353133 71.60873109330575 1.6070877983197065
1.120024003773565 10.93610063607875 551.7282803959858 74.81498101497631 1.6234447683750688
1.1481104159734679 10.930030374017978 481.48340601356557 78.15521458139712 1.6404755093809773
1.1762707872315705 10.92494861625665 421.0267113399225 81.63656997269723 1.6582155261895704
1.2044576721357838 10.920554913289982 368.9315712729651 85.26693072423772 1.6767037622095904
1.2326318234960172 10.916788034003192 323.9506766010278 89.05494966798308 1.695982713185442
1.2607305164846023 10.913358086820274 285.0368979895251 93.00989458815971 1.7160976091318672
1.2887299531715233 10.910154221851382 251.29704242391162 97.13841221361781 1.7370793108767277
1.3165630348767816 10.906943021830553 222.0168175405578 101.45421405052366 1.7589949544758678
1.3442106134964613 10.903616916727662 196.49818377373802 105.9652058386713 1.781880624224388
1.3716005116595265 10.900009037098755 174.28632254858059 110.68429621829098 1.8057980094391162
1.3987046863819907 10.895983943680433 154.8652085480709 115.62400322203311 1.8308060103543604
1.4254749238778657 10.891418996457176 137.88736554660036 120.79754463185503 1.8569663352518784
1.451869334445264 10.886175706559182 122.99197200276721 126.21952246789753 1.8843470309382866
1.4778533565091507 10.880177511454752 109.92015341667341 131.904906260208 1.913016897569665
1.5033639780091985 10.873206989134676 98.41705463057363 137.8704540870127 1.9430529485508106
1.528363190851953 10.865243906809086 88.29355934099304 144.1348245254595 1.9745408981336503
1.552797915542722 10.856148020159308 79.36110573551473 150.71754428567826 2.0075693904343104
1.5766532728447138 10.845833019245926 71.45779250611481 157.63919052752917 2.0422306459476816
1.5998757702139121 10.834202276465643 64.46363411507343 164.92258285371608 2.078626716862837
1.6224280235574244 10.821197990455202 58.254698422387484 172.59292075427607 2.1168700186044225
1.6442476003770314 10.806632281154728 52.74993784213052 180.67794617502068 2.1570839644913473
1.6653240321562097 10.790589989355718 47.8497809118029 189.2050045175355 2.199385784429346
1.6856023203296815 10.772850338587943 43.48709066515766 198.2075262289149 2.243922772984235
1.7050338684756796 10.753389889401744 39.59461828119575 207.71989300540437 2.290842617603335
1.72359761670211 10.73217951774566 36.11794302629975 217.78020914894233 2.340308509203014
1.7412596133672922 10.709101218326717 33.006068878995364 228.42866239686484 2.3924886165641133
1.7579691196453262 10.684130025452667 30.22149187283147 239.71185042337703 2.447580888303796
1.7737076341712974 10.657226624860616 27.72327847375354 251.6786465178674 2.5057873140649893
1.7884392669885265 10.628326049253378 25.480534880624468 264.3834082828 2.567331787318409
1.8021110210244264 10.597334469980623 23.464638791989337 277.8861469510253 2.632459835425834
1.8147251159742348 10.564285806167137 21.64936733058619 292.25183991711134 2.701432299486978
1.8262287852708101 10.52909524799626 20.015382898163274 307.55294681661576 2.77453912075025
1.836621240725646 10.491773130753948 18.54025181587623 323.86864632149144 2.852091791748113
1.845841877199389 10.452277444274571 17.208268739034224 341.28761380072166 2.93443885413058
1.853894495301359 10.410591005348785 16.006031070268588 359.90642536643566 3.021951186251292
1.860741022018393 10.366701708648584 14.919345501386498 379.8329445716539 3.1150407935053495
1.8663814905559377 10.320603893439648 13.935620997792958 401.1865212582784 3.2141569591279455
1.8707826869965385 10.272296988831188 13.044610263508975 424.0999596937781 3.3197940472926075
1.8739333156949904 10.221801234769027 12.238664072567024 448.7208436896947 3.4324934046099584
1.8758253517610566 10.169136964671484 11.50933772630929 475.2138040270315 3.5528512087840634
1.876452390929807 10.114303544217996 10.847160474436985 503.7627445151778 3.681524551414114
