M[M_sun], R[km], Lambda[1], P_c[MeV/fm^3], rho_c[fm^-3]
0.24162668629717493 15.618656898711224 2160425.4255784233 3.5677272577965504 0.1711233750220791
0.25364444870601205 15.277260002828365 1723208.6243158 3.7848273127924634 0.17388826911453772
0.2660407883282339 14.98125347655098 1382962.3068236022 4.011417687536852 0.17666685692647027
0.27881646950132455 14.723471357924916 1116378.9287154635 4.247754234741899 0.17945781601289384
0.29197142769570883 14.498390836891657 905822.4995353648 4.494462218846787 0.1822677140716683
0.30550912338429587 14.301123453401392 738617.8395679605 4.751697235696161 0.18509225718451577
0.31942352178650435 14.128120578295606 605125.0284461982 5.020141621352047 0.1879380652245423
0.3337230819462998 13.975900078474094 497656.8104185831 5.30001932573852 0.19080175912705136
0.3484040591273481 13.842001844544452 410990.86018111825 5.592059134309728 0.1936896388973229
0.3634668566711027 13.723962835513227 340623.2793565291 5.89642812444607 0.19659676375357565
0.3789216751263897 13.619973548724447 283298.7096135665 6.213990482179787 0.1995308165798145
0.3947525829300942 13.528452816905494 236395.689741529 6.545003329623902 0.2024879704279483
0.41097951015717116 13.447869369919855 197857.6961135272 6.8901696897614295 0.20547194694337048
0.42758808085814815 13.377051367646256 166071.95401094807 7.25019443807004 0.2084858152368433
0.44458376035425945 13.314909981534878 139797.74961831293 7.625336222008771 0.21152511662953544
0.4619658570666281 13.260551663733477 117977.34632302707 8.016544722621235 0.21459602330414232
0.4797311261090573 13.213142328073522 99799.29726149963 8.424524708495436 0.21770017797721056
0.4978898322817918 13.17195696569754 84637.19646548115 8.849716716433365 0.22083504358175046
0.5164279782414821 13.1363919676514 71934.69350558182 9.29299473753614 0.22400403741500532
0.5353467995601681 13.105838495845273 61270.39492484838 9.755243372589536 0.2272100746925282
0.554654564023232 13.079806551868518 52301.55265614815 10.237272296426365 0.23045450648963525
0.5743374585742576 13.057830689154839 44726.70957675578 10.739551927781099 0.23373401954668302
0.5943953276939435 13.039529981684918 38323.541300255856 11.26332853093432 0.23705482126437105
0.614832816293189 13.024492726967122 32898.90454471737 11.809539103690096 0.2404185178951857
0.6356386836335188 13.01242051210807 28289.796000860646 12.379162768098965 0.24382674259911916
0.6568089799590644 13.003008461574613 24368.244765816835 12.972887658422867 0.24727743571367608
0.6783415111241475 12.99598469060031 21025.919199634503 13.592042393582236 0.25077540271961457
0.7002294055538478 12.991068004648369 18170.958714690732 14.23782395993647 0.2543232713281541
0.7224650956101552 12.988004226994171 15728.42394208575 14.911422197760766 0.2579230264512772
0.7450530404999285 12.986644963280039 13632.313450774192 15.61386456110943 0.26157454185663215
0.7679752131833372 12.986753939870443 11834.921008400934 16.34642181053549 0.2652797577936642
0.7912211403230267 12.988137092142495 10287.941049029261 17.110708016712834 0.26904334341016467
0.814796028315373 12.990671699521009 8955.366033786886 17.908178425727122 0.2728677316792731
0.8386790408496713 12.99412459828958 7806.458345044535 18.7401926110105 0.2767539515475397
0.8628616643587161 12.998406729979795 6813.628912145406 19.608106708977193 0.28070258760939715
0.8873416857768613 13.003360285255829 5954.562821665928 20.514001218090883 0.2847199500972535
0.9120988059582276 13.008849843763372 5210.506482217352 21.459670525148187 0.28880905287350955
0.9371188914890682 13.01474350978944 4564.7614852585 22.44659131581541 0.2929697569415259
0.9624037171589451 13.020953788224883 4004.053488106906 23.47680416024524 0.2972059826486208
0.9879252477734256 13.027341239321352 3516.0943904151773 24.55272447907085 0.30152377180957335
1.013668582142836 13.03379525021616 3091.759472738427 25.676285506797274 0.3059246877070791
1.039632591818448 13.040251328963384 2721.058841836137 26.84946700738105 0.3104101264419438
1.0657839460993985 13.046578721063865 2397.8590393859604 28.075357317029745 0.31498875729187903
1.0921168243633663 13.052704848165778 2115.5547137806584 29.355999764993957 0.31966094454180727
1.1186156777371492 13.058543833720275 1868.3639990283402 30.694173893058988 0.32443153531854185
1.145247181020107 13.064002150472147 1651.8875353984247 32.09325571360264 0.32930842528779714
1.1720112573457466 13.069013889885472 1461.8941513475818 33.55521085695514 0.33428947066370324
1.1988684681304906 13.073464600268395 1295.2313870783148 35.08457053883562 0.33938816179756665
1.2258141902081425 13.077335100611284 1148.919804519371 36.683343807040245 0.3446011723882144
1.2528101096671904 13.0804972547259 1020.0227931160235 38.356597569927416 0.34994302921475284
1.2798543186644875 13.082938791784382 906.6096319263648 40.10658662542116 0.3554103966632327
1.3068978697586282 13.084520533749766 806.6423173757377 41.93875512325226 0.3610176749354845
1.333935632254462 13.08523519028974 718.4911346470625 43.85661321203288 0.36676694111963287
1.3609441676622047 13.085032724840998 640.5368146362086 45.864826127259725 0.3726658184754683
1.3878763169291808 13.083770740067127 571.7150550016191 47.96873937612763 0.3787243308718235
1.4147333311370671 13.08148166273134 510.7418157999565 50.173123153516784 0.384948196763693
1.4414567661974103 13.07802629387547 456.80394791572405 52.48317267477075 0.3913442580428955
1.468051148895163 13.073429915981961 408.9477626494829 54.905317112840855 0.39792427147859477
1.494460652760338 13.067561571983749 366.4677418429568 57.44574690688609 0.40469729905212587
1.5206731751532907 13.06041299962347 328.7873698459455 60.11109065631893 0.4116731129108995
1.5466566472986651 13.051924378113569 295.24320642928626 62.908454565138314 0.4188622538429582
1.5723726398061737 13.042042605827236 265.41907473239263 65.84546566289035 0.4262760945257937
1.59779799900255 13.030713182645814 238.88878787220565 68.93031918566602 0.4339269081082518
1.622883935642927 13.017890618877125 215.1954821555455 72.1718305482037 0.4418279427527816
1.647635846816548 13.00355090941928 194.0638527482258 75.57949239221423 0.44999350284111206
1.6719853683513008 12.987617754047681 175.20388744711357 79.16321249236799 0.45843768144921565
1.6959224424681456 12.970062747940757 158.34263806354224 82.93324528284478 0.46717401031707506
1.7194021689119774 12.950849769249263 143.256471732302 86.90229982143045 0.47622391462460484
1.7423853409012569 12.929907081640653 129.7577526604278 91.0819279985526 0.48560162928026757
1.7648670482407418 12.907258150905792 117.66067923482008 95.48627552411254 0.49532929437866924
1.7867941340731368 12.882821066518508 106.80921575003474 100.12895785761144 0.50542421971407
1.8081320785976456 12.856558530551021 97.0709016696169 105.0265300028282 0.5159122174832921
1.8288414477944555 12.828422361264858 88.31586518482156 110.19553561120848 0.5268158287740377
1.8489206324859542 12.798454549265385 80.44802123173663 115.65364672063596 0.5381585714163076
1.8682972211902775 12.766512880307875 73.37589461643438 121.4210020915874 0.5499695115594071
1.8869748683637466 12.732690962554505 66.99710766463963 127.51904020985496 0.5622785016811872
1.9048985435847334 12.696872522500918 61.24613020414218 133.97023310347177 0.5751149450061703
1.9220383774579846 12.659053712592117 56.06315734650335 140.80027441443804 0.5885151652001733
1.938352547459001 12.61916415007354 51.38026066328754 148.03683810008624 0.6025174051365572
1.9538478911894936 12.57731753566359 47.15682818717491 155.7083973439351 0.6171573311061942
1.9684630386883635 12.533386994832538 43.33118536200185 163.84863211116996 0.6324826466336445
1.9821778031193773 12.487381217196766 39.873127491499886 172.4913633643358 0.648535060534379
1.9949669524087894 12.439304986314532 36.7398092512042 181.675808922199 0.665367483996237
2.006802531284607 12.38914167070684 33.89828754546778 191.4440188196595 0.6830344786694074
2.017648421063125 12.336864753152502 31.323627056578434 201.84203555423818 0.7015952889116167
2.0274845953537897 12.282478096069346 28.98653618715098 212.91976868863028 0.7211124412558803
2.0362935063278536 12.22600956590293 26.865843996135784 224.73281023331447 0.7416565910420176
2.0440368085250737 12.167411459451795 24.938366936215694 237.3422368046632 0.7633045628352696
2.0506953312750587 12.106702550089745 23.183062344044092 250.81497598415797 0.7861391266304815
2.056267871469142 12.043954095131339 21.590714279760103 265.2242200182966 0.8102487124840005
2.060713431117363 11.979101896978335 20.139194877518566 280.6515123990942 0.8357323357671178
2.0640174449157125 11.912205211015307 18.819185097412078 297.18680791669584 0.8626976580482701
2.0656773969512656 11.846265035598705 17.690955431683022 315.47173487832936 1.4042706224649968
