M[M_sun], R[km], Lambda[1], P_c[MeV/fm^3], rho_c[fm^-3]
0.24162668629717493 15.618656898711224 2160425.4255784233 3.5677272577965504 0.1711233750220791
0.2536442725619006 15.277288290916642 1723273.3750387463 3.784824982315633 0.1738882400662683
0.2660405243588436 14.981261791207121 1383043.4383323793 4.011412788392024 0.1766667977231963
0.2788161636705876 14.723476022176172 1116435.1709215022 4.24774660116541 0.17945772747491012
0.2919708375095458 14.49840451822669 905895.8370418057 4.494451650509236 0.1822675963907769
0.3055060493479841 14.301212445002202 738621.1102600959 4.751683373732228 0.18509210744884935
0.3194241623720448 14.128092625930377 605123.9659073068 5.020124363631797 0.18793788616903384
0.33372128263958534 13.975952440261738 497670.81365057384 5.299998217889001 0.19080154660603094
0.3484028062398367 13.842012415781944 410997.44582192774 5.592034123610212 0.19368939691192488
0.3634662739965148 13.723991123851304 340644.0183923044 5.896398648968018 0.1965964869136481
0.37892037649002397 13.619976165722237 283302.6730608739 6.213956185201024 0.19953050383266444
0.394751346695237 13.528447096662576 236401.64899856335 6.5449642467339295 0.20248762772380163
0.4109774226747527 13.447878844066645 197862.4980603575 6.890125066431259 0.2054715669123653
0.42758528374004173 13.377055087777995 166076.92980441856 7.250143855528283 0.20848539678043856
0.44458178488252587 13.314909283548655 139800.31306919883 7.625279820042235 0.21152466763361547
0.4619630089257612 13.260558089107244 117975.85515201322 8.01648151739829 0.2145955343606436
0.4797288757442407 13.213133046722573 99808.21501775082 8.42445420711405 0.21769964790538165
0.4978854513832114 13.17197475409301 84639.81760145622 8.849639178828175 0.22083448217635962
0.5164244528299757 13.136391609858585 71935.0144334783 9.292908908846401 0.22400343317567875
0.5353430519113697 13.105839839137172 61273.917712670605 9.755148670830108 0.2272094263141546
0.5546499119771165 13.079803721560086 51811.99266640726 10.2371681042463 0.23045381261036152
0.5743331281570975 13.057847079338519 44325.515017164515 10.739438697887689 0.23373329257569309
0.5943899265758859 13.039521217229483 38323.89535630801 11.263204560427537 0.23705404669440128
0.6148278337611262 13.02449886456887 32899.657734417335 11.80940366015479 0.2404176941725085
0.6356322657457394 13.012429549100242 28290.549011707135 12.379015073424128 0.2438258680879901
0.6568033862328194 13.003010957198196 24368.632036130846 12.972728390849534 0.24727652540553766
0.6783355426340026 12.995973808703932 21026.808216479225 13.591869291353905 0.2507744389327841
0.7002245193190918 12.991059011758626 18171.811602826354 14.237636094833945 0.2543222521508041
0.7224589629936086 12.988003767334416 15728.646124359171 14.91121858192208 0.2579219498575845
0.7450458316012426 12.986649961410189 13632.736071583013 15.613646129970741 0.26157342538154227
0.7679673070099763 12.986759631282702 11835.387767138349 16.34618560591524 0.26527858037287444
0.7912125651469974 12.988147088683514 10288.044928419678 17.110452853053285 0.26904210263569395
0.8147876945700425 12.990669129508076 8955.800290837431 17.90790303886564 0.2728664249883065
0.8386707469328296 12.994135607413119 7807.020534082707 18.7398982224325 0.2767525989843445
0.8628520866301851 12.998408266496607 6814.012977669418 19.607789490688198 0.2807011644509935
0.8873331682590456 13.003352988630903 5955.044394115131 20.513659643202146 0.284718453263129
0.9120894421442608 13.008856032021225 5210.886340623926 21.45930296220811 0.2888074790754416
0.9371092566328261 13.014753178185673 4565.115943676639 22.446199296013596 0.2929681287144514
0.9623935335586731 13.020949763940523 4004.3092594847467 23.47638276370598 0.2972042712320658
0.9879146944872831 13.027332536462758 3516.343963668724 24.552271722157222 0.3015219732212893
1.0136566489969223 13.033794102454587 3091.6608171964904 25.67580314214471 0.3059228261689867
1.0396211528051758 13.040251993061345 2721.2459584397593 26.848949137604695 0.31040817002318133
1.0657726053817937 13.046580193294258 2398.0093979658463 28.074801517800886 0.31498670114885147
1.0921057960885445 13.052699350889785 2115.639927805433 29.35540800625638 0.3196588145736937
1.1186024324282007 13.058545808689813 1868.436127211986 30.693539109346897 0.3244292960778645
1.145235309760003 13.063992827450285 1651.979807136941 32.09257997682181 0.3293061035227756
1.1719985467188303 13.069010595902908 1461.959189968044 33.554486240262314 0.3342870286307373
1.198854602611589 13.073461457227 1295.386443882589 35.083793621924016 0.3393855927439626
1.2258009689929152 13.07733058654612 1148.978173699395 36.68251684458452 0.34459850473534326
1.2527969057229866 13.080498859729515 1020.0887831740288 38.35571720567643 0.34994025703212395
1.279841010830842 13.082937304754434 906.6442152802358 40.10564285241052 0.355407476944832
1.3068830833540883 13.084526313110931 806.6962848024776 41.937750199085194 0.36101463689748214
1.333921258803031 13.08523775859374 718.5255049556127 43.85553586903766 0.36676373869909035
1.3609286886180456 13.085031239614157 640.5634487576414 45.863678622965544 0.3726624816888575
1.3878602701725145 13.083774476533156 571.7419853681937 47.96751680886167 0.3787208510507313
1.4147173979766787 13.081481483464403 510.7670694459983 50.171812116440044 0.3849445230933247
1.4414403718700628 13.078029986833682 456.8191794386125 52.48177524925305 0.391340421235994
1.4680360101084835 13.073430421146623 408.98290254360876 54.903827110784405 0.3979202606610298
1.4944445772767583 13.067565444806098 366.49321178164644 57.44415763892703 0.4046931025091043
1.5206563318169746 13.060417768596754 328.8087699667335 60.109394886944976 0.4116687180179234
1.5466403444837127 13.051930232949891 295.26572724903804 62.90664446332824 0.4188576469899421
1.5723579437482733 13.042047524186898 265.43835745987593 65.843532747776 0.42627126103360413
1.5977807654914884 13.030721697649959 238.89682204958632 68.92825426665736 0.4339218321368499
1.6228677719373887 13.017898337367223 215.2112592437889 72.16962365894935 0.44182260720005073
1.6476195215387242 13.0035601609993 194.08034521877775 75.57713271768978 0.44998788923133864
1.671968472447283 12.987625599868913 175.21968271376184 79.16070061077201 0.45843182125819004
1.695905900958619 12.970073421343974 158.34331131693787 82.93055668485223 0.4671678319267187
1.7193858743740942 12.950863332848577 143.26523214733967 86.89942066573711 0.476217394753531
1.7423666351292806 12.929911363089374 129.7711907826795 91.07885708677334 0.4855947976319207
1.7648499403440854 12.90727628861362 117.66674531847184 95.48298327055345 0.4953220704392361
1.7867786367298857 12.882836128750423 106.81003622110758 100.12544139553654 0.5054166313414697
1.808117026024297 12.856579612552173 97.0770011688853 105.0227710961792 0.5159042354371439
1.8288260186800451 12.828445117745673 88.32104473452775 110.19151436877644 0.526807421425794
1.848905744306909 12.798478698031424 80.45308429967537 115.6493249970732 0.538149644226739
1.868281381043527 12.76653885249798 73.3777562729926 121.41637202332285 0.5499600864371512
1.8869607429506652 12.732718399349205 67.00203152584182 127.51409340419815 0.5622686010413223
1.904884175482349 12.696902587448344 61.251614751711394 133.96492415472713 0.5751044634929344
1.9220257051204848 12.659084280688875 56.06950099060491 140.79457218925447 0.5885040550970692
1.9383402341364147 12.619197080840568 51.3877952274188 148.03070844784494 0.6025056144455018
1.9538357952982617 12.57735177584087 47.157769764049476 155.70182294729003 0.6171448719664454
1.9684516727728103 12.53342184403005 43.337090617809864 163.84157312617722 0.6324694603910138
1.982167040899787 12.487422426197528 39.876504452439924 172.48375478899746 0.6485210121319213
1.9949573817369148 12.439345762434572 36.7419843667661 181.66762317277568 0.6653525735401606
2.0067920399983086 12.389185898561669 33.90028761846053 191.435202734308 0.683018629887038
2.0176409529607495 12.336911252322855 31.32585723154517 201.83253048894568 0.7015784183583199
2.0274755183744624 12.282526369125113 28.988288443418202 212.90953385392123 0.7210945360248875
2.0362862005625972 12.226061078857743 26.86757147482272 224.72175088736984 0.7416374746992667
2.044031099666103 12.167465416244518 24.940350831485596 237.33029906472925 0.7632842078920627
2.0506899624668202 12.106759791176414 23.185615074819466 250.80207359507358 0.7861174168240498
2.0562627068531634 12.04401412013331 21.5928158432282 265.2102307223702 0.8102254334828182
2.060708886504781 11.979165033404314 20.140161317312202 280.63638301934793 0.8357075200630016
2.064014626369419 11.912271225070334 18.819956699473966 297.17039359217915 0.8626710639014161
2.066175325281426 11.843369024641264 17.617185764448635 314.9126229310433 0.8912364775438386
2.0671687058595167 11.772474818794867 16.522112484983914 333.97243868233613 0.9215294725068133
