M[M_sun], R[km], Lambda[1], P_c[MeV/fm^3], rho_c[fm^-3]
0.24162668629717493 15.618656898711224 2160425.4255784233 3.5677272577965504 0.1711233750220791
0.2536412609040284 15.277382767699851 1723246.7465979385 3.784786575845227 0.17388776134814257
0.26603639772319704 14.981335774157106 1383151.167393494 4.011332050655126 0.17666582205529402
0.27880905643635107 14.723634965914126 1116527.5408038928 4.247620801017454 0.1794562683827706
0.2919615448532793 14.498541598040463 906038.6900996567 4.494277487209263 0.1822656570420105
0.3054943194427317 14.301374648438097 738775.889207921 4.751454934039138 0.18508963986418026
0.3194081521606941 14.128297491523615 605206.3095309668 5.019839965175231 0.18793493542527923
0.3337030279179223 13.97615436203417 497799.0961192226 5.299650373730979 0.1907980443925375
0.34838260182787784 13.842178263900928 411103.01736916316 5.59162196565581 0.1936854091703353
0.363442710635374 13.724126139778372 340728.79135068983 5.8959129181158705 0.19659192482669313
0.3788932059929294 13.620134991909886 283382.8774305994 6.213391004006094 0.19952535006068914
0.3947217315453653 13.52860412643935 236473.38534648108 6.544320202382807 0.2024819803249036
0.41094326300378653 13.448035249879233 197934.1682015485 6.889389726502104 0.20546530444895517
0.42754784810920093 13.377202549999614 166151.29689930912 7.249310320407705 0.20847850115800276
0.4445403933035344 13.315061120757811 139862.49361954298 7.624350393887628 0.21151726880380572
0.4619171548886774 13.260690673207241 118030.47804893192 8.015439989896613 0.21458747730337932
0.4796795334020289 13.213251758642063 99852.69092968802 8.42329245747713 0.21769091317220823
0.49783099868744035 13.172095384019338 84680.44936273462 8.84836149089555 0.22082523116981337
0.5163653729244286 13.136504913757058 71970.84337252202 9.291494607109266 0.22399347640327788
0.535279567696468 13.105930426868625 61305.644338012244 9.75358816702833 0.22719874227910483
0.5545828475996089 13.07990137469413 52328.08911533494 10.235451227544464 0.23044237888128308
0.5742601501827658 13.057923707920533 44753.53068697152 10.737572908254293 0.2337213136282974
0.5943133836447735 13.039580314812945 38348.78635925246 11.261161801214344 0.23704128349787087
0.6147453867301319 13.024548998458975 32919.64933475255 11.807171865106586 0.2404041211349476
0.6355421940116236 13.012486146377018 28311.10833116336 12.376581423561882 0.24381145826657166
0.6567104581325859 13.00306033400284 24385.3323404212 12.9701040617868 0.24726152581677185
0.6782371028897285 12.996017905515847 21040.445383625844 13.589017020083581 0.2507585582505201
0.7001204756133272 12.991081642251862 18183.336559474606 14.234540589745698 0.2543054588846242
0.7223497138891213 12.988000925738802 15739.166064614546 14.907863568965974 0.25790421063940383
0.7449325949065195 12.986642528422976 13643.18957255962 15.610047021740547 0.2615550291276524
0.7678469658429453 12.986753130268944 11843.227669753787 16.342293667312212 0.2652591800350702
0.7910876242001974 12.988125670059615 10295.998239278731 17.106248553601812 0.2690216585511567
0.8146552627001162 12.990658482022702 8962.66124733675 17.903365553341853 0.2728448949439419
0.838532027182229 12.994106346119741 7812.485741612225 18.735047675432448 0.2767303132306197
0.8627094907681108 12.998378662192971 6819.5564467681 19.60256281946464 0.28067771567350247
0.887179057260893 13.003325721847055 5960.036035265139 20.508031695058385 0.2846937907217359
0.9119329168405369 13.00881735238066 5215.082909754262 21.453246862182812 0.28878154860890104
0.9369475688552671 13.014704192214856 4568.728093419692 22.43974027000884 0.29294130159763937
0.9622208130900239 13.020905833906719 4007.864798051215 23.469439764189044 0.2971760736480613
0.9877400220524067 13.027297037244136 3519.3882375017324 24.54481207335891 0.3014923395778752
1.0134761488220596 13.033756175002269 3094.463235615227 25.6678557172081 0.30589215552556864
1.0394342106073517 13.040207605021715 2723.7559713264627 26.840416788742672 0.3103759363455968
1.0655838177583827 13.046539198034516 2400.180795062495 28.065644310837442 0.31495282465843494
1.0919074676918676 13.05266202756039 2117.5160793914374 29.345658393184927 0.31962372195292943
1.1183999840659662 13.058497152126279 1870.2107878940099 30.683080703910896 0.32439240337500125
1.1450283575473201 13.063961062754958 1653.4830918673745 32.081446909915016 0.3292678514014468
1.1717851360383795 13.06896839888496 1463.462702869132 33.542547939092046 0.3342467953249031
1.1986344636308042 13.073432147596277 1296.604841424097 35.07099374867876 0.33934326703319406
1.2255758668498442 13.077307797675711 1150.0586324729127 36.66889253967372 0.3445545548366981
1.2525674365225303 13.080474522739431 1021.1023432631766 38.34112950191898 0.34989409432337876
1.2796047941339046 13.082920165433876 907.580158677279 40.09009428684495 0.35535937487741226
1.3066440219369158 13.084516830087672 807.5085124007658 41.9211942753678 0.360964585831873
1.3336758693914614 13.085230878620903 719.2576289046629 43.83778699484853 0.3667109798659584
1.3606806901007027 13.085038038384585 641.2534320157619 45.84477398358866 0.3726075095655507
1.387608099400767 13.083788560666594 572.3685122352274 47.94737566879433 0.37866352286439814
1.4144601150237528 13.081512018703815 511.32608760658877 50.15021365573855 0.38488400182623955
1.441188495729505 13.078088332928377 457.31857197672474 52.45875375034413 0.3912772128254004
1.4677724109519352 13.073483752818575 409.41493685401457 54.87928065259886 0.3978541860101786
1.4941804725030245 13.067627272169952 366.91485778760114 57.41797604542082 0.4046239686774582
1.520391503293777 13.060496351435495 329.1774669169557 60.081458988085416 0.4115963170844216
1.5463708801268288 13.052026089258815 295.5967203135102 62.87682528234657 0.4187817548036138
1.5720861015639103 13.042162345437537 265.740860297389 65.8116906064791 0.42619163583945374
1.5975073897707492 13.03085344386885 239.16789624313725 68.89423779958716 0.4338382130635027
1.6225951859780552 13.018052070824693 215.46541289822483 72.13326872605026 0.44173471259404506
1.647347257759432 13.003727740857208 194.307710805417 75.53826120386115 0.44989541482112977
1.6716963330108447 12.98781519665161 175.41710921977477 79.11932203254221 0.4583352855085816
1.6956347847242181 12.970289758290333 158.53139601346575 82.886267402775 0.4670660552854965
1.7190991706852592 12.95106406473787 143.44823704435274 86.8519927323676 0.47610999381943625
1.7421043522243436 12.930183632781992 129.9194252569955 91.02827075901124 0.48548226167280795
1.764589134375922 12.907565260661793 117.80191764131115 95.4287513260158 0.4952030734435157
1.786515368945154 12.883145202768993 106.93617093722017 100.06751661582653 0.505291632179851
1.8078562352434129 12.856915072814216 97.18817024084946 104.96085316594184 0.5157727525824999
1.8285818948079264 12.828830889475459 88.42784745783887 110.12513653641838 0.526668415985076
1.8486576257703402 12.798868277974055 80.55125508837601 115.57813747890806 0.5380025953791339
1.8680472985669132 12.766991766563564 73.46210521519379 121.34010613312681 0.549804837033043
1.8867228365049782 12.733174337998495 67.0772387844458 127.43232729967092 0.5621045069226163
1.9046527276062892 12.697386806769352 61.32326106852745 133.87747738477495 0.5749318164170678
1.9218013574738118 12.659605269541192 56.13259032818014 140.7006484699926 0.5883210559745617
1.9381295514849668 12.619777913742656 51.44761641251281 147.9297454371671 0.60231140707124
1.9536245568246664 12.577932807673728 47.217351820038374 155.59353546804076 0.6169396563535385
1.968254669905626 12.534048778005891 43.38513855088304 163.72515087894806 0.6322517487397397
1.9819825834871596 12.488091042805923 39.920173103690075 172.35843591317476 0.6482896245297971
1.994783954541312 12.440044106588987 36.78363058098073 181.53279924337593 0.6651069898833194
2.0066238191858847 12.389909324748974 33.94154927213388 191.28999841584434 0.682757594342272
2.0174881886233322 12.337690038339826 31.360408076519004 201.67598019657584 0.7013005570317764
2.027338363987974 12.283347190862624 29.02165983325902 212.7409659503023 0.7207996365626035
2.0361626857376374 12.226918570286848 26.8980957219473 224.53960551386203 0.741322632084892
2.043921507153611 12.168369616758817 24.96860906448353 237.13368903236062 0.762948969725969
2.050596225469498 12.107703197339594 23.211387825738775 250.58926797751113 0.7857588567402718
2.0561784536463077 12.044977493650746 21.614905932399655 264.9798383502441 0.8098420471900856
2.0606487611646416 11.980193359226702 20.16180920236323 280.3871221751616 0.8352985193670075
2.0639775794614805 11.913353822244831 18.840053620102406 296.9000701044579 0.8622330914144438
2.0661502374015144 11.844482835314576 17.63525320110774 314.6189713234965 0.8907663990769822
2.067163455341893 11.77363836657853 16.53967403239404 333.6535226276381 0.9210257700732524
