M[M_sun], R[km], Lambda[1], P_c[MeV/fm^3], rho_c[fm^-3]
0.24162668629717493 15.618656898711224 2160425.4255784233 3.5677272577965504 0.1711233750220791
0.25364423743760056 15.27728843785175 1723126.6769268634 3.784824209939754 0.17388823043897556
0.26604041460594546 14.981246573104526 1382958.3214764898 4.011411164698938 0.17666677810182357
0.27881587327519636 14.723488487760596 1116477.1418399245 4.247744071218054 0.17945769813133333
0.29197066422704443 14.498416617985702 905870.4910250194 4.494448147914745 0.1822675573885743
0.30550557260917177 14.301235485844968 738645.8345864252 4.751678779555388 0.18509205782297136
0.3194222377867617 14.128136333822034 605097.349314251 5.02011864402544 0.18793782682591031
0.33372170531804685 13.975939802816812 497669.4300678307 5.299991222264833 0.1908014761717034
0.3484023910122213 13.842015919099275 410999.6288205571 5.592025834496453 0.193689316712469
0.36346593733080335 13.723956294384172 340641.74412970623 5.89638888013045 0.19659639516265837
0.378918588755109 13.619994205003223 283300.72108332743 6.213944818415465 0.19953040018126664
0.3947510428880906 13.528461603234915 236401.77925580507 6.544951293796581 0.20248751414403965
0.41097761628557083 13.447841007142694 195371.7794080148 6.890110277276665 0.20547144096171874
0.42758528002261526 13.377041456376942 166076.598896405 7.250127091368249 0.2084852580948389
0.4445804178713063 13.31491646100412 139801.2150176148 7.625261127206195 0.21152451882662113
0.4619621163989357 13.260565863684151 117979.49113207089 8.016460569825924 0.21459537231423595
0.47972732347635655 13.213140328466295 99809.0666941022 8.424430841449338 0.21769947222824762
0.49788436065007025 13.171976999277248 84640.19288260312 8.849613481219803 0.22083429611469527
0.5164231105053145 13.136392613688496 71936.31742527298 9.292880463410635 0.2240032329180376
0.5353420344436908 13.105836668511822 61275.444125138936 9.755117284687605 0.22720921142800937
0.5546489706932128 13.079814599739926 52298.207738153986 10.237133572797008 0.23045358264438
0.5743311137366435 13.057852069430815 44728.22846606047 10.739401171168595 0.2337330516425322
0.5943877403922491 13.039524610041388 38327.746747738776 11.263163474067888 0.23705378998608267
0.6148256911686005 13.024501173862975 32899.88827340878 11.809358771420884 0.24041742117411116
0.635630970536472 13.012426880024785 28290.311840491802 12.378966124437945 0.24382557825741072
0.6568013495421028 13.003012063920178 24369.739165233615 12.972675606393578 0.2472762237112327
0.6783334527054543 12.995975482552835 21027.08833245742 13.591811921844592 0.25077411951472645
0.7002203368726891 12.991072442535533 18171.89047775823 14.237573832645708 0.2543219143753942
0.7224560732102867 12.987999577693076 15729.119746362718 14.911151099662955 0.25792159305344287
0.7450444759742952 12.986653227561268 13633.2054004654 15.613573737661323 0.26157305536007625
0.7679649008321185 12.986763170653282 11835.911169564486 16.346107323167853 0.2652781901530127
0.7912107669562587 12.988146390216599 10288.61988227157 17.11036828695733 0.26904169141940576
0.8147862081622564 12.99066751915955 8955.89974826072 17.9078117704599 0.2728659919262473
0.8386679567312676 12.994133297522277 7807.002406134569 18.739800656538076 0.2767521507195416
0.8628493057094286 12.998408866861368 6814.168696889218 19.607684358651063 0.2807006927898462
0.8873294851157443 13.003355243918273 5954.980784061859 20.513546438991042 0.28471795718472337
0.9120858117085494 13.008849384926894 5210.872706165108 21.459181145138405 0.2888069574900257
0.9371058488867235 13.014735712090836 4565.029673509384 22.446069373545708 0.2929675890904864
0.9623901938927815 13.020946377918186 4004.3497314707547 23.476243105324794 0.2972037040378832
0.9879112172769531 13.02733782638807 3516.3758966892647 24.55212167046058 0.30152137713713145
1.0136531195499852 13.033789709481324 3091.774624310035 25.675643277981887 0.30592220922239427
1.0396162954321728 13.040249984512824 2721.2207640931124 26.84877750650494 0.31040752163179197
1.0657691531493925 13.04657917024203 2398.313740043447 28.07461731631253 0.3149860197074491
1.0921012820509992 13.052709452506303 2115.6269027449775 29.355211887246465 0.31965810866567573
1.1186008151357565 13.058541698875159 1868.5364349300203 30.693328731232178 0.3244285539554327
1.145230716946398 13.063996384498932 1652.005420045189 32.09235602625951 0.3293053340507018
1.1719935016993461 13.069012065185419 1461.978877167446 33.554246090202206 0.3342862193002742
1.1988499651831905 13.073462764216185 1295.4253884340828 35.08353613883909 0.3393847413172046
1.2257961012262943 13.0773301771092 1149.003807149235 36.68224277570214 0.3445976206315537
1.252792614023569 13.080497839216205 1020.1124132558734 38.355425438697196 0.34993933828587703
1.2798338356293735 13.082935369054137 906.6483821808005 40.105330070917304 0.3554065093033855
1.3068773864270211 13.08452460073477 806.7220257216463 41.93741715127403 0.36101363004349246
1.333915976210913 13.085232561265379 718.555730499765 43.85517882068516 0.3667626773667349
1.3609235620548918 13.085031686893691 640.5850323232447 45.86329832224185 0.372661375826013
1.3878550402314138 13.083772000277564 571.765091188733 47.96711163130314 0.3787196977846055
1.4147119898197225 13.081481451297245 510.79219245508574 50.171377618891796 0.3849433055833119
1.4414351844980624 13.078032275518865 456.84155794973674 52.48131212150223 0.39133914966070926
1.4680301312064492 13.073432685141093 408.99017841464706 54.90333330203832 0.39791893141669493
1.4944392620007774 13.067566319343749 366.5078225297918 57.44363093226981 0.40469171171333934
1.520651015094469 13.060420003903255 328.8081781246114 60.10883288446471 0.4116672614868697
1.546634855969167 13.051932087529504 295.2701343325043 62.90604456975794 0.418856120213112
1.5723517433424092 13.04205070026343 265.4487054084227 65.84289215248661 0.42626965914622433
1.5977752628234045 13.030724045331649 238.90718993471694 68.9275699238145 0.433920149889418
1.6228623612056692 13.017901046016672 215.21557566108254 72.16889226562832 0.4418208389248082
1.6476146175676893 13.003563978815096 194.0846934246276 75.57635068971206 0.4499860288053124
1.6719637106297565 12.987626819742733 175.2240238129537 79.15986813974808 0.4584298791128153
1.6958999743788954 12.970078251708268 158.35040294508062 82.9296656482273 0.46716578432714967
1.7193807473214366 12.950868788363604 143.26869805518191 86.89846647641467 0.47621523398418575
1.7423617604106398 12.929923295491632 129.77564533854311 91.07783934758925 0.48559253353685244
1.7648459718869984 12.90728019250164 117.67007294174388 95.48189217663995 0.49531967633556045
1.7867723736661894 12.882842480291433 106.8148086235914 100.12427599682765 0.5054141164616154
1.8081109025415742 12.856586301261556 97.08050050475359 105.02152534914016 0.5159015900906954
1.8288209195160725 12.828451728801358 88.32598624619038 110.19018168135301 0.5268046351308968
1.8488991961125694 12.798487725551649 80.45490965634758 115.6478927277306 0.5381466856525154
1.8682774758244896 12.766547021467792 73.38082133546413 121.41483756602275 0.5499569628444041
1.8869560530059664 12.732727049938674 67.00214449418843 127.51245397753596 0.5622653198586574
1.9048796255569516 12.696911312731823 61.25233635968972 133.96316471109185 0.575100989804896
1.9220211100263624 12.659095642395075 56.06961066959389 140.7926824109419 0.5885003730902698
1.9383364747219594 12.619206420234752 51.388159644728525 148.02867701723193 0.6025017068876477
1.9538316484891771 12.57736438055668 47.15809686953421 155.69964412532087 0.6171407428807106
1.9684479883531467 12.533435744452703 43.338632184918545 163.83923370845355 0.6324650903392641
1.982162656099285 12.487435707146936 39.87573436752005 172.48123323375077 0.6485163563558594
1.9949536161265824 12.439360389329453 36.74304270148319 181.66491033866555 0.6653476320752134
2.0067891185878537 12.38920066416205 33.90083088360481 191.43228100341477 0.6830133774563704
2.017636192434586 12.336927673984569 31.324592145817036 201.82938042657787 0.701572827308345
2.027473143970439 12.282542596575919 28.990519065087 212.90614194235215 0.721088602078529
2.0362831181091487 12.226078853370693 26.867879726104142 224.7180857291816 0.7416311393860833
2.0440284033012017 12.167483783225046 24.94093297155072 237.32634280311726 0.763277462102586
2.0506884919722435 12.106778256024537 23.18666372927656 250.79779764510994 0.7861102220289296
2.056260905438006 12.04403361390995 21.592063782731653 265.20559456805495 0.8102177186526827
2.0607084335113006 11.979185289786805 20.140437931666156 280.6313690377476 0.8356992959661831
2.064014107742835 11.912290192427266 18.819745555235745 297.1649537767179 0.8626622504256567
2.066175291628666 11.843390714619547 17.61744184805699 314.9067135966172 0.891227017861699
2.067169231842888 11.772499590727847 16.522601634793947 333.96602085120617 0.9215193360551962
