M[M_sun], R[km], Lambda[1], P_c[MeV/fm^3], rho_c[fm^-3]
0.24162668629717493 15.618656898711224 2160425.4255784233 3.5677272577965504 0.1711233750220791
0.25363727360583366 15.277471194450028 1723412.1783372802 3.7847086959154574 0.17388679061238851
0.26602597549154927 14.981593894897076 1383206.5907297165 4.011168335735248 0.17666384365710525
0.27879527946935584 14.72388659278565 1116785.4492890202 4.247365716736799 0.17945330978951882
0.2919432168411051 14.498819660851181 906248.191973278 4.493924344472381 0.18226172471567517
0.3054710309704325 14.301663260955841 739051.8592348049 4.7509917472481265 0.18508463656283206
0.31937796287133646 14.128654558713503 605412.0716709988 5.019263327134296 0.1879289525830427
0.3336686873968299 13.976435440271926 498045.02336596994 5.298945109335276 0.19079094355031803
0.3483404278789095 13.842530021954145 411295.65437682584 5.590786318924562 0.19367732405833196
0.36339365580068733 13.724498905571334 340976.88007609453 5.894928122480637 0.19658267541768204
0.378838088503407 13.620479634221883 283550.3451969092 6.212245149213271 0.19951490124467758
0.39465985574921825 13.528931520328038 236653.785407844 6.543014482987945 0.20247053092975115
0.4108746877249561 13.448323452306415 198073.99592878384 6.887898945488009 0.20545260833225718
0.42747182381013327 13.3774782580914 166272.32730116317 7.247620497153377 0.2084645216832843
0.4444543263448573 13.315343918159373 139977.5415431559 7.622466203366883 0.21150226943573006
0.46182400327205636 13.260963244996125 118129.73712426706 8.013328580359564 0.21457114384360895
0.47957712610894143 13.213518578811465 99953.2643693905 8.420937374942689 0.21767320624389425
0.4977216969783975 13.172349420725018 84765.02133037051 8.84577142259134 0.22080647796863984
0.5162470922915323 13.136699691490067 72050.05582619837 9.288627654878598 0.22397329288084034
0.5351518131493762 13.106114790311468 61369.92057043886 9.750424904796787 0.22717708491145544
0.5544458943403607 13.080068560768074 52387.47806157628 10.23197104938837 0.23041920225238538
0.5741118443586928 13.058045615922456 44804.741612931626 10.733790937369623 0.23369703220370985
0.5941594698513876 13.039717100750778 38394.64681160597 11.257021187082488 0.23701541286584524
0.6145777426993835 13.024664287327136 32959.496477188324 11.802648163210442 0.2403766094797891
0.6353650804855371 13.012555590443885 28346.004287047712 12.371648665044965 0.24378225103736767
0.6565179216391955 13.003112701937374 24417.750816900818 12.964784897581888 0.2472311236554025
0.6780383459879722 12.996059529928054 21069.654207987936 13.58323595228304 0.25072637081384747
0.699911516703403 12.991104865635268 18209.029953152014 14.228266642267744 0.2542714224133562
0.722123702135802 12.988059328285566 15762.141715014195 14.901063776335192 0.25786825757256365
0.7446990749642222 12.986668870729856 13662.728252189065 15.60275261719187 0.2615177449701693
0.7676036075053198 12.986745661308305 11861.112094228542 16.3344059192872 0.2652198615894811
0.7908321221747473 12.988111452812088 10311.837889056183 17.097727902659425 0.2689802255109583
0.8143885372941798 12.99062353094674 8977.410268529578 17.89416981844426 0.27280126183937936
0.8382545964662563 12.994060642612972 7825.100015814501 18.725217632481247 0.27668514926945975
0.8624176058729843 12.998323362190355 6830.552030635296 19.591970723746336 0.28063019562009967
0.8868749189750621 13.003253638135847 5969.872522647309 20.496626603520664 0.2846438118422302
0.9116175246190212 13.008738543331045 5223.857190207537 21.4409743448487 0.2887290012436377
0.9366210896449768 13.01462532581316 4576.992804998849 22.42665143180386 0.29288693801539023
0.9618797863862615 13.020815642064546 4014.56840672022 23.455370446219515 0.29711893396738537
0.987388705111795 13.027204908589384 3525.627967413153 24.52969610158642 0.3014322909979118
1.0131143406631897 13.033665965850716 3099.902688649924 25.651751579626932 0.30583000655716114
1.0390582269306143 13.040117198840157 2728.725519102109 26.82312773175478 0.31031062140152915
1.0651961719329577 13.046449105122512 2404.6624741553187 28.04708946642896 0.31488418222070325
1.0915075943021262 13.052571918194037 2121.5228328452367 29.325903492515696 0.31955261644009103
1.1179887131984931 13.05841032708196 1873.759268566899 30.6618900491217 0.32431765196711215
1.1446032260298458 13.063870471187123 1656.837034509255 32.058751748342125 0.32918945478570877
1.1713499692480882 13.068895463066395 1466.2843494017447 33.518359617809246 0.3341652781882598
1.1981940046368447 13.07337885559821 1299.1433703032483 35.04506031557385 0.3392575122004857
1.2251199322558437 13.077244920754426 1152.4042133767032 36.64128921000932 0.34446551076810433
1.2521009392122922 13.080423412797389 1023.1970271689402 38.311538914801595 0.3498003578302925
1.2791293745640422 13.082878712290745 909.5244377576229 40.058593533827086 0.35526192207129664
1.3061585231016815 13.084490778637988 809.2758870566561 41.887653240230144 0.36086318620120733
1.333181386958517 13.085223122709294 720.8084451182592 43.80182991477489 0.36660409682834716
1.3601760764632898 13.085051178733778 642.6357983981299 45.80647615229953 0.3724961446745291
1.387097311323708 13.08382574863263 573.5646214650501 47.906573629675144 0.3785473870898801
1.4139334987903533 13.08154622627283 512.4760529712485 50.10646036261805 0.38476140027720335
1.4406627825407654 13.078165647641423 458.32486795898956 52.41211861210856 0.39114917020848183
1.4672365381679044 13.073579080848699 410.34261668687265 54.82955733867154 0.39772033979162924
1.493642442649591 13.067762535331473 367.7334657513963 57.36494152027248 0.4044839283116124
1.5198467413992793 13.060664314564306 329.9190686687087 60.02487201640141 0.41144966171476427
1.545824331970882 13.052219982771767 296.2603184133977 62.81642478511923 0.4186280307361177
1.5715360257059008 13.042391777782097 266.34776581472386 65.74719385143165 0.42603035376376536
1.5969510618308498 13.031106675149962 239.70260497629647 68.825338407319 0.4336688449946858
1.622043851759925 13.018341554108606 215.95272847365146 72.05963447100743 0.4415566885043438
1.6467934206757582 13.004066782382996 194.75215425234342 75.45953158664445 0.4497081189275305
1.6711484006957902 12.988197771879447 175.8287855797233 79.03521510626176 0.45813850953150026
1.695078868796163 12.970711829411368 158.9056332365306 82.79656861994383 0.4668599277437957
1.7185677934550312 12.95157073752789 143.7709457683053 86.75593960801099 0.47589248075180485
1.7415669137498904 12.930724666770807 130.23158840911853 90.92582329532429 0.48525435377566034
1.7640491336615376 12.908138384340013 118.08637162904184 95.31892358016833 0.49496208684578236
1.7859814060620627 12.883771270447808 107.19498070207739 99.95021298753403 0.5050384960390696
1.8073176089321008 12.857567710803641 97.41905634604613 104.83546593277528 0.5155064925300487
1.8280652324216868 12.82956578460036 88.63856202903467 109.9904729249105 0.5263860050567791
1.8481470906992585 12.799664084255275 80.74221084538824 115.43398641540252 0.5377048290246392
1.867550847243812 12.767846358027878 73.63987142739283 121.18567560343534 0.5494904730670667
1.886238385039256 12.734093309503322 67.24051666612507 127.2667511317675 0.5617721968747896
1.9041703067746256 12.698335740530986 61.47281819717281 133.7003317432146 0.5745819452632194
1.9213360784046076 12.660624328593192 56.269261947185974 140.51047769851223 0.5879505309934285
1.9376851965245923 12.62086881693424 51.57108589224272 147.72532794813807 0.6019181998606884
1.9532025358900322 12.579106176008462 47.326235585392034 155.37429422261545 0.6165241722470995
1.9678616884634306 12.535328618480168 43.49072936641163 163.48907045413492 0.631809703718561
1.9816046689952829 12.489431601726084 40.016107717838494 172.10472785254376 0.6478211803357073
1.994437460561405 12.44150256331219 36.86849171563201 181.259856470491 0.6646098208379436
2.0062914375537715 12.391405456210604 34.01968197081071 190.99605042800746 0.6822291605191617
2.0171771322157697 12.339256835033996 31.434675249539538 201.35907404697915 0.7007380798764562
2.027054146150959 12.284992947388076 29.089887879602923 212.39932458089282 0.7202013159599033
2.0359104316636976 12.228659005731995 26.960073463712547 224.17091142407637 0.740685335573336
2.043698977126919 12.170192582709603 25.023611837650442 236.73551539151342 0.7622697144645459
2.0504062286539093 12.109618293736398 23.26466512872274 250.15830833625276 0.785032356198754
2.056021169400514 12.046974947893423 21.662493693327352 264.5135343321753 0.8090660902123267
2.0605172195924073 11.982261529698427 20.207261552937982 279.8819320617052 0.8344684130584942
2.0638827910515496 11.915514662396918 18.880362448559644 296.3529885004638 0.8613467211892817
2.066097809115851 11.84674500121554 17.672665239976197 314.02470270655255 0.889815091904896
2.067147689328494 11.77598725852622 16.573393825861764 333.00815208196695 0.9200064588482002
