M[M_sun], R[km], Lambda[1], P_c[MeV/fm^3], rho_c[fm^-3]
0.24162668629717493 15.618656898711224 2160425.4255784233 3.5677272577965504 0.1711233750220791
0.2536419401315572 15.277372572081777 1723170.9927514775 3.784802877091219 0.17388796453530989
0.2660378900975106 14.981277023455837 1383060.389227653 4.011366318845937 0.1766662361661563
0.2788114560624809 14.723601606206728 1116496.837675612 4.2476741952093935 0.17945688767493378
0.29196517327317306 14.498487429977738 888773.2983450141 4.494351408206554 0.1822664801694715
0.30549987647264815 14.301301373772182 738755.3191849779 4.75155189145295 0.18509068718929544
0.3194146363670853 14.128216608741939 605169.1339724147 5.019960672900525 0.18793618781451807
0.3337110668391303 13.976060590319188 497734.47438876866 5.2997980092550465 0.19079953083729323
0.3483910962575773 13.84210537666802 411054.11805305514 5.591796897260768 0.19368710168173528
0.3634520800586092 13.724073509186246 340705.958999946 5.896119075382775 0.19659386109937144
0.3789040459759058 13.620083460696568 283343.3713599458 6.213630881243044 0.19952753745225912
0.3947343938831934 13.528563911071945 236446.18856032574 6.544593550210237 0.20248437721607535
0.4109572620703818 13.447955684510822 197904.73546075294 6.88970182121227 0.20546796237847242
0.4275638345734769 13.377126861704747 166121.77816313796 7.249664090063767 0.20848142780370396
0.44455787255461165 13.314994687987003 139836.29898653046 7.62474486040741 0.21152040901094432
0.46193700295230294 13.260632203363752 118002.71486643216 8.01588203282188 0.2145908968627826
0.4796996214100931 13.213216383376617 99830.39647492654 8.423785523070451 0.21769462033617695
0.4978542186598286 13.172045543977163 84662.3348536878 8.848903760902248 0.220829157436356
0.5163898116366743 13.13646717017019 71954.58553805768 9.292094855959348 0.22399770219260362
0.5353070445531467 13.105887427264815 61292.571782924 9.754250463694234 0.22720327671265367
0.5546115427052922 13.079865102779289 52314.940921909736 10.236179888207783 0.23044723147704932
0.5742916395987546 13.05787589415886 44741.42220414451 10.738364766763976 0.23372639760521663
0.5943453450953288 13.039557825380362 38337.707705178655 11.262028764255808 0.23704670029864275
0.6147820255354478 13.024519659999436 32912.553848921285 11.808119053158306 0.24040988161865043
0.6355790776046834 13.012453293586132 28071.133100034494 12.377614276508087 0.2438175738655069
0.6567497462005101 13.003038611238521 24378.132419227975 12.971217836677564 0.24726789169732258
0.678279518538055 12.996000731488406 21034.63044316543 13.590227530312246 0.25076529804715825
0.7001647794561233 12.991057848536927 18042.575308398842 14.235854324412408 0.25431258595930795
0.722395536933437 12.988003997327574 15735.227357253845 14.909287434046933 0.2579117391508169
0.7449814629612636 12.986652206992503 13639.088186915957 15.611574476314367 0.2615628364622331
0.7678985631206581 12.986752217857322 11758.344945378134 16.343945392823663 0.26526741347247773
0.7911401971609607 12.988125582772083 10292.732948265411 17.108032837812242 0.26903033492106265
0.8147126459293702 12.99064729663626 8959.456456405082 17.90529123340153 0.2728540321581323
0.8385914190590515 12.994121971303889 7810.018345218637 18.73710621094478 0.276739771136184
0.8627689176159767 12.998394180558394 6817.252583557013 19.604780971502798 0.2806876671227824
0.8872404990855451 13.00333401818288 5958.100698534485 20.510420137001837 0.28470425724466586
0.9120001699107364 13.008822749310635 5213.392444929676 21.455816998192002 0.2887925531870144
0.9370159057183591 13.014718040415136 4567.204223271404 22.44248139509792 0.29295268667069946
0.9622914233116601 13.020913015226606 4006.4566865913744 23.472386270703804 0.29718804028651014
0.9878134780757324 13.02731457228358 3518.07031959772 24.547977826810143 0.3015049156134832
1.0135531132930322 13.033773911153835 3093.443937226727 25.671228465081807 0.30590517160916786
1.0395130399918302 13.04023156979156 2722.6765635278534 26.844037754863855 0.31038961570357687
1.065663440875807 13.046545477707937 2399.420716309677 28.06953044050043 0.314967201141877
1.091991698859957 13.05267217841864 2116.9002417226725 29.3497959154242 0.3196386144925392
1.118486912956787 13.058516637296696 1869.446845126895 30.687519005454877 0.3244080597712924
1.1451146345881915 13.063970388185298 1652.8506166582713 32.086171507537365 0.3292840846535231
1.1718750615251556 13.068986102660244 1462.835977518892 33.54761423877428 0.3342638692771896
1.1987280114575145 13.073443971902687 1296.049704040576 35.07642565573325 0.3393612288772299
1.2256716006009694 13.077312848466212 1149.5755902154758 36.674674294098146 0.34457320588147494
1.2526655284812325 13.080484885969652 1020.6680992859445 38.3473276093111 0.34991372856883673
1.279704527098173 13.082928280033713 907.1904972364825 40.09669259320604 0.3553797878329418
1.3067446827374816 13.084521885980218 807.172134895837 41.92822004855561 0.3609858258086197
1.333780271427153 13.085229503691824 718.9140711367681 43.845318984673064 0.36673336883497526
1.3607858052537223 13.085038603588192 640.9617879740609 45.852796411500215 0.372630837696153
1.3877154119505626 13.08378382396488 572.1034682106939 47.955922791928494 0.3786878507359093
1.4145701974025762 13.081497066173236 511.10124131103487 50.15937916992354 0.38490968460704644
1.441291761867374 13.078052438930012 457.10297917264785 52.46852310905849 0.3913040358241676
1.4678846479375531 13.073460448366532 409.2431166578457 54.889697101566675 0.39788222521744243
1.4942922750349787 13.067599208132327 366.7354738053145 57.42908633274069 0.4046533059572127
1.520502526568838 13.060463639581585 329.0179724038769 60.0933136777493 0.4116270406563516
1.5464848767162664 13.051986409910029 295.44882896413657 62.88947909903628 0.4188139597731121
1.572200416623382 13.042114218935309 265.6129039156622 65.82520281512242 0.4262254247805489
1.597623278172946 13.030796463244213 239.05178363820852 68.90867262358019 0.4338736966604246
1.622704506356663 13.017958484147842 215.35595183099318 72.1486958085321 0.4417720103478415
1.6474628606977437 13.003656873924452 194.20844031934067 75.5547561169711 0.4499346558285167
1.6718109713973524 12.987736002755117 175.32901096148638 79.13688073990333 0.45837624977197045
1.6957496354762565 12.970197383699414 158.45541244271126 82.90506116149517 0.4671092432882991
1.7192144926182873 12.950959689014594 143.36393832278625 86.87211825598686 0.47615556822848787
1.7422179903298085 12.930074371373578 129.85821631701157 91.04973642582114 0.48553001488023206
1.7647003846405636 12.90743388589839 117.74542944886818 95.45176385155814 0.49525356806300286
1.786626214902604 12.883014557735818 106.88047782390605 100.09209603557083 0.5053446735013113
1.8079675086398899 12.8567711922983 97.14113851096408 104.98712689590975 0.5158285449031585
1.8286795638894602 12.828654266983564 88.3828843458046 110.15335468009474 0.5267275939030096
1.8487618136214992 12.798702438679625 80.51077878746376 115.60834428443613 0.5380649922157876
1.8681507712259844 12.766813058342706 73.42465972527708 121.3724676719225 0.54987071326685
1.8868243637425404 12.732980688330418 67.04788918302637 127.46702519888233 0.5621741453294742
1.9047501152159416 12.697181129364806 61.293093137059344 133.91458289502353 0.5750050742154572
1.9218968552038618 12.659386074123281 56.10717896874169 140.7405020712604 0.58839870594539
1.9382154320226916 12.61951407501431 51.421770419349336 147.97258570334805 0.6023938124546752
1.953716806256168 12.577698404168425 47.19287815983141 155.6394833904185 0.6170267322658962
1.9683375482137342 12.533784329629285 43.36342049994896 163.77462915864405 0.6323443935543761
1.982062081073765 12.487808541836756 39.90076955627597 172.4116098888803 0.648387804462015
1.9948557117218566 12.439749846462332 36.76637918422875 181.59000597287456 0.6652111927343174
2.0066944359950694 12.3895959565258 33.925917735563644 191.35160924783426 0.6828683528738511
2.017555026028592 12.337358414354721 31.34645235498632 201.74240476280556 0.701418454084591
2.02739577698073 12.28299688601363 29.007529149979565 212.81248918776538 0.7209247621874458
2.036215032773181 12.226554030654674 26.884709662758173 224.6168891448912 0.7414562186809882
2.043967274832037 12.167983393669292 24.955411164395347 237.2171094304953 0.763091209167917
2.0506358600062597 12.107302880118109 23.199735685052605 250.67960860586157 0.7859111506191742
2.056211868539243 12.044559163256146 21.60452283986037 265.0775909989075 0.8100047132767707
2.0606758366188433 11.979755727514497 20.153530970344608 280.49293464970043 0.8354722313494641
2.063996604402165 11.912898835965086 18.83198162307416 297.0147633894384 0.8624189150869829
2.0661612524641475 11.844009369614575 17.628067722160353 314.74356132280855 0.8909658431609139
2.067165040216474 11.77314476510835 16.531532749305487 333.78883073652247 0.9212394784228998
