M[M_sun], R[km], Lambda[1], P_c[MeV/fm^3], rho_c[fm^-3]
0.24162668629717493 15.618656898711224 2160425.4255784233 3.5677272577965504 0.1711233750220791
0.25364382127629537 15.277280293699388 1723253.9281482338 3.784817318158067 0.17388814453624155
0.2660396802035789 14.981276006716095 1383043.536493439 4.011396676776018 0.17666660302382528
0.2788145207343927 14.723519204449298 1116440.5311658387 4.247721496981956 0.17945743630421326
0.29196823203535316 14.498453858925464 905877.2398621043 4.494416894976575 0.18226720937985438
0.30550493064073075 14.301191886284139 738680.710663358 4.751637786706222 0.18509161502196433
0.3194200841882285 14.128158999920235 605090.088046338 5.020067609277559 0.18793729732070344
0.3337191925858621 13.975952514556804 497674.4533316678 5.299928801983376 0.19080084770304312
0.3483986811451583 13.84204623565624 411017.28707555344 5.591951872808969 0.19368860111279643
0.3634598141198874 13.724026751228728 340659.14341098274 5.896301715351479 0.19659557649260823
0.37891430886131994 13.620017772328257 283312.93675187445 6.2138433956964905 0.19952947532819051
0.3947455479405316 13.5284773167754 236405.05514234497 6.544835718416001 0.20248650070408666
0.41096997398796764 13.447896587407312 197867.73112623746 6.889978318018799 0.2054703171413042
0.42757829843007966 13.377078120621706 166093.92844267463 7.2499775099094155 0.2084840206457644
0.4445730165376417 13.314958801842796 139810.5401452487 7.625094336951444 0.2115231910689475
0.4619533826447058 13.260588277413271 117983.53504241612 8.016273661505542 0.2145939264272689
0.47971765475341566 13.213171825756238 99817.01567116057 8.42422235754146 0.21769790472071554
0.4978754395039679 13.171991246569121 83771.36281776712 8.849384190418236 0.2208326359513235
0.5164123774730809 13.136417942138323 71943.40506611389 9.292626655013096 0.22400144609109582
0.5353297702715164 13.105862087874055 61279.41828229433 9.754837237761695 0.22720729407851714
0.5546363344087145 13.07981852643949 52301.998569604155 10.236825461837276 0.23045153074558267
0.5743189892892007 13.057859814976348 44733.27857265202 10.739066334906969 0.23373090189001325
0.5943754286450287 13.039529650771517 38331.05091423862 11.262796876964726 0.23705149948074808
0.614810967974138 13.024510589552712 32903.75468786071 11.80895824773848 0.24041498532186312
0.6356151827175929 13.012443240441174 28293.903067994288 12.378529373321344 0.2438229922216411
0.6567838803581371 13.003023203109036 24371.67407206675 12.972204633476775 0.24727353182317177
0.6783164453556169 12.995989318516989 21029.944383218215 13.591300039087555 0.25077126948867684
0.7002033991188182 12.991054157479043 18174.210401887525 14.237018295342876 0.25431890055841333
0.7224372716236421 12.987996735631665 15731.139138581113 14.910548986753078 0.25791840945552014
0.7450235010919212 12.986648015277336 13635.190921268631 15.612927815289718 0.26156975383336983
0.7679438078803585 12.986748109331316 11837.338305016547 16.345408844037642 0.2652747084097332
0.7911874273072681 12.988130333852023 10289.588443801296 17.10961374545021 0.26903802233956586
0.8147619828125617 12.99066532698336 8957.025061851868 17.906997428535462 0.272862127932044
0.8386430181765762 12.994120247249276 7808.2594650580995 18.738930126157896 0.2767481510828692
0.862823356984066 12.998398986644851 6815.370746493019 19.606746320601374 0.2806964844047069
0.8872950827441907 13.003353448202848 5955.813283906023 20.512536378395254 0.28471353094258023
0.9120582420977409 13.008837644794328 5211.657115677278 21.458094237946792 0.28880230366818543
0.9370772749081108 13.014728520940837 4565.652434315488 22.444910147464135 0.2929627743253068
0.9623550236563198 13.02093036914808 4005.0689277370916 23.474997012634997 0.2971986432852197
0.9878795777305553 13.02732451428275 3516.8581853601536 24.55078284576978 0.3015160586222048
1.0136213797487998 13.033789607360891 3092.1292953700763 25.674216903759643 0.30591670456956643
1.0395848713594091 13.040234269419038 2721.7006213075356 26.84724614473883 0.31040173642279123
1.065734647659866 13.046565487640592 2398.588243527154 28.07297379857883 0.31497993962069587
1.0920640283774747 13.052704238828513 2115.6766327944397 29.35346203853375 0.3196518102847225
1.1185627648047984 13.058532116926244 1868.8294630397825 30.69145165978162 0.32442193246425965
1.1451938610185186 13.063993050481864 1652.3174249024416 32.090357858517606 0.3292984685431522
1.1719557161367022 13.068999605415275 1462.2484043228674 33.55210338753843 0.3342789981713754
1.1988112513811284 13.073464317146362 1295.5333213321528 35.08123878796509 0.3393771446006775
1.2257561896365161 13.077327930295573 1149.2176610799547 36.67979744343577 0.3445897323681916
1.2527505125683687 13.080493827324903 1020.2782904543794 38.35281971479057 0.34993112635500645
1.2797916684176252 13.082933139653612 906.7993078344897 40.10253933906297 0.3553978757113515
1.306835379087712 13.084524850408753 806.8436007889234 41.93444560056267 0.3610046465955041
1.3338717091769683 13.085237333771019 718.6828831445114 43.85199313463668 0.3667532078602833
1.360881026889207 13.085029509014772 640.7049732914065 45.85990517601248 0.37265150901770205
1.3878096396485151 13.083775222783785 571.8813536156143 47.96349653157702 0.37870940804380543
1.4146658933399963 13.081486239772023 510.8804003181032 50.167500924391 0.3849324426581001
1.441389009882503 13.078035931956082 456.9382036809056 52.477179986450494 0.39132780436603437
1.4679838436723434 13.073443220183773 409.0668813054978 54.89892742955436 0.397907071600347
1.494391727007394 13.067580706871196 366.5791718337372 57.438931543389614 0.40467930273756003
1.5206039676488834 13.060435402087812 328.8832314081637 60.10381858544392 0.41165426602422905
1.5465861742854283 13.051951005260172 295.3292997548672 62.90069220613561 0.41884249802216145
1.5723021361783172 13.042073281629214 265.50232581331755 65.83717664843266 0.42625536682474635
1.59772642031055 13.030748316531092 238.95246955602602 68.92146410510829 0.4339051406028514
1.622813551600584 13.017929518201559 215.26840251976083 72.16236666441051 0.4418050621071318
1.6475652201904982 13.00359333730912 194.1272536850629 75.5693733289229 0.4499694298293467
1.6719143064237962 12.987660721572645 175.25292126613067 79.15244072868032 0.4584125510477693
1.6958526917883667 12.970117982526178 158.38620716592757 82.9217157200151 0.467147515415272
1.7193321369408088 12.950910846119102 143.2999115342271 86.88995310650617 0.47619595539000065
1.7423181356580932 12.9299735708444 129.79484236032042 91.06875899237471 0.4855723330888587
1.7647979696215796 12.907330289940202 117.69507678451181 95.47215736081742 0.4952983159759671
1.7867255082909106 12.882897390350426 106.83439801999235 100.11387824398645 0.5053916785620778
1.8080651897136846 12.85664740520047 97.09892682004725 105.01041074113523 0.5158779881972997
1.828776025729326 12.82851694087868 88.34391747196844 110.1782914065039 0.5267797757290927
1.8488560071313138 12.798556078608494 80.47675879151348 115.63511400422537 0.5381202892193522
1.8682425438474108 12.76665417286162 73.38973421074887 121.4011471436326 0.5499290941613979
1.8869139213648622 12.7328084225052 67.01979547951596 127.49777541825058 0.562235860774386
1.9048370884364803 12.696998919646239 61.266556335390334 133.94746701388596 0.5750699976765199
1.9219807399226887 12.659188073858722 56.08276700992749 140.77582190368656 0.5884675224104096
1.9382963176184675 12.619305808180632 51.40004415794349 148.0105527302943 0.6024668439199836
1.9537943217883664 12.577468891426498 47.168766276391224 155.68020485730204 0.6171039035219168
1.9684123543082694 12.533548139691009 43.344179067413265 163.81836165720884 0.6324261011740802
1.982129337880525 12.487554685047598 39.88476850715685 172.4587362176459 0.6484748180753946
1.9949199872686885 12.43948734789207 36.74817234141474 181.64070680363943 0.6653035450005623
2.0067595092257227 12.3893325664134 33.90726720532382 191.40621377392975 0.6829665160852957
2.0176088488761 12.337067868509264 31.3313011630014 201.80127611961797 0.7015229449357525
2.027448261154546 12.28268915618216 28.995492048646682 212.8758799609819 0.7210356605526386
2.0362610013255664 12.226231513893419 26.872957368853108 224.685385969956 0.7415746170737909
2.0440090018574804 12.16764558692668 24.946078389482302 237.2910459598831 0.7632172777424484
2.050671716295452 12.10694845522425 23.191192835404596 250.7596487055675 0.7860460318942478
2.0562481181351275 12.044210822200895 21.597014732424498 265.1642320836459 0.8101488890755163
2.0606977969918074 11.979369565311522 20.144613672682834 280.5866357882298 0.8356259230254013
2.064006124678524 11.91248057612368 18.823665770552555 297.1164214914766 0.8625836194274968
2.0661701006107482 11.843591008947929 17.62100111116861 314.85399255752475 0.8911426218475423
2.067167512177441 11.772708656352734 16.525071491893353 333.9087633338302 0.9214289023801991
