M[M_sun], R[km], Lambda[1], P_c[MeV/fm^3], rho_c[fm^-3]
0.24162668629717493 15.618656898711224 2160425.4255784233 3.5677272577965504 0.1711233750220791
0.25363183891442975 15.277600794662316 1723682.6681451679 3.784607132179194 0.17388552466941196
0.26601569444674705 14.981781591914503 1383525.4274773165 4.010954841196539 0.1766612637016008
0.27877830880468063 14.724174905131296 1117013.1489493821 4.247033081619575 0.17944945172342947
0.29191792327377303 14.49922131305339 906614.0761652562 4.493463853703554 0.18225659704408995
0.3054389232827893 14.302109819889477 739397.2960788017 4.750387780716698 0.18507811257160517
0.3193391812484899 14.129085660014326 605742.3589186555 5.0185114501108 0.18792115156872605
0.3336224418248449 13.97690875917516 490334.04667126085 5.298025545481783 0.19078168506814572
0.3482855882274019 13.843009532681076 411615.99333029555 5.589696786955797 0.19366678253681427
0.3633306119212231 13.724948282017856 341193.6510829399 5.893644166622804 0.19657061623255123
0.3787650929420052 13.620950308152368 283817.7859503645 6.210751253155588 0.19950127871139947
0.3945779477803078 13.529402025486316 236869.2089885074 6.541312212338012 0.20245560431580625
0.4107832173210775 13.448760106397978 198277.3013210102 6.88595546723129 0.20543605685587396
0.4273707421082735 13.377885467952991 166439.79052723176 7.245417599755795 0.20844629767766834
0.44434557686001774 13.315696405753075 140129.46678189092 7.620009988809699 0.2114827163885141
0.46170374284068544 13.261299346051354 118271.86097463887 8.010576245113546 0.2145498523053135
0.4794430210949545 13.213862528351147 100068.10888842978 8.41786748780778 0.21765012498426323
0.4975793250583644 13.172630113134538 84873.3162260784 8.84239531371166 0.22078203349785064
0.516089812091469 13.136974629895677 72148.65725025942 9.284890739397225 0.22394698476288197
0.5349844281801422 13.106367289318205 61455.22229619422 9.746301882859928 0.22714885652083303
0.554265523191352 13.080279663292018 52460.826287326505 10.227435085478255 0.2303889945022293
0.5739196719072318 13.05826975191812 44870.97245302792 10.728861745713317 0.23366538526640387
0.5939547236133483 13.039910250143324 38451.21669262252 11.251624713450317 0.2369816956009352
0.6143602333477322 13.024834785139255 33013.43663338336 11.796752576002918 0.24034075447299727
0.635133464922515 13.012676546702659 28391.447914219036 12.36522014881962 0.24374418731578243
0.6562738323751885 13.003212383729386 24459.266433225657 12.957852969903604 0.24719150359936415
0.6777801390891014 12.996127640109956 21105.845655015328 13.575702283133475 0.2506844253624134
0.6996376944834933 12.991173136782663 18242.230790086556 14.220090899770328 0.25422706861129046
0.7218408158131849 12.988067297047834 15790.897482176124 14.892203039815332 0.25782140751850324
0.7443962722964709 12.986670711421269 13688.4396820506 15.593247577618156 0.2614691615128104
0.767285050281618 12.986731297170278 11884.65286744154 16.324128006245797 0.2651686287707593
0.7904998837351714 12.988078184729972 10332.779742736695 17.08662561503067 0.2689262388457697
0.8140363850738028 12.990558455732028 8995.502730570552 17.882188244040066 0.27274441012555506
0.8378894501439528 12.994003626345215 7842.060989619893 18.712341340353806 0.27662569655406477
0.8620408215908579 12.998253541463193 6844.877407685104 19.578170471887773 0.2805682825933737
0.886478365700754 13.00316800716892 5982.466597193569 20.48176753760302 0.28457869711144446
0.9112062543850068 13.008639389250803 5235.385708855184 21.42498561613054 0.28866054213739434
0.9361961494521253 13.014535094235319 4586.947218644193 22.409599590679203 0.2928161143752045
0.9614380187484448 13.02071062185732 4024.052108781744 23.437041789335773 0.2970444958458059
0.9869301299968573 13.027086162020328 3533.7692141014986 24.510004502266693 0.3013540656218556
1.012639691900545 13.03354293092574 3107.508384499806 25.630708921143125 0.30574857436597036
1.0385645460630308 13.039983530168701 2735.3010351666467 26.800606450086626 0.3102255400547838
1.0646898458345322 13.046324203986655 2410.641551984157 28.022920051725826 0.31479476904604936
1.0909865161705863 13.052444849351108 2126.829061395974 29.30017151569621 0.3194599971230552
1.1174522185378055 13.058298019866054 1878.3358513022 30.634288753877982 0.3242202866096206
1.1440530966285907 13.063771437290491 1660.8340124659942 32.029151864941596 0.3290870868742717
1.1707832752278313 13.068798820860442 1470.0242442169708 33.486855553148956 0.33405910624214963
1.1976082539622723 13.073267198988496 1302.5398435004836 35.01128439316354 0.3391458243817481
1.2245262248603077 13.077172109762653 1155.392306917469 36.60533932288847 0.3443495419971754
1.2514929578965759 13.080351894056232 1026.0333815756246 38.27300211466579 0.34967828169556886
1.2785067158209105 13.082836234576968 911.862432105675 40.017570145603656 0.35513500941316184
1.3055252841068241 13.08446570389489 811.444723666847 41.84392394695352 0.36073085691824613
1.3325431747336556 13.085252187019012 722.7546681194384 43.755005884946165 0.3664649115960912
1.3595214086172636 13.085071796040964 644.4535945604704 45.75660533471387 0.3723511271114284
1.3864299419070363 13.083863882062053 575.1900434968517 47.853348697381726 0.37839566595419816
1.4132565062421678 13.081618010671532 513.9171567115384 50.04948914015451 0.384601760633502
1.439976426706737 13.078269465417527 459.6394172780172 52.35139671941493 0.3909824506416723
1.4665424044374844 13.073711484181363 411.5296386830154 54.76481638749299 0.39754606879446275
1.4929406342040434 13.067933639548512 368.7954352217616 57.29589140621368 0.40430159796722936
1.5191390283987445 13.060879227733501 330.87049886413286 59.951198976982994 0.41125872471092484
1.545111919388272 13.052468921503165 297.14394089358285 62.73778926429915 0.4184278970838295
1.5708191960492832 13.042683215680427 267.13394497524416 65.6632281490678 0.42582038718864224
1.5962356556832518 13.031454914593596 240.4102922781583 68.73564408942768 0.43344835896563677
1.621330613177702 13.018747321359898 216.59041627854273 71.9637795137112 0.4413249418599854
1.6460707785427149 13.00450756940665 195.34331615275522 75.35704722334643 0.4494643110559513
1.6704185775831972 12.988679251787934 176.35869047355703 78.92559234376866 0.45788177505359634
1.6943594670074567 12.971266323932849 159.40069109546215 82.67981319715018 0.46659162412226285
1.7178524392762022 12.95218610612585 144.21931638780467 86.6309178397701 0.4756093679586195
1.74085638884349 12.931401054180233 130.62917273523314 90.79248309399112 0.4849577209084578
1.7633360694046465 12.908855159589443 118.45215793774935 95.17598326058926 0.4946484438676035
1.7852846156595295 12.8845802235879 107.52546978413203 99.79754817403284 0.5047090519947095
1.8066334176771675 12.858450786376988 97.72726986989233 104.67180954995237 0.5151581773018851
1.8273869612935023 12.830523368858278 88.90868413162865 109.81522879450361 0.5260184903511165
1.847475389365074 12.800668767334235 80.99395566128264 115.24640302514693 0.5373173464704228
1.8669025446969625 12.768960301813951 73.86532708656853 120.98472355003236 0.5490814083270502
1.8855968845943125 12.735256083551986 67.44974167827121 127.0513046993807 0.5613397976040665
1.9035571076356752 12.69961914368427 61.66350066366182 133.4691587252144 0.574124306956485
1.9207459524853003 12.662000385153005 56.44597248807833 140.26304897436447 0.5874684457464003
1.937130673808176 12.622389108788125 51.73457259515619 147.45937502586744 0.6014066261827178
1.9526717633476978 12.580717729163824 47.47245240675688 155.08894862109662 0.6159832333306972
1.9673343493714164 12.536970009887062 43.62370296781193 163.18195076917377 0.6312346423692329
1.9811206586729917 12.491211192082384 40.136991197264045 171.77469101656743 0.6472118034035582
1.9939714552669519 12.443343044612364 36.9828876233981 180.90481469060413 0.6639631073129466
2.00586202578707 12.39337105386615 34.12122043128134 190.61370377662195 0.6815418113584075
2.0167739725220772 12.34129885386007 31.529848103662086 200.94688579597732 0.7000064863899462
2.0266878882700614 12.28715217091209 29.177255514393902 211.9544933323101 0.7194215243210278
2.035573657360368 12.230909123028413 27.038892877752446 223.6914134431085 0.7398565118980052
2.0434087770826452 12.172573198854444 25.097683345034525 236.21688842660353 0.7613837032847995
2.0501622182550734 12.112125052822538 23.332038317977847 249.5978939291033 0.7840876241837571
2.055809025108232 12.049569353410961 21.726220211664042 263.90719276603687 0.8080571026185699
2.06035411374481 11.98498251469195 20.264719600747057 279.22506495250803 0.8333890777415996
2.063771500932559 11.918358412537028 18.933417175281264 295.64061498432574 0.8601907606959934
2.0660280446055346 11.849695397308976 17.72169460328534 313.2521059402206 0.8885783164400872
2.0671262943706123 11.779053523818703 16.61787424288765 332.16857938572747 0.9186793921561673
