M[M_sun], R[km], Lambda[1], P_c[MeV/fm^3], rho_c[fm^-3]
0.24162668629717493 15.618656898711224 2160425.4255784233 3.5677272577965504 0.1711233750220791
0.25364547424092004 15.277222878453276 1723129.5220141143 3.7848440850959246 0.17388847817320913
0.2660422808864319 14.981227544104227 1383008.3787349332 4.011452946517922 0.17666728301044807
0.27881938884345425 14.723473499840496 1116384.8549050412 4.24780917352594 0.17945845321999773
0.2919749107851508 14.498338504230166 905783.5298265907 4.494538279337247 0.1822685610228823
0.30551279831081346 14.301113748083903 738620.1039912337 4.751797000808151 0.18509333483812984
0.31943007138169144 14.128044566745768 605022.318857544 5.020265826260191 0.187939353898403
0.33373215394736067 13.975818779692244 497617.03554693423 5.3001712407775905 0.19080328865942214
0.34841309170788615 13.841925368999826 410945.4276236132 5.592239139060839 0.1936913804928075
0.36347835056432903 13.723856150984252 340614.7164473331 5.896640263389324 0.19659875620742406
0.3789326575996537 13.619914237452724 283246.4320145394 6.214237322903793 0.19953306747000188
0.3947675766568534 13.52837068013266 236370.3589682878 6.545284616130306 0.20249043693061
0.41099443265413255 13.44777433266841 197818.39421727305 6.890490852818256 0.20547468210273326
0.427604735105057 13.37696879272097 166040.44404304423 7.2505584919146076 0.2084888269610004
0.44460227376887246 13.314861405464319 139773.14679345852 7.62574216069716 0.21152834816251273
0.4619840558539261 13.26048266667567 117942.76068466186 8.016999627411925 0.21459954236047302
0.4797538503214884 13.21309041634715 99796.13599887416 8.425032127242426 0.21770399305682953
0.49791296331247964 13.17191269223085 84619.8709450653 8.850274778421667 0.22083908418898732
0.5164542994218769 13.136336696607046 71920.91588507334 9.293612474889189 0.2240083863244822
0.535374589466786 13.105789882409432 61257.16810082123 9.755924974415326 0.22721474129942043
0.554684174833382 13.079772158268947 52287.7476493408 10.238019051933657 0.23045946003725215
0.5743682621445386 13.057824914933358 44314.292315845596 10.740366887676604 0.23373925184165514
0.5944298860901007 13.039480566933145 38315.9608238261 11.264220797906285 0.23706039616455862
0.6148678575563498 13.024476334208435 32890.5826362875 11.810513949708556 0.2404244465854726
0.6356763866013118 13.01240468259939 28282.375634234566 12.380225794076443 0.2438330368548115
0.6568492748215999 13.003006564611864 24361.739542461328 12.97403398271766 0.24728398763327272
0.6783838287574974 12.995963211647936 21019.61811042582 13.59328829616439 0.25078233957139473
0.7002754581041724 12.991044868289114 18165.329311572696 14.239176122276008 0.2543306068748384
0.7225105800120992 12.98800596188556 15721.905168004756 14.912887730672493 0.25793077527621827
0.7451025381576242 12.986656032410595 13628.615191587049 15.615436731601791 0.2615825777493272
0.768027234293621 12.98676352456999 11831.483125461667 16.34812191174407 0.26528823237178883
0.7912760143991983 12.988144062620348 10285.879789633953 17.112544582588026 0.26905227400810233
0.8148520980629853 12.99067443534621 8952.143963565977 17.91016055607205 0.2728771367460307
0.8387391593965808 12.994135587810591 7804.19168884908 18.74231151371996 0.27676368680914
0.8629213268076477 12.998418155286654 6810.805478966942 19.610389938602655 0.28071283102076905
0.8874063448103208 13.00337631043474 5952.562830309186 20.516459765724836 0.2847307238341893
0.9121666788892269 13.008874025640708 5208.833907618908 21.462316134609654 0.2888203806070895
0.9371884493759215 13.014766789617394 4562.9128236221 22.449412965534517 0.29298147646805534
0.9624769140473345 13.02096775226929 4002.5180206622535 23.4798372649279 0.2972183009879603
0.9880004904744597 13.02735673615831 3514.703575702969 24.555983317855112 0.30153671762901985
1.0137455184394977 13.033822013509925 3090.5909723109025 25.679757463931086 0.3059380866583197
1.0397133000390864 13.040268940419088 2720.0429732983944 26.853194534525656 0.310424208368282
1.0658688054062317 13.046596393405945 2396.955712525413 28.079357865824164 0.31500355706144156
1.0922035099989733 13.052728918312097 2114.6542018486753 29.360259155235028 0.3196762757313962
1.1187047257687974 13.058567446640314 1867.3831017720984 30.69874298539836 0.3244476530878388
1.1453378023282488 13.064014970490629 1651.026683947261 32.09811959372754 0.3293251371008334
1.172105328553782 13.069026014582555 1461.262404617533 33.56042658665137 0.33430704821054374
1.1989636741009828 13.07348071506124 1294.673985335767 35.09016273982238 0.33940665369018075
1.2259138890476204 13.077344950412805 1148.4180752948612 36.68929624910924 0.34462037404491075
1.2529114240811148 13.080511652032248 1019.5734752197549 38.362934413525345 0.3499629833277514
1.2799559803024716 13.082949311569257 906.1651233443843 40.11337990755542 0.3554314128086672
1.3070085184570264 13.084548807206563 806.2975704420016 41.94598859236979 0.36103954280849254
1.3340416345197255 13.085241977327435 718.1314392443534 43.864367981375985 0.36678999230459197
1.3610522209527876 13.085030643504165 640.2346560713638 45.87308594563181 0.37268983690528285
1.3879929487564602 13.083780194753459 571.4400208935895 47.977539529697104 0.3787493789496336
1.4148365420840372 13.081455473847196 510.4942511746414 50.18256015632426 0.38497464028553874
1.441570045472945 13.078008669332919 456.58985760116013 52.49323154348218 0.3913718759276447
1.468165382110712 13.073405941482624 408.75616625249734 54.916042394988295 0.39795314200923576
1.4945758870975092 13.067535231780889 366.30348849973507 57.45718675880281 0.4047275065639902
1.5207894411302627 13.060378501025129 328.6379850827801 60.12329716628492 0.4117047482887614
1.5467736974947988 13.05188281420772 295.10177302030553 62.92148410877313 0.41889541506740346
1.57249083605345 13.04199358948637 265.28906898602503 65.8593792943857 0.4263108872741464
1.5979046138415265 13.030651937623356 238.75476749969528 68.9451830688867 0.43396344641596873
1.6230136086421365 13.017837604098034 215.08548975129008 72.18771643217984 0.4418663497419241
1.6477547692645025 13.003475306381548 193.94854615972199 75.59647813611096 0.45003391152330885
1.6721036198834172 12.987531824587021 175.11677605015123 79.18129393241442 0.45847986524197887
1.69604078765752 12.969969985794059 158.25502935438354 82.95259886785897 0.4672184847990709
1.719520587986075 12.950745952505917 143.18426236698727 86.9230251989394 0.47627084740758285
1.74250219292649 12.929796789353176 129.69364207400415 91.10403379457502 0.48565080653956644
1.7649831803010427 12.9071336934506 117.59169635320539 95.50997473738305 0.4953812957443619
1.786894257453206 12.882653522792626 106.752474279795 100.15427112512359 0.5054788446471762
1.808245659446422 12.856414127956599 97.01907649912555 105.05358861278704 0.5159696764982568
1.8289495467196504 12.828260410726681 88.27034504058747 110.22448276879146 0.5268763495803751
1.8490315099637211 12.798279324453313 80.41571497020792 115.68475705575614 0.5382228346333146
1.8684020192177926 12.766328562278241 73.33586624982625 121.45433221623591 0.5500373594790635
1.8870772070494661 12.73249520310008 66.96087250669291 127.5546505436999 0.5623497729449741
1.9049983761139755 12.696661866971363 61.215061548402595 134.00845055231164 0.5751903981165928
1.9221361862242512 12.658827497814862 56.0367099091542 140.84132312805735 0.5885951437043406
1.9384467579590832 12.618920192712302 51.3575527795891 148.08096395340135 0.6026022834108068
1.953938272642042 12.577059151188472 47.13319206256735 155.7557250127844 0.61724702177623
1.9685481837084768 12.533115767455195 43.31172362419517 163.89944846237057 0.6325775720000005
1.982259998081104 12.487094973518694 39.85342525818815 172.54613640753556 0.6486361929698867
1.9950419824259198 12.438993540873373 36.72164864795533 181.7347372524142 0.6654748227668116
2.006874188614697 12.388816885743426 33.88079681128441 191.50748519869745 0.6831485729401686
2.0177141903654436 12.336524586116312 31.30646449024529 201.91046221869232 0.701716739491289
2.0275450757535145 12.282124612323305 28.973022663951973 212.99344931620567 0.7212413411056515
2.0363473172925195 12.225633993735698 26.852690951872393 224.81242698174452 0.7417942104870849
2.0440842655495324 12.167019677840596 24.926653341080335 237.42817762969258 0.7634510998366034
2.0507361769558385 12.10629077560711 23.172932506245335 250.90786193984712 0.7862954183145295
2.0563011630808163 12.043522020143543 21.57988635246127 265.32482957946144 0.8104159703193119
2.0607399012814445 11.978652004549327 20.129948086026864 280.76043208703135 0.83591098940617
2.064036593289806 11.911732966468328 18.809952099023143 297.3049789722446 0.8628891163322807
2.066185738522896 11.8428076031908 17.609355775577562 315.0588256173034 0.8914705192886858
2.0668411303984024 11.77550422581425 16.583751839727825 334.8201198991974 1.9215847034834512
