M[M_sun], R[km], Lambda[1], P_c[MeV/fm^3], rho_c[fm^-3]
0.24162668629717493 15.618656898711224 2160425.4255784233 3.5677272577965504 0.1711233750220791
0.2536415995673535 15.27738360129373 1723293.2221712605 3.7847960710397963 0.17388787970116223
0.266037704208808 14.981292383533454 1383020.2190230647 4.011352011259617 0.17666606326741935
0.2788109922728048 14.723579735817141 1116601.6568474348 4.24765190213511 0.17945662910886703
0.29196399554492064 14.498505103855095 905972.5379416774 4.494320544755221 0.18226613649777787
0.3054981665796945 14.30130577426812 738761.593967539 4.7515114097817595 0.18509024990998615
0.3194117941960474 14.12825771856264 605157.3104926274 5.019910274915445 0.18793566491597102
0.3337085413151744 13.976045169227804 497751.6772254697 5.299736368252004 0.19079891021467352
0.34838737540978293 13.84213817439666 411073.47509027395 5.591723859444758 0.1936863950207734
0.3634480531127273 13.724094835796627 340704.1650812156 5.8960330000226175 0.19659305266137334
0.378899848191791 13.620096691439812 283363.24572447874 6.21353072686556 0.1995266241649302
0.3947283342902825 13.52857755542428 236456.4170611842 6.544479420908094 0.20248337645627668
0.4109517308839616 13.44799660121516 197917.15129077408 6.889571513948063 0.2054668526271291
0.42755726819531936 13.377174638459758 166125.84312824425 7.249516382247206 0.20848020585479182
0.44455028032717103 13.31501264143935 139846.31371524156 7.624580160385776 0.21151909789287035
0.4619283408308235 13.260685353030121 118014.73756667502 8.015697468130627 0.2145894691056816
0.47969114018084547 13.21322997943206 99840.21696099984 8.423579654741237 0.2176930724941399
0.4978444355011777 13.17206600108814 84667.45727896242 8.848677348083921 0.22082751811081258
0.5163801496869822 13.136469865666333 71962.54388773293 9.291844234981486 0.22399593780529506
0.5352955936227389 13.105923937801732 61298.335849938725 9.753973935570516 0.22720138345474383
0.554599093107787 13.07987791614771 52318.72337104321 10.235875650727325 0.2304452053741129
0.5742768261460341 13.057899879467369 44746.80723435556 10.73803414187788 0.23372427489103312
0.5943324161557252 13.03958448412723 38343.452536923585 11.261666780416059 0.23704443861706143
0.6147667348292642 13.024530202441948 32914.76859360278 11.80772357231112 0.2404074764352543
0.6355641865680103 13.012456935540436 28305.686111087558 12.377183027227806 0.2438150204065184
0.6567327867152178 13.003052586139573 24380.775265017422 12.970752799304487 0.2472652337343956
0.678261458238512 12.995995927595892 21037.125872460605 13.589722102029812 0.25076248395789397
0.7001451980851404 12.991079842797545 18180.686195358474 14.235305795681182 0.2543096101641701
0.7223760771314994 12.988003445236195 15736.164949019887 14.908692921254687 0.25790859573758096
0.7449608548018393 12.986645319056215 13640.8830570103 15.610936710552387 0.2615595766267046
0.7678771932027446 12.986761536541044 11841.125663175713 16.343255738571063 0.2652639757189998
0.7911184171180942 12.988129025138955 10293.990520291485 17.10728783447092 0.2690267122220931
0.8146868548943799 12.990652277380441 8960.726058357499 17.904487190966407 0.2728502170342694
0.8385674477691892 12.994107609707278 7761.248978299164 18.73624669540986 0.2767358221070263
0.8627445114783644 12.99838793090162 6818.3875205884415 19.603854808710658 0.28068351201443437
0.8872137107520417 13.003328353696379 5958.598657707698 20.509422870196065 0.2846998870668943
0.9119710331636822 13.008820369360464 5214.02365833788 21.45474386546355 0.28878795834343646
0.9369874924878551 13.014713643370564 4567.728676955641 22.441336866303505 0.2929479329496833
0.9622604314965135 13.020919551425768 4006.859652787433 23.471155985105117 0.2971830437311404
0.9877833827781177 13.02730209091378 3518.6328315355236 24.54665599470827 0.30149966460204564
1.0135225629095417 13.033755884047263 3093.9970080977155 25.669820202544187 0.3058997368528191
1.0394814205529275 13.040221265384082 2723.1359974983943 26.842525848512572 0.31038390399363003
1.0656321786187908 13.046546302830059 2399.7037059847053 28.067907814599103 0.31496119834309616
1.0919560655701257 13.052668315896504 2117.158856661858 29.348068320119495 0.3196323962101912
1.1184510443356572 13.058509269560222 1869.7676148281084 30.685665818736375 0.3244015225350594
1.1450770435138282 13.063971836760388 1653.0670796669551 32.08419877699262 0.3292773065456775
1.1718370965780305 13.068981419374836 1463.0913690344782 33.54549882887766 0.3342567401277301
1.1986885899140134 13.073442659817704 1296.2701956206408 35.074157584400716 0.33935372898020877
1.225632287299367 13.077306351492492 1149.7919969128222 36.67226014209758 0.3445654182008238
1.2526240131497433 13.0804814686559 1020.8603132987854 38.34473960612315 0.349905530342084
1.279661970949485 13.082926283757368 907.3519682984443 40.0939374841523 0.3553712644459519
1.3067036481789696 13.0845181067992 807.3050238556132 41.92528644744891 0.36097695708803557
1.333735913801586 13.085226284376338 719.0213205803138 43.84217400798319 0.3667240203377908
1.3607417004958193 13.085036625094506 641.0804608432921 45.84944664782853 0.3726210970384268
1.387670869776025 13.083786857490301 572.2083980631849 47.95235393649236 0.37867769262128653
1.4145240473252845 13.08150376022531 511.18859847120234 50.15555209789689 0.3848989607294757
1.441245233557616 13.078059670092179 457.18077855160345 52.464443894638784 0.3912928358297207
1.4678380868878818 13.073468118041863 409.30063173408666 54.88534768646829 0.39787051737422285
1.4942448208952073 13.067612211315359 366.81024615476275 57.42444719613094 0.40464105608062345
1.520455477037723 13.060477491090914 329.0812699345399 60.08836370532221 0.4116142119077106
1.5464372300732896 13.052003942785067 295.5067310047 62.88419543902483 0.41880051243831334
1.5721528806256808 13.042133541538659 265.6668229171316 65.81956071979351 0.42621131602662465
1.5975752203622278 13.030820471143103 239.0984019458592 68.90264527458262 0.4338588802676206
1.6226635752980123 13.018017045387024 215.40274217362432 72.14225412426488 0.4417564364145255
1.6474146125478797 13.003687476077687 194.24671854756895 75.54786853991232 0.4499182704459178
1.6717636090629735 12.987767931926085 175.36002831381865 79.12954895581568 0.458359144803575
1.6957020337978133 12.970234499480927 158.48441785311823 82.8972136561689 0.46709120974391505
1.7191643678241604 12.950997897967056 143.39747067627465 86.86371464330801 0.47613653818042634
1.7421697702449956 12.930120249169244 129.88897570912212 91.04077320744447 0.48551007501858606
1.7646516978065776 12.907485685679216 117.7742233084261 95.44215470562615 0.49523248345121007
1.7865805066747231 12.883068329890952 106.90709742373225 100.08183259586993 0.5053225254437034
1.8079205100413998 12.856832489175124 97.16050698607837 104.97615595511475 0.5158052480873844
1.828633991038593 12.828716628727598 88.39958504026241 110.1415717970994 0.5267028833305879
1.8487171161199867 12.798771754916121 80.52710118897295 115.59573098202057 0.5380389374855131
1.8681075225890718 12.766888478565063 73.43912398624866 121.3589546000606 0.5498432056045276
1.8867823285769543 12.733060712754872 67.06128123477158 127.45253651134658 0.5621450666491973
1.9047093598617706 12.69726713189535 61.30368295715661 133.89908883882077 0.5749744841376512
1.9218568228465152 12.659476966177419 56.11897870346968 140.72386046288568 0.5883662817637922
1.9381764409448332 12.619610190327636 51.43191326210913 147.9546969149674 0.6023594024802023
1.9536803652049135 12.577801515756413 47.19989836252761 155.62029689723957 0.6169903719407271
1.968303162222985 12.533894570155573 43.37276845336578 163.75396843992138 0.6323057077215606
1.9820281955973096 12.487925369055834 39.911261024806414 172.38940590000715 0.6483468072242947
1.9948240148607665 12.439872988508306 36.77464329159705 181.5661179578943 0.6651676803838047
2.0066645166110058 12.3897277513515 33.93034497645396 191.3258821302111 0.6828221029259496
2.0175255909742633 12.337498444047828 31.35083266172871 201.71466747815558 0.7013692231403947
2.027371944305662 12.283145119676286 29.013401971169397 212.7826227461684 0.7208725126347243
2.03619262778728 12.226706575675703 26.890644798462496 224.58461720415463 0.7414004358631391
2.0439480399609633 12.168143439771974 24.961140569261723 237.1822748150059 0.7630318129485453
2.0506207588389986 12.107469302477314 23.205530386045503 250.64188413037573 0.7858475556807041
2.056198237374448 12.044734434560413 21.609291293344576 265.0367712870094 0.8099367869045969
2.0606649758526525 11.979938044693764 20.157552499929043 280.4487889820319 0.8353998221796736
2.0639874788630683 11.91308835411309 18.83480009599076 296.9668692839007 0.8623413180542926
2.0661565194820457 11.844207127200338 17.630752653014643 314.69153433025537 0.8908825581787582
2.0671634828035215 11.773349162824033 16.534652670828077 333.7323278278704 0.9211502365921043
