M[M_sun], R[km], Lambda[1], P_c[MeV/fm^3], rho_c[fm^-3]
0.24162668629717493 15.618656898711224 2160425.4255784233 3.5677272577965504 0.1711233750220791
0.25364394534639934 15.277300498303394 1723281.031635896 3.784818941832411 0.17388816477455896
0.2660398383752187 14.981274926949823 1383006.2540384366 4.011400090065444 0.17666664427141363
0.2788147753674104 14.723549065120105 1116410.7619317337 4.247726815365304 0.17945749798944546
0.29196896883853596 14.498440374671642 905930.990682363 4.494424258014279 0.1822672913689881
0.30550455142889965 14.30126047036343 738641.8608977456 4.751647444409689 0.18509171934359378
0.319420527584319 14.12815114107963 605109.682858601 5.02007963278978 0.18793742206928338
0.3337196899445715 13.97592018577392 497696.48838680406 5.2999435078525785 0.19080099576674453
0.3483995545427633 13.842038831334941 411012.8344425621 5.591969297753948 0.19368876970393256
0.3634619996756552 13.72400231885898 340660.64482982113 5.896322250849858 0.19659576936635478
0.37891536190280783 13.620007147856295 283304.8495302869 6.2138672902586 0.19952969321782602
0.39474744319792265 13.52846564862556 236404.83081303223 6.54486294723506 0.20248673946404547
0.41097192117790077 13.447882356298186 197861.55095478543 6.890009406747193 0.20547058190596107
0.427579617404795 13.377072373078118 166093.03382053899 7.2500127502811935 0.20848431218032878
0.44457463400700853 13.314933963730027 139809.31060715512 7.625133631567636 0.21152350387935875
0.46195576013838685 13.260578959680045 117981.07594677733 8.016317695759525 0.21459426706782364
0.47972039192343824 13.213157638963411 99815.72378094794 8.424271474806686 0.21769827401388536
0.4978769808701265 13.17199300136163 84648.71853426822 8.849438209593213 0.22083302707323096
0.5164145853848273 13.136417078195306 71941.01136918715 9.292686450297664 0.22400186705362696
0.5353337974552392 13.105844791546138 61279.10323970786 9.754903214584326 0.22720774579076844
0.5546400837725891 13.079826150312739 52302.98954382383 10.236898050261905 0.23045201415617386
0.5743219537050837 13.057842381295286 44730.804265243256 10.739145219537887 0.23373140835377915
0.5943791897283393 13.039526882417382 38330.67243552584 11.262883244113672 0.23705203910425762
0.6148149872542376 13.024514886991545 32903.955625820774 11.809052607622029 0.2404155591873911
0.635619207459649 13.012433315588654 28292.91120886593 12.3786322679873 0.2438236014685933
0.6567886895215312 13.00301571973352 24372.189631010835 12.972315590416446 0.2472741660075389
0.6783203391162002 12.995974769227265 21029.099044446488 13.59142063391485 0.25077194092836597
0.7002073885937358 12.991069428371652 18173.69506977792 14.237149174668412 0.25431961058514196
0.7224420473566371 12.988003361475718 15730.55869597559 14.910690838733634 0.25791915948041283
0.7450299078524802 12.986637115208277 13634.932160881037 15.61307998825229 0.2615705316406142
0.7679499370985711 12.986748220098734 11837.159777112487 16.345573398720532 0.26527552867355564
0.7911927384787439 12.988136940166372 10289.45274402797 17.109791507720434 0.2690388867372906
0.8147656038150256 12.990673840871471 8956.75597552359 17.907189279014037 0.2728630382488469
0.8386492353380506 12.994130076812725 7807.971010025779 18.73913521391268 0.27674909335498715
0.8628275494919653 12.998400198999857 6814.87502786133 19.606967312265315 0.2806974758549309
0.8873083043221444 13.00335137626168 5955.5593004372295 20.51277433759625 0.2847145737166952
0.9120640928716595 13.00885349289896 5211.538221021345 21.45835030114742 0.28880340005665794
0.9370840460363561 13.014734121052761 4565.480523167385 22.445183248001296 0.2929639086294583
0.9623615412631378 13.02093568898416 4004.622493543084 23.475290577711437 0.29719983554022184
0.9878863135130986 13.027332662234857 3516.7564475394583 24.551098257166455 0.301517311601951
1.0136285782054266 13.033790059202996 3092.0441017812095 25.674552940565903 0.30591800140031883
1.0395928012067184 13.040245773952035 2721.6251872108 26.847606915048225 0.3104030993480564
1.0657427422245611 13.046567389129233 2398.502428393299 28.07336099113767 0.31498137201433524
1.0920736895873444 13.052695005601121 2115.905952900603 29.35387428106979 0.31965329410473403
1.118572011246814 13.058530548426715 1868.7177350714278 30.691893874012926 0.32442349240361534
1.1452018341920795 13.063987044645211 1652.1775726284159 32.09082860115761 0.32930008596849697
1.1719646886895991 13.069003123931106 1462.1581141526833 33.5526081802879 0.3342806993749874
1.1988203620733895 13.073461194408694 1295.515465704882 35.08178001331205 0.3393789342861734
1.2257660310288812 13.077324608584954 1149.1576907087153 36.68037353079841 0.34459159073684714
1.252761171780532 13.080491263231908 1020.2807846785621 38.35343548837601 0.3499330721230853
1.2798027368156215 13.082933382825864 906.7863576079578 40.10319679678593 0.3553999096659039
1.3068453463456287 13.08451911505277 806.8171192456507 41.93514565614831 0.3610067629695974
1.3338823104361728 13.085231445431848 718.6542193343271 43.85274363675903 0.36675543874072203
1.3608895840167328 13.085035188404241 640.6853887135422 45.86070455213716 0.37265383349488557
1.3878206300860596 13.083776681749162 571.8714449922738 47.964348196023984 0.3787118321557447
1.4146775543496086 13.081486094733059 510.8677344218497 50.16841421578717 0.38493500180123896
1.4414001566433268 13.078034100710607 456.9169549545421 52.478153454989496 0.39133047714591535
1.4679944292924876 13.073437395754612 409.0508060264037 54.89996538557883 0.39790986559129254
1.494402719315953 13.067575596499687 366.5572621883984 57.440038646381936 0.4046822260994199
1.5206145823043333 13.060432568334662 328.86710752950626 60.10499987528603 0.4116573275504658
1.5465979801018344 13.051946374526556 295.3151074854763 62.9019531374868 0.4188457071926987
1.5723139666420043 13.042068273788862 265.4944950372625 65.83852312857401 0.42625873386409446
1.5977378500589785 13.03074302826125 238.9410425980599 68.92290253564373 0.43390867654408244
1.6228250635407693 13.017923072589435 215.2584350368368 72.16390398726028 0.44180877886233966
1.6475763649141109 13.00358677077806 194.11648626532045 75.57101707710343 0.4499733402673141
1.6719257133812837 12.987653790245176 175.25006925086123 79.15419049955653 0.45841663324320486
1.6958633989783283 12.970108776721498 158.37462257346616 82.92358858495939 0.46715181925345933
1.7193435099123313 12.950900406968781 143.29301403725108 86.89195870630117 0.4762004970867625
1.7423294212377136 12.929960387523096 129.78992522235632 91.07089816184507 0.48557709195353027
1.764809334179712 12.90731752597537 117.68835683715096 95.47445070684309 0.49530334808922666
1.786735899095335 12.882885307652773 106.83950367117461 100.11632776343285 0.5053969645187737
1.8080753458433696 12.856633761185108 97.09214024381416 105.01302913570306 0.5158835483636529
1.8287859845542795 12.828502123540707 88.33996010904049 110.18109253065812 0.5267856321345784
1.8488663138555355 12.798540680577954 80.47272224916276 115.63812442620795 0.5381265077123514
1.8682530532008823 12.766636025846239 73.38713653200078 121.40437234060907 0.5499356594805391
1.8869235465435392 12.732789889836319 67.01449472886809 127.50123349725641 0.5622428011113582
1.9048469355685904 12.696979326228316 61.262822252436195 133.95116507723745 0.5750772988018142
1.921990354030658 12.659165823284736 56.07972470646505 140.77979389670477 0.5884752613632817
1.938305554461511 12.619295652923022 51.39740833857766 148.01482243846053 0.6024750569160726
1.9538035329485897 12.577443804794164 47.166947141044496 155.6847843422754 0.6171125821043543
1.9684202721927397 12.533521834523055 43.342140797846106 163.82327866967478 0.6324352861942297
1.9821376206180505 12.487526148068858 39.88276222434242 172.46403602959776 0.6484846035986943
1.994927060398879 12.43945804570636 36.74800267902236 181.64640862682538 0.6653139309505558
2.0067673988653043 12.389301378974372 33.90753199057284 191.41235463398831 0.6829775555830715
2.0176158566081503 12.337034647381325 31.330754732055315 201.80789686006892 0.7015346960969707
2.027453916988146 12.282654727034602 28.99435505816371 212.88300899079323 0.7210481323637772
2.036266878421029 12.226195398238682 26.87266541797935 224.69308927212614 0.7415879324149816
2.0440144444456334 12.167607366796814 24.944485228205878 237.29936106186648 0.7632314557551684
2.050675505745518 12.106908497611325 23.189719988635456 250.76863567968192 0.7860611535486295
2.0562511756077444 12.044168903092997 21.595845449284745 265.1739760744599 0.8101651036423447
2.060700401957809 11.979329242267205 20.14386058356065 280.5971738319087 0.8356432078697429
2.064007865402597 11.912435182456122 18.822971630764673 297.1278544731342 0.8626021429063566
2.066172030861393 11.843543525374605 17.620283852158824 314.86641228065315 0.8911625033814994
2.067169034715411 11.772659662986241 16.524734243407565 333.9222517098984 0.9214502061927549
