M[M_sun], R[km], Lambda[1], P_c[MeV/fm^3], rho_c[fm^-3]
0.24162668629717493 15.618656898711224 2160425.4255784233 3.5677272577965504 0.1711233750220791
0.2536380582380882 15.27745623535366 1723388.9119368286 3.7847194505497597 0.17388692466371689
0.266027869702997 14.981539731821007 1383324.9179588442 4.011190943253578 0.17666411685562222
0.27879740000418607 14.723837886967848 1116741.7554261792 4.247400941091846 0.1794537183389554
0.29194493718198816 14.498797495941206 906196.268360096 4.4939731090523996 0.18226226772059134
0.3054734838492702 14.301647852084795 738971.9545000925 4.751055706762814 0.18508532744765924
0.31938387457283274 14.128548057916676 605369.2802832715 5.0193429517504375 0.18792977871916744
0.3336734120049565 13.976385656337825 498014.16251067945 5.299042494081524 0.19079192405312223
0.3483463574123381 13.84248514508457 411288.77992632665 5.590901705943977 0.19367844045948668
0.3634006134315362 13.724440613913375 340918.23043038097 5.895064102589008 0.19658395257163633
0.3788455402683199 13.620438315319348 283541.5723386616 6.212403366496119 0.19951634399579116
0.3946681680820113 13.528879663293067 236628.80243711048 6.5431947721778 0.20247211182238742
0.41088299439728765 13.448293201577693 198057.5672391763 6.888104785050644 0.2054543613483498
0.42748178577099166 13.377445247682276 166264.33289004932 7.247853816887998 0.2084664518776541
0.4444665042111895 13.315300964599802 139958.26247159974 7.622726357483906 0.2115043404297801
0.46183780319351514 13.260910009624011 118114.65397214776 8.013620103907522 0.21457339901393907
0.47959085295982395 13.213484923160326 99935.5237171103 8.421262539040935 0.21767565102334197
0.49773722707339585 13.172283671162816 84753.11656656514 8.84612902755625 0.22080906718137863
0.5162635040657774 13.136673565538524 72038.73437105556 9.289023484359511 0.22397607954506307
0.5351692677110673 13.106113592145087 60770.541049508516 9.75086164004864 0.22718007503216706
0.5544648280962491 13.080046830454586 52379.51193957915 10.232451534476025 0.23042240209563133
0.5741301919013353 13.058054886341985 44796.355765734326 10.73431308421124 0.23370038454817388
0.5941819464196605 13.039691459048814 38388.55551977245 11.257592842943398 0.23701898458200904
0.6146015128490115 13.024646344145829 32676.953483427133 11.803272701845891 0.24038040771671232
0.6353897825682789 13.012545091797978 28108.75549753886 12.372329670549128 0.24378628332149047
0.6565445834949035 13.003107892200394 24413.294090961364 12.965519242889156 0.2472353208720464
0.6780662206260464 12.996048052828822 21065.935234676934 13.584034058042842 0.2507308144528927
0.6999398433763394 12.991115016455216 18205.446689800814 14.229132783498477 0.25427612127180493
0.72215872663821 12.988041586178637 15758.443984401521 14.902002502554216 0.25787322097193915
0.7447311003602218 12.986654910203272 13659.599207615423 15.6037596169284 0.26152289208485313
0.7676373405599203 12.986745943769096 11858.533387423435 16.335494819254137 0.26522528948271074
0.7908673569533887 12.988102577147131 10309.450210321216 17.098904162206352 0.2689859452628201
0.8144256961812408 12.990611353696114 8974.78877240437 17.895439258635495 0.27280728524231745
0.8382928585272481 12.99407510596675 7823.281687296061 18.726574625050745 0.2766913839481898
0.86245695490892 12.998326000444326 6829.072706739812 19.593432898705426 0.2806367554769956
0.8869137299974023 13.003285788248567 5968.425704601698 20.49820099085443 0.28465071105163936
0.9116615115141671 13.008746955147036 5222.595931056522 21.44266845562637 0.28873625493539523
0.9366667370055447 13.014637911887913 4575.8126875745165 22.428458212618185 0.292894442354268
0.961926270503104 13.020826805914496 4013.6114476951693 23.457312551224042 0.2971268214328644
0.9874379985272518 13.02721322127586 3524.812785016551 24.531782662127128 0.30144057991240325
1.0131651077961794 13.033678017986341 3099.2690243299835 25.653974523764923 0.3058385853267045
1.0391109492076331 13.040121553950101 2728.050503392897 26.8255142104996 0.3103196370884949
1.0652503628615946 13.046454566448539 2391.7570875216174 28.04965063830457 0.314893657109154
1.0915619777505805 13.05258738843659 2120.954685950605 29.328630286468282 0.3195624312240603
1.1180455311571962 13.058422367125935 1873.263246124201 30.664814988723855 0.32432796988109014
1.144662068833506 13.06388989906552 1656.2974317924113 32.06188854092437 0.32920030303470055
1.1714097986312575 13.068906374861836 1465.8866795698125 33.521698254703956 0.33417652973882284
1.198255530242741 13.073382601220372 1298.8784022168663 35.048639782565324 0.33926934852743085
1.2251834220688982 13.077250102084731 1152.0927194078108 36.645099128190495 0.3444778009743942
1.252164453366187 13.08043009473235 1022.9111161562688 38.31562307268995 0.3498132955471464
1.2791939766922853 13.082886346001315 909.1572459824031 40.0629412940084 0.35527537258880476
1.3062251910105638 13.084496815952628 808.9866136715744 41.8922825553204 0.3608771813220633
1.3332496245626388 13.085230454501371 720.567931246685 43.806792628783356 0.366618848580907
1.3602465620500221 13.085045920713785 642.480730718269 45.811761876483416 0.37251151484244444
1.3871669386837127 13.083815440731426 573.4205681828179 47.91220491567516 0.3785634155476549
1.4140064134884618 13.081540697980756 512.3453015264365 50.11249888615358 0.3847783208856089
1.4407354627066256 13.078152566831449 458.1890764820049 52.418554796966646 0.3911668415606721
1.4673104876751617 13.07356362653666 410.2272878715883 54.836419650240224 0.3977388119002123
1.493716221774406 13.067743123399051 367.6096039398436 57.372260728035236 0.404503255052635
1.5199213361313304 13.060640402179931 329.7937671086694 60.03268140006615 0.41146990114469073
1.5459002013100998 13.05219542001183 296.17341322940877 62.82476036129774 0.4186492454401997
1.5716119521395573 13.042356894241198 266.26391218558274 65.75609462315795 0.42605261123917154
1.5970275456666896 13.03106947384992 239.6327863757175 68.83484663897086 0.4336922180721503
1.6221217574755022 13.018301236604742 215.8822436796816 72.06979599151079 0.44158125581254215
1.6468699524340744 13.004017928258817 194.68765987789334 75.47039612419795 0.44973396540489907
1.671224243395693 12.988145001872768 175.77181707272175 79.04683665822306 0.4581657269907885
1.6951486091532144 12.970639722657857 158.86440645268098 82.80894657255512 0.466888372242846
1.7186434970321882 12.951504263374925 143.7230644542515 86.76919423876215 0.4759224959690538
1.7416422036021262 12.930651526703437 130.18838589383435 90.9399601246808 0.4852858030173987
1.7641245316849716 12.908059259302547 118.04924877128136 95.33407859722585 0.4949953403371575
1.7860555277478674 12.883686621064644 107.16274047716621 99.96639938217554 0.5050734255764792
1.8073985729967472 12.857487919517757 97.38941249275577 104.85276752728988 0.5155432325022661
1.828134279012954 12.829465088437772 88.61073660325468 110.00905422521467 0.5264249729873812
1.8482185428207452 12.79955340067606 80.71896610588217 115.45387653735666 0.5377459151530432
1.8676190989972001 12.767728874793162 73.61624755708894 121.20698378068673 0.5495338487073747
1.8863059206794779 12.733965467015617 67.21786841635107 127.28959682284301 0.5618180479944892
1.9042475707028985 12.69823427099028 61.449722071134644 133.72484571260097 0.5746304739865901
1.9213993729370444 12.66047926764891 56.25295212078032 140.53671608274692 0.5880016533438709
1.937746290986956 12.620716255258577 51.553990296768085 147.7535315138725 0.6019724508225934
1.9532670361274198 12.578974142761812 47.3113995015577 155.40454255605792 0.6165814958668738
1.9679156793705581 12.535157387995524 43.476354474950966 163.52164147193645 0.6318706908006764
1.9816573928013155 12.489250760995313 40.00130619323597 172.13973029146192 0.6478858085120822
1.994487648085865 12.441302454316736 36.856970466309185 181.29751193803412 0.664678410794196
2.0063369284955304 12.391197873131965 34.00947551916082 191.0366030603058 0.6823020624726001
2.0172305851857364 12.33906780954272 31.425051731322718 201.4027931296279 0.7008156769356259
2.0270927707980286 12.284764652776806 29.079990944768127 212.446507510354 0.720284027896191
2.035944673952713 12.228418467243529 26.95071142757538 224.22177301595045 0.7407732510457332
2.043729297197527 12.16994203063186 25.0153011862481 236.7905294288937 0.762363699265684
2.0504317114020334 12.109354687158266 23.25684658388757 250.21775704570612 0.7851325732851714
2.0560431778598596 12.046698983916693 21.656286625518884 264.57785726095756 0.8091731273029037
2.0605360487181064 11.981972832522384 20.20182969104227 279.9516174850886 0.8345829170996881
2.0638948523005256 11.915215850956914 18.87426432491458 296.42845077044745 0.8614689835880688
2.066105327626879 11.846432709078679 17.66771256170464 314.1066718136923 0.8899463083233442
2.0671491067080003 11.775663054342289 16.56892763642044 333.09716772931864 0.9201470519526724
