M[M_sun], R[km], Lambda[1], P_c[MeV/fm^3], rho_c[fm^-3]
0.24162668629717493 15.618656898711224 2160425.4255784233 3.5677272577965504 0.1711233750220791
0.25364157911936547 15.27735138753457 1723242.1815024128 3.7847911982622366 0.17388781896434066
0.26603612751063743 14.981335258840316 1383198.306733198 4.011341767797061 0.17666593948121967
0.27881030133080337 14.723604169477877 1116489.9029119082 4.24763594152625 0.17945644398985638
0.2919624903029332 14.498507641330965 905929.1267072058 4.494298448275689 0.18226589044834995
0.3054955502556659 14.30134787739091 738761.9154522973 4.751482427263245 0.18508993684347222
0.3194096847231821 14.128268132534417 605191.2244780045 5.019874192965107 0.1879352905518099
0.3337068822440381 13.976050468979805 497778.42973498616 5.299692237061503 0.19079846588681204
0.34838472203700704 13.842162936964547 411083.8799443315 5.591671568932079 0.19368588909567858
0.363445368295138 13.724140752834668 340719.22111197625 5.89597137556565 0.19659247387143236
0.37889635207638644 13.62011349841822 283371.60376031866 6.213459022873609 0.19952597031086083
0.3947256534413875 13.528580672096224 236464.90175889505 6.544397711930396 0.2024826599789257
0.4109473876055327 13.448016442931124 197926.01331497874 6.889478222807919 0.20546605812063154
0.4275524716396715 13.377170338253748 166131.6552672396 7.24941063369842 0.20847933102414876
0.44454593990233043 13.315048031779948 139849.20379121823 7.62446224680034 0.2115181592249121
0.46192265303104824 13.26066946464795 118024.41540862959 8.015565333094665 0.21458844693435186
0.47968344652721184 13.213288953622873 99852.04758636639 8.423432268111535 0.21769196435272728
0.49783760733952154 13.1720803704018 84674.69940883291 8.848515253374826 0.22082634447586097
0.5163739229089555 13.1364886188151 71967.90026251528 9.29166480936749 0.22399467463778666
0.5352870986377258 13.105927498990123 61300.6910752546 9.753775962771904 0.22720002802817144
0.5545911855788273 13.079868131365775 52322.10988164597 10.235657840570177 0.23044375484343432
0.5742689597773515 13.057905180266946 44750.17816683404 10.737797440785156 0.233722755196697
0.5943224444129244 13.039604200221198 38347.02910287235 11.261407629284331 0.23704281943610073
0.6147554105842234 13.02454206040727 32917.9088927166 11.807440440551382 0.2404057545217602
0.6355530393948988 13.012461934618951 28309.085780889855 12.376874288776524 0.24381319234323903
0.6567216106474145 13.003055700818622 24383.64079155123 12.970419871914237 0.24726333085795624
0.6782493469564836 12.995996916116724 21039.158284308665 13.589360258826575 0.25076046931188195
0.7001322446207684 12.991069532185223 18181.930948748322 14.23491309697719 0.25430747975453527
0.7223622429593991 12.988008498998406 15737.511176173708 14.90826730275247 0.25790634533212164
0.7449459240689382 12.986652688550937 13641.737003902344 15.610480127444115 0.26155724287671867
0.7678619655527407 12.986756548025413 11842.381725655032 16.342762008856614 0.265261514600205
0.7911024518058183 12.988125913890796 10294.958859012826 17.106754480819856 0.26902411870389664
0.8146721680804784 12.990642243387454 8961.862441688829 17.903911571829166 0.27284748576262197
0.8385496355310704 12.99410817878198 7811.741723027298 18.73563136364857 0.2767329949759644
0.8627262142790693 12.998382592341004 6818.789009542629 19.603191765046382 0.28068053735567255
0.8871972896419238 13.00333170162202 5959.519651754697 20.5087089242081 0.28469675844487596
0.9119518323445727 13.008825886479498 5214.7058876408 21.45397560829224 0.2887846688887062
0.9369670393332348 13.01471102041585 4568.34233707797 22.440517497833103 0.29294452975953494
0.9622413565616077 13.020907392102623 4007.29590094162 23.47027522497713 0.29717946670256135
0.9877612807342241 13.027297295579547 3519.017749761038 24.54570969833678 0.3014959054157897
1.0134987748523665 13.03376443269346 3094.0993393104086 25.66881203238642 0.3058958461300177
1.0394581037634225 13.040207857117176 2723.468468584249 26.841443482203026 0.3103798150086138
1.0656069068415248 13.046544202166666 2399.9254562019764 28.06674618696986 0.3149569009773812
1.091931287863502 13.052665300085744 2117.23317511816 29.346831547507918 0.3196279445881718
1.1184249220945264 13.058500995252732 1869.9926419283274 30.684339138796158 0.32439684258560353
1.1450514181229 13.063961166279624 1653.2070847875978 32.08278651896054 0.32927245416618106
1.1718104605033817 13.068978809855945 1463.2555731794944 33.543984431190516 0.3342516364513835
1.1986611912522827 13.073433836897252 1296.4334745322815 35.07253390146733 0.3393483599009295
1.2256040707719884 13.077309110995637 1149.9547351026686 36.67053188479219 0.3445598431102851
1.2525949908591434 13.080478787514537 1020.9651650697781 38.342886895096306 0.3498996613597056
1.2796313586470283 13.082920121781529 907.4131083391375 40.09196514804308 0.3553651626969449
1.3066721579501555 13.084515730914394 807.4278317049773 41.923186335562264 0.36097060813163667
1.3337048013033042 13.085238225895445 719.1942814701636 43.839922581061515 0.3667173279326273
1.3607108338561933 13.085035897838749 641.1730849542383 45.847048622275445 0.37261412390586557
1.3876389083758314 13.083790998085286 572.2916998881609 47.94979907244831 0.3786704206534891
1.414491182726192 13.081507853543739 511.2578832302382 50.15281238860931 0.3848912837621297
1.4412198141524255 13.078083105698099 457.2597580802304 52.461523688234465 0.3912848180370412
1.467806093818399 13.07347591485737 409.3788680042121 54.882234056314616 0.3978621360418233
1.494211195244523 13.067621691580346 366.86177381245955 57.421126168704 0.4046322867384911
1.520421162061613 13.060488228242102 329.13192292658715 60.08482016649407 0.4116050281860646
1.546403384679548 13.052015602572496 295.55746034354394 62.880413031001154 0.41879088590917835
1.5721179814553998 13.042147742786986 265.69908371610353 65.81552172766234 0.4262012160295918
1.5975409596898178 13.030836818377514 239.1319324494654 68.89833050130541 0.43384827371808093
1.622628325900534 13.018034181324362 215.42795779595986 72.13764275279826 0.441745287592457
1.64737960686932 13.003709593573099 194.27735088305343 75.54293798098901 0.44990654076308517
1.6717291692825345 12.98779399920891 175.391336415482 79.12430041590837 0.45834690002001843
1.6956672837580542 12.97026258876959 158.5084685603697 82.89159594488682 0.4670783002597502
1.7191391825252273 12.951063494661382 143.41981299588718 86.85769885206349 0.4761229153730831
1.742136348126201 12.930152854437393 129.90493989303937 91.03435683183726 0.48549580094464295
1.7646212232251923 12.907531707132238 117.7841146360617 95.43527595652797 0.49521738993973863
1.786545977891963 12.883109492254048 106.91975036670591 100.07448548444124 0.5053066706959857
1.80788800469347 12.856874989989725 97.17611914515281 104.96830239555932 0.5157885710372068
1.828602451402055 12.82876271588298 88.41570279357173 110.13313703140524 0.5266851942905942
1.8486857866255217 12.798821593376584 80.54034747634076 115.58670178397813 0.5380202862780942
1.8680759203616122 12.766941101026367 73.44916445580262 121.34928132954279 0.5498235143706115
1.886751784703804 12.733119980522435 67.06914425727862 127.44216487853133 0.5621242508648937
1.9046815296039021 12.697327385993596 61.31492003986552 133.88799754619464 0.5749525864821914
1.9218287702628598 12.659542559133355 56.127882321703666 140.7119477384688 0.588343071246448
1.9381563849314538 12.619711161708754 51.44092369554703 147.9418914472669 0.6023347705259686
1.953654914652975 12.577876367697254 47.20776966652362 155.60656252093003 0.6169643439227901
1.9682783720160235 12.533972765048675 43.37890851957656 163.73917880683334 0.632278015109279
1.98200428878084 12.488008611176715 39.91648186973319 172.37351158912293 0.648317460117095
1.9948034121457052 12.439960938572264 36.77806804113784 181.54901822041037 0.6651365329748764
2.0066427139492835 12.389819299481456 33.935837012569245 191.30746596764538 0.6827889959696365
2.017506719873609 12.33759687354967 31.355821169249843 201.69481244909733 0.7013339824223536
2.027355370890257 12.283249309878492 29.017594122223556 212.76124368101378 0.7208351112393051
2.036176967430401 12.226815365630967 26.893879599940433 224.56151631065768 0.7413605054187754
2.043934163371986 12.16825770505677 24.96479481112644 237.1573395928411 0.7629892961041658
2.0506077074792306 12.107589288245059 23.20860744543867 250.61488039881087 0.7858020334931796
2.0561880961293966 12.044858921702383 21.612485697122327 265.00755204738 0.8098881643922515
2.060655978061337 11.980069304235423 20.15886444804448 280.41714778838207 0.8353478561419906
2.06398228072736 11.913224351062778 18.83754087469174 296.932586368041 0.8622857735877487
2.0661537674513837 11.844348357211743 17.633402379939593 314.65429322105564 0.8908229424876918
2.0671633769041415 11.773494195877849 16.5374706028795 333.69188300697897 0.9210863572282159
