M[M_sun], R[km], Lambda[1], P_c[MeV/fm^3], rho_c[fm^-3]
0.24162668629717493 15.618656898711224 2160425.4255784233 3.5677272577965504 0.1711233750220791
0.2536321678978566 15.27759053545723 1723528.6014657519 3.78461085351388 0.17388557105405358
0.26601594999792055 14.981786389198058 1383588.0034619174 4.010962663575774 0.1766613582304374
0.2787778819349499 14.724223826844845 1117118.8819833882 4.247045269059862 0.1794495930793707
0.29191890801762127 14.499209377644233 906608.2491169287 4.493480725364329 0.1822567849139484
0.3054403306242814 14.302080870529156 739366.4214649652 4.750409908717414 0.18507835159624483
0.31934075192972533 14.129067885926005 605737.1833523278 5.018538996769558 0.1879214373759427
0.33362280422904084 13.976921070677651 498329.357053258 5.298059235139291 0.19078202426709556
0.3480198899309073 13.844836797073823 412911.2133503331 5.587428050303934 0.21237112664276556
0.3614783314595712 13.73383734320453 348246.8243418724 5.908188329941151 0.24724344160521972
0.3741454394331337 13.636170214706748 297544.6403144341 6.249314481029179 0.2808437873534458
0.3862389019336348 13.54674497647098 256550.0464295948 6.616208408907335 0.31361557347750274
0.3979415979562142 13.462643605832469 222617.54640298884 7.0080359319538434 0.34467514860582166
0.40939253667901565 13.382004304606177 193966.51031163527 7.4252863242298375 0.37438858358238575
0.42071955402974426 13.303664391934914 169442.5042542487 7.869055940118469 0.4030242760515941
0.43203974169332027 13.22698245367952 148242.87240945638 8.33972094361194 0.43051408135042285
0.4434403598082822 13.151690261030922 129758.58358452254 8.837594153845123 0.4568384253367625
0.45501055010732216 13.077527462525191 113543.5083843882 9.36299054465631 0.48201650396398377
0.46681717654853255 13.004529836740085 99317.50177485369 9.916273528687595 0.5060945195885395
0.47892057937550103 12.932842801566103 86783.35696324885 10.497885726029674 0.5291342906691807
0.49137792737544383 12.862608115770646 75738.59465257749 11.108368033506911 0.5512006944991226
0.5042251952672886 12.794028196626668 66026.45026964355 11.748369578872634 0.5723075634001186
0.5175151129745952 12.727291312335126 57470.862457238545 12.418636542944734 0.592511168704962
0.5312855581764819 12.662679331094907 49962.29806486126 13.120072210738387 0.6120682183421753
0.5455407990605567 12.600264051122357 43384.21728057873 13.853743889415918 0.6311064377828278
0.5603097995745061 12.540367969389527 37628.604895412864 14.620852764821732 0.6496940186663683
0.5756102069436242 12.483041593291388 32600.699846144405 15.420182990396276 0.667739146660767
0.5914612516920176 12.428498712828889 28223.796571510084 16.253482030906234 0.6853537990667979
0.6078616206528216 12.37674265578389 24417.60409900572 17.12400103770085 0.702707020999818
0.6248093069022838 12.327862392644711 21111.269107878587 18.033502332729597 0.7198556163853497
0.6423412403117351 12.282038133667383 18246.67284579427 18.977479714684282 0.7365682890150812
0.6604064698331308 12.238849081449203 15767.748618054955 19.963652634943447 0.7531822757557155
0.6790289523295929 12.198592699835634 13625.356671685813 20.990988840782624 0.7696233785389454
0.6982105177995895 12.161327192569875 11777.07267040802 22.060449509837255 0.7859062490217132
0.7179231879502231 12.126726332911435 10179.096333796197 23.175394962459553 0.8021307852376236
0.7381857737096025 12.094999840941652 8801.963353309338 24.33612975107011 0.8182782311444302
0.7589506119336704 12.065692519343465 7615.122505517042 25.54464113756775 0.8343905457553236
0.7802166050735745 12.03884518844063 6591.681195265909 26.80520159201058 0.8505633802769577
0.8019796142345549 12.014446590408639 5710.351240183946 28.115848887490408 0.8667151625016077
0.824193939894831 11.992118785528017 4950.231184836758 29.481463098990513 0.8829518293509296
0.8468743576053307 11.971998380226829 4296.146665341194 30.904725453929935 0.8993089764741689
0.8699849624971744 11.953867687877226 3731.2125324560334 32.38773878151781 0.9158053746146074
0.8934935189009335 11.937396263458814 3244.072310721037 33.932917113317124 0.9324653414626921
0.9173831205352014 11.92265169019103 2823.6040902905447 35.54298300891722 0.9493173323146858
0.9416325712074454 11.909138126575114 2460.1351185002345 37.22096952257278 0.9663930266266497
0.9662100221683168 11.897200156153705 2146.117717181746 38.97022632967959 0.9837267560453514
0.9910860827712159 11.886493175696822 1874.620298068162 40.79442966161261 1.0013551708040627
1.0162336826655558 11.87670830219168 1639.5933183469817 42.69759581171989 1.0193170751738097
1.04162200672027 11.86778089930889 1435.7667016791454 44.684098074326386 1.0376533851900251
1.0672250159841983 11.859641519485324 1258.9193074409413 46.75546070235241 1.0563571495541249
1.0930040696063754 11.85210574072872 1105.3705729905646 48.918954530426845 1.0755103299042006
1.1189210579722493 11.844915911648126 971.8670984794996 51.1781771518751 1.0951334307939136
1.1449605427735614 11.838063604091365 855.6876537023766 53.53864677313072 1.115273082633168
1.1710595546672924 11.831445240784097 754.5062694878602 56.00465070965407 1.1359563082961206
1.1972004581996634 11.824922260499669 666.1665315021714 58.583601019251034 1.1572499518549557
1.2233404450245506 11.818242051003596 589.0829226079757 61.28107272649984 1.179192552386817
1.2494548132151688 11.811382794390438 521.6283222377662 64.10330981331447 1.201829470056472
1.275477706176802 11.804122837329775 462.5914918427457 67.05724019053173 1.2252123543452336
1.3013873630067858 11.796581331751456 410.85470618720683 70.15050072060174 1.2493988901273299
1.3271552361858656 11.788403247506496 365.42341055163087 73.39147146964042 1.2744527561453463
1.3527238374841586 11.779564616964526 325.52777175854476 76.78931874641003 1.3004437526476242
1.3780623401523713 11.769939893298185 290.39336340650175 80.35370692974698 1.3274444846048792
1.4031288965779947 11.759477482987396 259.44866290834796 84.09272986860002 1.3555092837591047
1.4278773631780073 11.748086875047028 232.1522955196334 88.01952379470963 1.3847435288573253
1.452272242083874 11.735547938738176 208.02379252269623 92.14482199909256 1.4152253295644952
1.4762971905948714 11.721810998663276 186.73927337704424 96.48053269786627 1.4470440096447872
1.4998504613489654 11.706995091599637 167.8250874081363 101.04115950859185 1.4803128159760652
1.5229310250365071 11.69077526919626 151.09007337619585 105.84131107405891 1.515144968755176
1.5455122898172506 11.673182770536755 136.2325942091188 110.89603818184345 1.5516583796794052
1.5675389526371843 11.654062163039344 123.02135337703592 116.22293507002765 1.5899947897833302
1.5889661435855253 11.633416797438183 111.26722713583183 121.84109807869444 1.6303106701833676
1.6097533776500144 11.611168942023617 100.78557902271328 127.76957295603577 1.6727664645789748
1.6298596039799544 11.587189202747753 91.448385688118 134.0304263874475 1.7175537356105564
1.6492833439769816 11.561523044225885 83.10515348080993 140.64755045686505 1.7648873480201275
1.6679426943917885 11.533996671543179 75.6383657575345 147.64660774173146 1.8150092308357901
1.6858303573671438 11.504612465900687 68.95924238947953 155.05483060133065 1.8681939170058623
1.7028982638283376 11.473363616720816 62.969407602621196 162.90317932219298 1.9247700758965443
1.7191038925155895 11.4401158812078 57.59425380113743 171.22428891715464 1.9851214227907386
1.7344458551169724 11.4049168953457 52.76131793403877 180.0545531369495 2.0497171067346804
1.7488633861504699 11.367672129521772 48.418946325155105 189.43309575583234 2.1191385094963424
1.762338403764997 11.32833135808084 44.506617930224095 199.40311833995938 2.1941334810470146
1.7748514147404157 11.286943840490073 40.98308050751992 210.01035493936254 2.275709209749714
1.7863679730225968 11.243435527527732 37.80084115184511 221.30698702863234 2.3652731445055726
1.7968574909194435 11.197768490637392 34.925201942408435 233.34811681843365 2.464938927078685
1.806335094057987 11.150001985212107 32.323388454546624 246.19420848680764 2.578102574957405
1.814748127992687 11.100039363549856 29.96681404743158 259.91251432560006 2.6823892780864877
1.8220699249714907 11.048027953441025 27.83556880710299 274.58789937647686 2.768447804594298
1.8282586221029116 10.993866894018144 25.907366017586728 290.30649932031923 2.8597061533257646
1.8333090387706097 10.937583238497863 24.162053417690316 307.1624481762904 2.956567735725965
1.837162647419199 10.879192994790325 22.57793601722711 325.26001212951144 3.059473950514883
1.8398510769571261 10.818657014147016 21.141863791994652 344.71412047053104 3.1689000164992733
1.8413456099722243 10.756046183733217 19.841607483899356 365.6530534212575 3.2853735857253987
1.841634152661519 10.691392119421804 18.658690894483822 388.2191202918922 3.409469062069394
