M[M_sun], R[km], Lambda[1], P_c[MeV/fm^3], rho_c[fm^-3]
0.24162668629717493 15.618656898711224 2160425.4255784233 3.5677272577965504 0.1711233750220791
0.25364461786943066 15.27727934446863 1723248.8006618742 3.784831502355026 0.17388832133541396
0.2660405218911584 14.98127025136835 1382940.8079099557 4.011426494875626 0.17666696335796161
0.2788165404921378 14.723487429974643 1116430.8867964114 4.247767957866216 0.17945797518045561
0.29197196863079666 14.498391213830915 905886.8414261679 4.494481217906695 0.18226792563060984
0.3055081094495976 14.301202222120523 738596.386528334 4.751722155849325 0.18509252636973075
0.31942481019790436 14.128123055347658 605033.2666258173 5.020172646213177 0.18793838711945102
0.3337239421426857 13.975913401769624 497664.45799312886 5.30005727216686 0.19080214118462022
0.3484063115953904 13.841982837263116 410979.0255384074 5.59210409709586 0.19369007392464757
0.36346988550014203 13.723934157677705 335699.7180846535 5.896481113811186 0.19659726144090656
0.3789245979451431 13.619949073550707 279371.3885513954 6.214052139437073 0.1995313788197608
0.3947572141219622 13.528438093977295 236383.2552945127 6.545073590804873 0.20248858652358723
0.41098327013235303 13.447848577975941 197849.4567539112 6.890249911343507 0.20547263014402714
0.42759205055170924 13.377020881789978 166067.1247583676 7.250285372921255 0.2084865675175628
0.44458844251594504 13.314894895784276 139782.50994049458 7.625437618838439 0.21152592381349752
0.46197095463123933 13.260559241719406 117968.00233438317 8.016658350148692 0.2145969023049311
0.4797368798759127 13.2131171099075 99805.08785848145 8.424651452864094 0.21770113091767748
0.49789409575696625 13.171960069344674 84630.03830993456 8.84985611035321 0.22083605285328858
0.5164345249184132 13.136377689656861 71929.85149503106 9.293149036987298 0.2240051236927609
0.5353540172122598 13.105819334879442 61267.94221525126 9.755413623873505 0.22721124032293752
0.5546614757820665 13.079789312150659 52299.41398220961 10.237459609427262 0.2304557539211502
0.5743457600936273 13.057820307367354 44321.60394243725 10.73975548864247 0.23373532647046827
0.5944025530546643 13.039539795646998 38323.463658243796 11.263551401134157 0.23705621376141278
0.6148417861180001 13.024507051348916 32897.30471154793 11.809782599981304 0.24041999875890085
0.6356481179179329 13.012417100253135 28287.347134083302 12.379428289389427 0.24382831477038247
0.6568191305840646 13.003005884831804 24366.337202419872 12.97317398538742 0.24727907224119158
0.6783521949467023 12.995970036857114 21024.45979890328 13.592353592434321 0.2507771353914478
0.7002411959277959 12.991059050779155 18169.39463710807 14.23816169945769 0.25432510358154004
0.7224765137334598 12.988014311881876 15726.467734789858 14.911788253962898 0.25792496192840375
0.7450661557151331 12.986639232721144 13631.668444899866 15.614257252272209 0.26157654903337396
0.7679884077933259 12.986748057551678 11834.072875379568 16.346846454943144 0.26528187453953184
0.7912344634694585 12.988133664066579 10286.820678290662 17.111166745808372 0.26904557405441754
0.8148088520928946 12.990678949966707 8954.482898558992 17.908673512275627 0.2728700808295454
0.8386936146621793 12.994142824626689 7806.168590094872 18.740721859015956 0.2767563831682845
0.8628764311038748 12.998414273401782 6812.9188059958415 19.60867700053203 0.2807051461479397
0.887358953781725 13.003362699803516 5954.1849134143 20.514615298309632 0.28472264109198664
0.9121169765965019 13.008854267386644 5210.149545122646 21.4603313271376 0.2888118822362685
0.937136797364507 13.01475024399025 4564.228694811583 22.44729608676955 0.29297268415883365
0.9624219345988686 13.02096027774937 4003.7310268988076 23.477561745327762 0.29720905942674136
0.9879423281221832 13.027343661665382 3515.793900523654 24.553538444578017 0.30152700530812576
1.0136860378579116 13.0338026038486 3091.3713795402928 25.6771527017859 0.30592803437955257
1.0396525582285936 13.040256655477792 2720.7891644233982 26.850398034470032 0.31041364369463637
1.0658057777490746 13.046578339091637 2397.578539034354 28.07635653483318 0.31499245383302715
1.0921389766476486 13.052709935369956 2115.185689571546 29.357063631864943 0.31966477380932523
1.118637928321228 13.05854884117563 1867.9633873308715 30.695315111711043 0.3244355610412861
1.14527065619555 13.064006115628407 1651.7208306897983 32.09447055906376 0.3293125993771441
1.1720348727295387 13.069014398340077 1454.8736573562953 33.55651358061856 0.33429386097676533
1.198891686705525 13.073474598251323 1295.0666014579897 35.08596728999067 0.3393927804749763
1.2258387861980353 13.07733644273844 1148.7729287748211 36.68483053210201 0.34460596833312357
1.2528366580761183 13.080495169173442 1019.9323553637598 38.35818030300775 0.34994801308949164
1.2798787808279162 13.082938770956567 906.4934909572496 40.1082833578062 0.35541564578639034
1.3069239701875588 13.0845202179399 806.5795909642839 41.94056179606964 0.3610231367811212
1.3339617120714529 13.085236671433194 718.421928524327 43.85855008323298 0.3667726985025156
1.3609713299091422 13.085033415187537 640.462550474204 45.8668891380881 0.3726718174307184
1.3879028515035345 13.0837692143284 571.6540142559152 47.97093733923427 0.3787305869843429
1.4147535460580736 13.081462211823379 510.7042485889954 50.17548017294744 0.3849548013918866
1.4414845477042568 13.078027300772387 456.75249807748105 52.48568500846193 0.3913511559699214
1.4680796255688937 13.07342364598335 408.8986434841821 54.907995886343286 0.3979314822550964
1.4944901878043673 13.0675533111373 366.43637035964787 57.44860414699458 0.40470484374021315
1.5207019593145037 13.060405038173451 328.739755913439 60.11413937176932 0.41168101420828385
1.5466859674275368 13.051913915459192 295.2044199323914 62.91170883535691 0.4188705362193905
1.5724022269309401 13.042030514774652 265.38947625317434 65.84894073569282 0.42628478437312534
1.5978168653993567 13.030692191895684 238.85470069101714 68.93403158491189 0.4339360339055956
1.622914006746175 13.017873390354843 215.17068544602063 72.175798192536 0.44183753524842245
1.6476665662933867 13.00352982225714 194.0485895560891 75.58373472615352 0.4500035952530174
1.6720145164988756 12.987596106541048 175.17885398934766 79.16772847625614 0.4584482171879605
1.6959523224910549 12.970036567710755 158.32353452127418 82.93807898260306 0.4671851181450416
1.7194322704410265 12.950822468615328 143.2389432188292 86.90747612272257 0.4762356364002428
1.7424101598674393 12.929869089970003 129.7383926790305 91.0874490558601 0.4856139116005486
1.7648958266527954 12.907224956090937 117.64614729214733 95.49219453061397 0.4953422820005833
1.7868226682740411 12.882785685120414 106.79425874442425 100.13527996736637 0.5054378625526442
1.8081604679570185 12.85652220387825 97.05830902699466 105.03328800308417 0.5159265681110009
1.8288692637321207 12.828382069462627 88.304208597781 110.20276526514665 0.5268309440572783
1.8489488514181314 12.798408773642072 80.43915444906614 115.6614166117353 0.5381746213301356
1.8683231240909244 12.766466512225247 73.36336226654471 121.42932635796929 0.5499864567152574
1.8870012512323286 12.732641376909816 66.98922531145519 127.52793394082339 0.5622963017795705
1.9049233904160443 12.696820141807546 61.24025705846951 133.97977793664438 0.5751337894704975
1.922063234929422 12.658996657484975 56.05761262857742 140.8105263263372 0.588535139823158
1.9383755810366918 12.619103180183798 51.37626886266569 148.0478584923158 0.6025386034093094
1.9538698725443508 12.577254066128669 47.15139551019738 155.72021735211086 0.6171797312048868
1.9684850650077308 12.533317014218312 43.327592063684705 163.86132337342482 0.6325063540170084
1.9821986470989041 12.48730995556188 39.86786883710325 172.50504275310354 0.6485603180300653
1.9949851311162659 12.439225346121848 36.73389368056152 181.69052603204932 0.6653942914158937
2.006820363850186 12.389060248864219 33.89330404260335 191.45986923467507 0.6830629731505781
2.0176648551670517 12.336779606145003 31.319352997751494 201.85912471564765 0.7016256204874117
2.027498572173203 12.282389744290935 28.983536779531622 212.93816993488267 0.7211446331352872
2.0363071384036115 12.225914896149693 26.862329480779497 224.75269391051893 0.7416909604514287
2.044048563264095 12.167314014468737 24.935529802073596 237.36369979337985 0.7633411592026552
2.05070551555581 12.106599676294834 23.18137662840113 250.83817337160454 0.7861781589978899
2.0562763288090777 12.043845453007984 21.58830015932777 265.2493716261881 0.8102905662208096
2.0607192735463014 11.978989422274354 20.13654692051016 280.67871383873705 0.8357769524592117
2.0640228162674092 11.91208767220159 18.81613482981747 297.2163196521248 0.8627454723476108
2.066180107781219 11.843178318480572 17.614312836351118 314.9625130701098 0.891316341843849
2.0671709789874617 11.77227744614162 16.520527240410747 334.0266219932697 0.9216150507183005
