M[M_sun], R[km], Lambda[1], P_c[MeV/fm^3], rho_c[fm^-3]
0.24162668629717493 15.618656898711224 2160425.4255784233 3.5677272577965504 0.1711233750220791
0.2536444442386335 15.277257509767132 1723162.4190168455 3.7848273798482066 0.1738882699503552
0.26604084311919113 14.98124044068293 1382992.543016985 4.011417828501974 0.17666685862995057
0.2788164956319061 14.723469722833766 1116412.6263122882 4.2477544543860475 0.17945781856043497
0.2919714998981615 14.49837665741024 905852.4369774477 4.4944625229342 0.18226771745775222
0.3055070032745588 14.301204953289005 738658.0647185904 4.751697634552706 0.18509226149292768
0.3194242219424921 14.128113429311435 605092.8055479149 5.020142117916413 0.18793807037658924
0.3337226601706191 13.975911498528195 497676.65965564887 5.300019933084687 0.19080176524201947
0.3484040951778472 13.842001540356659 410990.67080865696 5.592059853954731 0.19368964586008627
0.36346759026171344 13.723949761473522 340653.53145428747 5.896428972558666 0.19659677171922862
0.37892171461465973 13.619965360572658 283299.55723769 6.213991469024222 0.1995308255786475
0.3947527117747861 13.528456986325494 236399.50570173733 6.545004454176216 0.2024879802887529
0.4109795699490089 13.4478691275569 197857.63155542474 6.890170973732213 0.20547195787820446
0.42758721550159795 13.377049719118437 166065.72906558786 7.250195893508982 0.20848582727731668
0.4445839860539533 13.314909571235187 139791.050570013 7.6253378448937355 0.21152512954874325
0.4619659438146622 13.260552528741298 117977.33917816407 8.01654654126078 0.21459603737278948
0.4797311349281551 13.213132684367254 99800.55467988946 8.424526737072252 0.2177001932292723
0.49788954316243494 13.171960083063519 84639.12182803557 8.849718947468244 0.22083505973539624
0.5164283431686886 13.136381560404926 71933.46737413805 9.292997207136183 0.22400405480114358
0.5353471002327327 13.105828091121207 61270.73966438206 9.755246097500741 0.2272100933487127
0.5546546105078527 13.079791133591534 52300.86955845684 10.237275294412344 0.23045452645505235
0.5743376499442462 13.057852019924598 44726.39919849521 10.739555185815856 0.23373404046427537
0.5943952195214588 13.039528018224948 38322.074452849454 11.263332098016821 0.23705484355156708
0.6148326550941083 13.024495269392506 32898.941488767225 11.809543000894848 0.24041854159669296
0.6356369749526397 13.012431754530866 28289.24404649341 12.379167017815298 0.24382676776200493
0.6568091517718144 13.003008353981603 24368.60029908258 12.972892241135279 0.247277461906581
0.6783416797731049 12.995984626469564 21025.89576609011 13.592047374370296 0.25077543045130807
0.7002294490413755 12.991052667059392 18170.36154587797 14.237829365508732 0.2543233006536474
0.7224649024162294 12.987995254406483 15727.82629658405 14.911428056542057 0.25792305742886235
0.7450536470695793 12.986648341721951 13632.69736810059 15.613870846183678 0.26157457398176265
0.7679760687732925 12.986749163943786 11835.313649026972 16.346428607021302 0.26527979167244137
0.7912206088400878 12.988144574805922 10287.62598676565 17.110715358723507 0.2690433791118763
0.8147961663734796 12.990670438899796 8955.638757893275 17.90818634963776 0.2728677692776625
0.838678334625434 12.99414054816916 7806.411686186008 18.74020108167425 0.2767539904658568
0.8628607056337224 12.99840988135707 6813.420710492029 19.608115836540858 0.2807026285590189
0.8873416111712589 13.003368936716864 5954.806880945809 20.514011046489305 0.2847199931668193
0.9120993265185883 13.008854665606325 5210.605888991065 21.45968110132498 0.28880909815763584
0.9371196718944543 13.01473928380575 4564.727489333808 22.44660259571215 0.29296980379179516
0.9624041676582468 13.020964399531941 4004.0087656556525 23.476816285426874 0.29720603189258615
0.9879255484717295 13.027341750032912 3516.0797284110076 24.552737506614786 0.30152382356182095
1.0136682255589566 13.033794064992835 3091.68849276801 25.676299386273268 0.30592474127065
1.0396333156858497 13.040248858883727 2721.088738197055 26.84948190848118 0.3104101827356169
1.0657845837473328 13.046581650489733 2397.873445997046 28.075373309512063 0.3149888164550252
1.0921177418887336 13.052703369792152 2115.5248102830037 29.356016792175176 0.3196610058292049
1.118615853071018 13.058545483362161 1868.3841794994128 30.69419215824213 0.32443159975015895
1.145247498992606 13.064001924789384 1651.8702248968432 32.09327515717044 0.329308492093981
1.1720116298692669 13.069009430663739 1461.8831383657428 33.555231706996175 0.33428954093049124
1.1988691904499995 13.073466109088741 1295.2540024967745 35.084592893766875 0.33938823571926385
1.2258146770546288 13.077339533148717 1148.9123128876477 36.68336760198523 0.34460124914702356
1.2528097520855566 13.080501322092262 1020.0082004239935 38.35662290145982 0.34994310898132
1.2798546072807642 13.082940200702167 906.5562837117332 40.106613781484064 0.35541048067501907
1.3068988913915245 13.084522154235344 806.6587100941905 41.93878403888491 0.3610177623518227
1.3339359157710384 13.085236531400271 715.545996735762 43.85664421145482 0.3667670332659466
1.3609444275896032 13.085032723528254 640.5191610752631 45.864859145512256 0.3726659144880615
1.387875979635255 13.083772211556497 571.7075039693609 47.968774554252995 0.37872443100012404
1.4147336928805148 13.081479351074861 510.7314094793622 50.173160877288474 0.3849483024698585
1.4414572215407184 13.078024981185832 456.8101370948897 52.48321288429858 0.39134436844319376
1.4680512714614025 13.073430381871724 408.9526082640494 54.905359986183555 0.3979243868859227
1.4944611941225243 13.067561902490331 366.4640718991095 57.44579263652608 0.4046974198035702
1.5206736212446488 13.060412223070918 328.7895420743761 60.11113945045405 0.411673239369724
1.546657186948765 13.051925033595978 295.2383567267407 62.90850664910172 0.41886238640078594
1.572373085394013 13.042045080829418 265.41847207678114 65.84552128071454 0.4262762336050097
1.5977984748686944 13.030712953836334 238.88832478504386 68.9303786018053 0.43392705416464555
1.622884387541481 13.017890161730977 215.1974086008502 72.171894049435 0.4418280962784591
1.6476363052443515 13.003549720617661 194.06194670563872 75.5795602897344 0.44999366436770344
1.6719852169104945 12.987617249950423 175.19297553305742 79.16328476953919 0.45843785007102916
1.6959228532925512 12.970061275344145 158.33964762123216 82.93332264491195 0.4671741880948801
1.7194028397662324 12.950849172685801 143.2537571290978 86.90238266667154 0.4762241022283153
1.7423860103350475 12.929908601174132 129.757077879131 91.08201636144973 0.4856018258551885
1.7648675787299304 12.907256341450145 117.6609195304541 95.4863702559829 0.4953295022415454
1.7867950251873312 12.882819593182402 106.81228855524498 100.12905904094379 0.5054244380633115
1.8081326101914341 12.856558525217642 97.06962335342386 105.0266381623576 0.5159124471602794
1.828841886888025 12.828421165169532 88.31596724749512 110.19565131929778 0.5268160706888732
1.8489217786792158 12.79845302529062 80.44998950809104 115.65377107490693 0.53815882828932
1.8682976990275666 12.766512505034388 73.37649448647177 121.42113531831048 0.5499697827601931
1.8869760425155455 12.732689513555792 66.99692293509176 127.51918255052581 0.5622787865647703
1.904899091083919 12.696871834300513 61.24866493313717 133.97038586462847 0.5751152466041256
1.9220391255169664 12.659053913088472 56.063245001745315 140.8004384919356 0.5885154848855342
1.9383534016489326 12.61916203590165 51.38388409601967 148.03701447660202 0.6025177444055605
1.9538499352302185 12.577314472113637 47.157867012381885 155.70858651776996 0.6171576896095478
1.9684644323756357 12.533384002010344 43.331897237652456 163.84883522882595 0.632483026059114
1.982178121495015 12.48738050708286 39.87364939475283 172.4915822962385 0.6485354647681999
1.994966966183349 12.439303883743229 36.7386436738767 181.6760444620653 0.6653679130353695
2.0068031432308766 12.38913934443754 33.898928025540705 191.44427249721613 0.6830349347085933
2.0176487422329705 12.336863633155977 31.322439203502377 201.84230905696242 0.7015957743519734
2.0274839768776065 12.282476474512602 28.986541629730173 212.9200631902337 0.721112956468816
2.036293778988757 12.226007751707417 26.865116162671846 224.73312845999487 0.7416571411044106
2.044037396165211 12.167409942303669 24.938122235242908 237.34258030689432 0.7633051485381284
2.050695555909063 12.106701008267706 23.18367697599098 250.81534724393376 0.7861397513192748
2.056267909096695 12.04395226207489 21.590802482160317 265.2246225535975 0.8102493823261281
2.0607135596841624 11.979100270066217 20.139199094301492 280.651947740082 0.8357330498276625
2.0640174037556402 11.912202772297787 18.818805573806994 297.18728023176914 0.8626984232833188
2.065484050980565 11.847368153352098 17.719152815122897 315.7093280202572 1.5564999737340903
