M[M_sun], R[km], Lambda[1], P_c[MeV/fm^3], rho_c[fm^-3]
0.24162668629717493 15.618656898711224 2160425.4255784233 3.5677272577965504 0.1711233750220791
0.25364469998801376 15.27725536346646 1723263.233200601 3.784833383912541 0.17388834478812068
0.266040654538917 14.981270885790796 1382987.2815565518 4.0114304503084615 0.1766670111570331
0.27881734029499433 14.723472538488048 1116369.5939478313 4.2477741210169215 0.17945804666371612
0.2919723534078892 14.498366490106749 905838.6835962355 4.494489750525958 0.18226802064330563
0.30550878247360236 14.301180763315891 738606.9555052907 4.751733347687811 0.18509264726294636
0.3194259936044103 14.128097879252447 605067.3392573664 5.0201865797387635 0.1879385316851568
0.3337261523424987 13.975877127921391 497662.54694923316 5.300074314244437 0.19080231277006351
0.3484073232464881 13.841974299560077 410973.7126319786 5.59212429030188 0.19369026929947078
0.36347114553628285 13.723977318934233 340663.57475509885 5.896504911853207 0.19659748495715343
0.3789258413650401 13.619947538943483 283272.1723416175 6.214079830342683 0.19953163132747795
0.3947589786248012 13.528405323734168 236383.16204663002 6.545105145850283 0.20248886321870668
0.4109849431341348 13.447820998405184 197836.3180765559 6.890285939747529 0.2054729369770345
0.42759347054912344 13.377021022802307 166063.83002544544 7.250326212814392 0.20848690537553238
0.4445896967238737 13.31489980507894 139786.64770082367 7.6254831573678645 0.21152628632947293
0.4619731319238181 13.260529293501902 117962.68023784486 8.016709381681089 0.2145972970750914
0.4797390815478643 13.21311658654622 99808.51796367443 8.4247083753884 0.21770155889548404
0.49789681794983287 13.171957042329625 84628.90614300512 8.84991871400737 0.2208365061304932
0.5164373819678532 13.136366905678662 71927.55512455164 9.293218334979834 0.22400561155494858
0.5353571092192587 13.105814975898697 61266.36566436855 9.755490086125892 0.2272117638239912
0.5546650330258797 13.079801178399125 52293.835230861805 10.2375437344182 0.23045631416077259
0.5743492570546597 13.057814391769803 44722.155504439754 10.739846910859159 0.23373591342941846
0.5944075124807021 13.039500812677325 38321.72017653546 11.26365149555786 0.2370568391531834
0.6148460355469516 13.024482107467916 32895.719692138555 11.809891958002954 0.24042066383813232
0.6356516175955085 13.012427177683065 28285.879613747373 12.379547539298752 0.24382902085794428
0.6568236751883186 13.003016431649309 24366.27062306124 12.973302579564589 0.24727980723277573
0.678356755635187 12.99596802851056 21024.128581617657 13.59249335711996 0.25077791356377227
0.7002462287741025 12.991047195231054 18168.465184250672 14.238313384151974 0.2543259264784095
0.7224825637314405 12.987996008790823 15725.930049971175 14.91195265632715 0.2579258311856755
0.7450717270916797 12.98663920516808 13631.092073907768 15.614433617010404 0.26157745049292824
0.7679941323857835 12.98674929483286 11833.55217735436 16.347037170645322 0.26528282520947405
0.7912402668237815 12.988143914971745 10286.543206292317 17.11137276977396 0.2690465758791966
0.8148153744206675 12.990673549426713 8954.132628869294 17.90889586527756 0.27287113587864054
0.8387010787506425 12.994140688915053 7805.880878267517 18.740959554778474 0.2767574752573262
0.8628824784048048 12.99841205724943 6812.423973092166 19.608933130011387 0.2807062952393811
0.8873662413075619 13.003366274973887 5954.021542504039 20.5148910944304 0.28472384967335074
0.9121231991514693 13.008867309014438 5209.801103147463 21.460628107259566 0.28881315296280713
0.9371473910129904 13.014749861906934 4564.1208939922835 22.447612614530893 0.29297399883495073
0.9624301881218673 13.020957263976502 4003.541115066402 23.477901993381444 0.2972104412751849
0.9879519499515207 13.027353812106139 3515.5899117524773 24.553904014676682 0.3015284575445835
1.0136962748635263 13.033801361810042 3074.7062313735946 25.677542178745824 0.3059295374461499
1.0396605956282454 13.040263622445323 2720.730047139719 26.85081618029471 0.31041522337426664
1.065814556748544 13.046589063489476 2397.468447156416 28.07680530714104 0.31499411403693506
1.0921494153320677 13.05271414791193 2115.1134309699823 29.35754143998715 0.3196664936251895
1.118647819030918 13.058549406566158 1867.894673769654 30.695827660900996 0.324437369091766
1.145280416422626 13.064004136410308 1651.637848253005 32.0950161763099 0.3293144740642607
1.1720456943661943 13.069015701089475 1461.6399626995562 33.557098666761696 0.33429583277739267
1.1989025614144533 13.073471497974198 1295.0436321039417 35.086594606926226 0.3393948548420162
1.2258497998041256 13.077341752973268 1148.7061310489278 36.68549825921785 0.3446081223174373
1.2528477545924912 13.080501644132998 1019.870903986975 38.35889115046297 0.34995025147998166
1.2798897691950892 13.082940645114574 906.3573081095088 40.10904540621775 0.3554180033095918
1.3069358149195454 13.084519961067304 806.5490964981848 41.941373222441236 0.36102558984597305
1.3339741546077122 13.085241031597581 718.38892151194 43.85941998626087 0.3667752843041952
1.3609836537248123 13.085030205139091 640.4195885676046 45.86781569482273 0.3726745117318395
1.387915292475182 13.083769546015766 571.6103870841254 47.971924507814435 0.378733396784787
1.4147660109493023 13.08146200212638 510.6484976081652 50.17653877956389 0.38495776772428675
1.4414971479908545 13.07802188822714 456.73946851813184 52.48681337239502 0.39135425403452023
1.4680928794227968 13.073418548077893 408.8883172777802 54.90919900457775 0.39793472083300746
1.494497789486413 13.06755827135094 366.3743002766642 57.449887421312454 0.4047082322914343
1.5207158413530903 13.06040021237942 328.74475670954234 60.11550864499642 0.41168456292745553
1.546699337213684 13.051910198202078 295.1908991978361 62.9131704312257 0.4188742560970786
1.57241551865258 13.042026124800168 265.3767333442491 65.85050150272622 0.4262886872632262
1.59782943722603 13.030686401464806 238.83842576471386 68.935698944777 0.4339401325995184
1.622926970808178 13.017865742273008 215.15820166605954 72.17758019337924 0.4418418435568012
1.6476794529989518 13.003522486028004 194.03265476733418 75.58564010148294 0.45000812809577195
1.6720281081353507 12.987586447585048 175.17286710817248 79.16975675906593 0.45845294914855067
1.695965240543437 12.970026679128843 158.31268076448018 82.94024996518088 0.4671901070566825
1.719445490676437 12.950811084576634 143.23080410094303 86.9098009825262 0.47624090106384526
1.7424211080224223 12.92983607592784 129.73344601819733 91.08992876052721 0.4856194280306865
1.7649095950094695 12.907211362638712 117.63848907851305 95.49485297209364 0.49534811521479083
1.7868359323452738 12.882769812631752 106.78943461705262 100.13811946056491 0.5054439900557787
1.808173106765052 12.856506412580114 97.05241145197114 105.0363232745323 0.5159330135162832
1.8288817192824947 12.828364279438789 88.29889564410675 110.20601237806022 0.5268377329066234
1.8489605739830546 12.798390234335796 80.43644467220226 115.66490637093261 0.5381818299684139
1.868335832345398 12.766445461106589 73.36318487459366 121.43306511361878 0.5499940674516587
1.8870139096384317 12.732619721360857 66.9853976080926 127.53192847026187 0.5623042965139797
1.9049346195364225 12.696795782304955 61.23514011562839 133.98406490822276 0.5751422532834861
1.9220736997199694 12.658971561545076 56.0534753274324 140.81513088247206 0.5885441112495329
1.9383856661773675 12.619076653720006 51.37473106779177 148.0528082122179 0.602548124441805
1.953880349359204 12.577225639591639 47.14759182670749 155.72552622053692 0.6171897920419793
1.9642327973313054 12.537914589626457 44.11718997467826 164.83058628227386 1.4301782602786393
