M[M_sun], R[km], Lambda[1], P_c[MeV/fm^3], rho_c[fm^-3]
0.24162668629717493 15.618656898711224 2160425.4255784233 3.5677272577965504 0.1711233750220791
0.25363884770637013 15.277444502876111 1723350.6580919032 3.7847413466645103 0.1738871975882242
0.26603037303681115 14.981486715512512 1383243.4099905468 4.011236971768464 0.17666467308306044
0.27880096070209853 14.723796734990412 1116709.1603816468 4.247472657691255 0.17945455014343392
0.29195065351997945 14.498718217682558 906201.554067963 4.494072394049779 0.18226337328208
0.3054809225619437 14.301551126540362 738888.3753003355 4.75118592950524 0.18508673410181128
0.31939149606993333 14.128465139727734 605256.1500464992 5.019505069821545 0.187931460756727
0.33368337101879453 13.97630009712507 497917.1021921061 5.2992407734315075 0.19079392039717163
0.3483583762884327 13.842378736831023 411226.54060769605 5.59113663991015 0.19368071351023752
0.36341327030334064 13.724355600466069 340849.3532609297 5.89534096669481 0.1965865529379087
0.37885935604399185 13.620407042988017 283491.65812433395 6.2127255086755975 0.19951928154458357
0.3946854759969883 13.528797537157372 236574.63064174334 6.543561856256613 0.20247533065385231
0.41090293373910264 13.448198455948111 198025.8992657203 6.88852389412444 0.20545793065709453
0.42750351185190644 13.377362191091514 166231.95747564346 7.248328880782079 0.20847038195950138
0.4444896003937408 13.315233536473718 139927.57266872685 7.623256061598544 0.21150855721513126
0.461863200803591 13.260840791890542 116763.21408506804 8.01421368298304 0.21457799082797627
0.4796190972801617 13.213417453052392 99910.43632704842 8.421924618050381 0.21768062893192353
0.4977678796738239 13.172219585829453 84726.18531579908 8.846857164021678 0.22081433920049712
0.516296675663108 13.136619400798436 72017.8796769105 9.289829455769041 0.2239817536340326
0.5352057658487982 13.106033383785965 61345.64021208685 9.751750906684363 0.22718616342227146
0.5545025012877899 13.080017305026846 52362.63587558308 10.233429888213488 0.2304289175498658
0.5741724295044688 13.05799160654352 44782.57288426226 10.735376273463066 0.2337072105525054
0.5942257266247113 13.03967250542643 38374.750669360365 11.258756847839516 0.23702625730566418
0.6146474693330019 13.02462265972731 32944.481474728505 11.804544393082312 0.24038814172119974
0.6354393220566077 13.012542341109832 28332.453588803684 12.373716347224995 0.2437944939369838
0.6566012297885999 13.003091601575647 24405.46985785782 12.967014537542164 0.24724386736310855
0.6781223092319921 12.996032919330542 21057.07664042681 13.58565919180002 0.2507398627622533
0.6999992417216548 12.991101842323365 18198.188965513524 14.2308964626907 0.2542856893174991
0.722220714523406 12.988030331388389 15751.825673134656 14.903913992603247 0.25788332774037004
0.7447978327164003 12.986659678357768 13654.986560720183 15.605810138219297 0.26153337298952767
0.7677053844283918 12.986749468455194 11853.793272365167 16.337712122669807 0.2652363421841189
0.7909385783586849 12.98811662589582 10305.10766770606 17.101299366297393 0.2689975923292307
0.8145012313534513 12.990618747311691 8971.397606259934 17.898024218697753 0.27281955069297936
0.8383694291661515 12.994084485775222 7819.648354704697 18.72933787954761 0.2767040796728566
0.8625397136322374 12.9983462914215 6825.916432052915 19.59641035228479 0.2806501134334245
0.8870020680869312 13.00328502020441 5965.546030965779 20.501406961176084 0.2846647601106824
0.9117504506371509 13.008766354224385 5220.214839799976 21.446118240252567 0.28875102591415186
0.9367575616706048 13.01466347224771 4573.721448062835 22.432137447260043 0.2929097238003317
0.9620235613871668 13.020851426431244 4011.710315112119 23.46126737387194 0.2971428831427298
0.987535886675399 13.027239726878946 3522.94049361465 24.53603167065372 0.30145745920618033
1.013270367007416 13.033710662295302 3097.921899869801 25.65850127917652 0.30585605494764173
1.039218645702113 13.040141990234956 2726.6555296971583 26.830374010437033 0.3103379965375566
1.065359407201776 13.046488970776988 2402.797752133561 28.054866209844295 0.3149129517761838
1.0916746112553588 13.052606615752241 2119.732938928736 29.33418315534787 0.31958241814254795
1.1181616716067766 13.058447680584251 1872.2662791556854 30.67077139625552 0.32434898149462366
1.1447805823539567 13.063902004399752 1655.3929569912802 32.06827640602019 0.32922239475714254
1.1715318468549885 13.068932241092488 1465.0232564237813 33.52849719298173 0.3341994428618188
1.1983805825687721 13.073401628228762 1298.0881582360437 35.05592919893072 0.33929345265118593
1.225311627840482 13.07726581411045 1151.4481829875551 36.652857883818804 0.3445028295190215
1.2522967773560019 13.080443831123711 1022.3401903879999 38.323940355970244 0.3498396428772486
1.279327200839164 13.082896060017884 908.6550732591069 40.071795439214945 0.35530276435609504
1.3063623772663662 13.08450340117142 808.517610660103 41.90171012874556 0.3609056823047987
1.3333874538200312 13.085229732108532 720.0830452628006 43.81689922883842 0.3666488906230193
1.3603878285676865 13.085048900775506 642.0985299614921 45.82252634332942 0.3725428164497903
1.3873112670636056 13.08381097056948 573.0372706217527 47.92367318406494 0.37859605794152973
1.4141514973749838 13.081527088317996 511.9787212964234 50.12479658343057 0.38481278038861333
1.4408829852344407 13.078129492632362 457.9000813507639 52.43166241769916 0.39120283017620244
1.4674653911030038 13.07354027855002 409.954198395611 54.85039517614975 0.39777643150251724
1.4938673506301618 13.067704639148841 367.3775536668108 57.38716683461819 0.4045426153865566
1.5200742429176954 13.06059438472681 329.600547996971 60.048585876559294 0.4115111204715056
1.5460540332737018 13.05213872918167 295.9804117188894 62.841736572519316 0.41869245124742727
1.5717665957181823 13.042292290841717 266.09028116751523 65.77422201788677 0.42609794102121307
1.597182663197031 13.030995110922618 239.47895450209575 68.854211310088 0.4337398201894174
1.622274066979463 13.018226175291593 215.75347277308862 72.09049129377559 0.4416312904376584
1.6470246672160247 13.00392488273996 194.55318676997078 75.49252335625341 0.44978660556558087
1.6713792911096088 12.988037247650773 175.64731045359446 79.07050581625225 0.4582211597201857
1.6953162958882761 12.970535797259034 158.7618585771465 82.83415640337667 0.466946304360651
1.7187806304795366 12.951333136225111 143.6457738590791 86.79618976070338 0.4759836275442012
1.741795462034056 12.930504963948504 130.10309461093365 90.9687525801443 0.4853498556326831
1.7642767304245865 12.907899707128534 117.97161365108197 95.36494501651104 0.49506306815320567
1.7862050199518191 12.883509909419407 107.08540063987039 99.99936663116628 0.5051445674695576
1.8075501180579858 12.857307480267215 97.31829507709645 104.8880063642665 0.5156180622464493
1.828280638045955 12.829258878684685 88.55622220497358 110.04689978434631 0.5265043411208109
1.8483606075938304 12.799330294889206 80.66649758956187 115.49438812916495 0.5378295981222434
1.86775870709742 12.767491583960572 73.56090782006818 121.25038393777672 0.5496221955228267
1.8864419878799041 12.73371024148049 67.1718524313824 127.33612891096736 0.5619114375240687
1.9043792077671344 12.697957601245793 61.40834152374118 133.77460531107224 0.5747287150020832
1.9215198785839267 12.660154522838598 56.211378569817164 140.590159192946 0.5881057808459265
1.9378755614244045 12.620428653064582 51.51937138740126 147.8109778359998 0.6020829516813381
1.9533849921195146 12.578639048128506 47.280008588430505 155.46615422276724 0.6166982561427028
1.968023689061087 12.534781576088996 43.44749571039152 163.5879847072709 0.6319949141321605
1.9817620097803952 12.488865418570128 39.97607479308941 172.21102662189213 0.6480174493908422
1.994572842079603 12.440866803917508 36.834410750579075 181.37421286423773 0.6648181225947944
2.0064308364192733 12.390778414790853 33.9875695780781 191.11920598946932 0.6824505587490305
2.0173172571921287 12.338623907713199 31.406092739975758 201.49184671672617 0.7009737382683133
2.0271728905860837 12.28429688679985 29.061667195603913 212.542617693595 0.7204525095789435
2.036003092207493 12.22789247580826 26.933564775965873 224.3253774627448 0.7409523337984893
2.0437923203242376 12.169429358819915 25.00000155039171 236.90245416762158 0.7625546930399925
2.0504923776373234 12.108834366654818 23.242303117440045 250.33885577919665 0.7853367183768117
2.0560872938532784 12.046137148855186 21.64288371496775 264.7088862655894 0.8093911671792359
2.06057646381771 11.981402809030198 20.188262811621104 280.093571675771 0.8348161700198594
2.063925922330859 11.91461807174334 18.863181124757446 296.58217441898734 0.8617180434430781
2.066119959425443 11.845797124299313 17.65730442622791 314.2736524270005 0.8902136114426917
2.0671530092370123 11.775005552063464 16.559053825855557 333.2785050345139 0.9204334597411067
