M[M_sun], R[km], Lambda[1], P_c[MeV/fm^3], rho_c[fm^-3]
0.24162668629717493 15.618656898711224 2160425.4255784233 3.5677272577965504 0.1711233750220791
0.2536439844235672 15.277277474117387 1723218.101526734 3.7848193501045677 0.1738881698634744
0.2660398979627477 14.981269412085402 1382996.3735010203 4.011400948335799 0.17666665464310435
0.2788148191728034 14.723526040318239 1116446.9368859057 4.247728152671306 0.1794575135001798
0.291969057822579 14.49841238331315 888681.4858229005 4.494426109448709 0.18226731198514015
0.3055043073362178 14.301248772917521 738660.9165665689 4.751649872838274 0.1850917455752572
0.31942076405933095 14.128156139704068 605111.7431100421 5.020082656101765 0.18793745343731214
0.3337190672543779 13.975935009732524 497680.3707488174 5.299947205644512 0.19080103299737355
0.3483997741572162 13.842036970261418 411011.7148212195 5.591973679259142 0.19368881209620062
0.36346188816718733 13.724004850498202 340663.04957798345 5.896327414505993 0.19659581786450595
0.37891559959826066 13.620007571400855 283307.79606867477 6.2138732985542084 0.1995297480062475
0.3947479173696304 13.528458108207847 236423.4683817086 6.544869793932819 0.20248679950033538
0.41097217024594607 13.44788512619257 197869.58764761005 6.890017224023382 0.2054706484811655
0.4275798250974438 13.377069919186857 166084.92071664767 7.250021611493137 0.20848438548686427
0.44457516812264364 13.314952261899801 139807.88708115128 7.625143512224668 0.21152358253574197
0.46195630588522113 13.26057705716174 117981.12923522799 8.01632876820524 0.21459435272214294
0.4797206372884448 13.213161903261334 99812.98125944896 8.424283825383377 0.2176983668729563
0.4978771166635782 13.171996136690957 84642.62772360128 8.849451792763064 0.22083312542118433
0.5164151447374783 13.136409748042446 71939.64435148092 9.292701485880308 0.22400197290506613
0.535333364742844 13.105859658591749 61275.76103306314 9.75491980452608 0.22720785937429125
0.5546398044662441 13.079843770119567 52301.067318550944 10.23691630270388 0.2304521357103171
0.5743228551487195 13.057855894173438 44731.9721323813 10.739165055173563 0.2337315357047045
0.5943791884475979 13.039524744953642 38329.832888321616 11.262904961244443 0.23705217479328367
0.61481543535923 13.02452634699619 32904.11174171273 11.809076334543775 0.2404157034866628
0.6356211429613378 13.01244029091142 28293.964124692182 12.378658140999939 0.243823754664621
0.6567896686533856 13.003015363450045 24371.37619378779 12.972343490706992 0.24727432547415862
0.6783202794150098 12.995992104193112 21029.072286333423 13.591450957676404 0.25077210976294606
0.7002085428777368 12.991059083188032 18173.31214602354 14.237182084493917 0.2543197891225515
0.7224427557722393 12.988002206378729 15730.824050916528 14.910726507662941 0.2579193480754876
0.7450291275059707 12.98665771088187 13634.54561417117 15.613118252420655 0.26157072722166125
0.7679503992554061 12.986760181272578 11837.167884805474 16.345614776308125 0.265275734930452
0.7911941100471717 12.988141882173935 10289.38267710781 17.109836206395194 0.2690391040918097
0.8147674383251606 12.990673820519191 8956.705804760537 17.907237520212107 0.27286326714988235
0.8386455449236819 12.994107940454857 7807.62156259272 18.52859023792327 0.2757146506973759
0.8581942892597616 12.993638275648994 6975.110228942131 19.683017113710978 0.43930894785511676
0.8728211762401819 12.983913266882517 6378.284920076854 20.755052320319628 0.5569797211820695
0.8841888973738853 12.965334362254534 5910.105482863427 21.952939396924382 0.6682621196170928
0.8931650590035672 12.938379400501539 5521.763629054136 23.280076617393007 0.7716808085967731
0.9004265006606444 12.903786142629714 5185.181168431179 24.734054504998465 0.868120348925932
0.9064625415587244 12.862191472505211 4880.803883886514 26.31476373581447 0.9586500017464685
0.911654345548299 12.814101497559617 4596.485008823901 28.02254708621502 1.0434829674444452
0.9162924006171876 12.760068906624605 4325.290909500689 29.856098776526906 1.1219057315326701
0.9206604996198248 12.700626100247273 4062.1791393085705 31.816324331005035 1.1964511054712066
0.9249351951937062 12.636326653832903 3805.9697046252504 33.9060370327189 1.2687431296225367
0.9292741820253871 12.56769101851398 3554.2893982212745 36.12832958557064 1.3392034779551842
0.9337614049385929 12.49503441493647 3308.592735590479 38.48693477430409 1.4082930819980957
0.9385235864344078 12.418919342138919 3068.291644095757 40.98487342641304 1.4764184571149568
0.943671866574373 12.340006254137382 2834.477287197806 43.626491282067384 1.5441972899539558
0.9492209587646546 12.25851183627281 2608.9339016370727 46.419294785441785 1.6126016076266405
0.9552232966590833 12.174902764545948 2391.733777156685 49.370818724492864 1.682903444502159
0.9617101122970356 12.089719545540957 2184.7968137187904 52.48378054981257 1.7572862871561281
0.9686667174028272 12.00343285375628 1989.6936268190047 55.774601698999206 1.8406076351833225
0.9760024459676077 11.916458787782688 1807.732601743106 59.254849748174955 1.9458859458742122
0.9835554885943347 11.829597364211576 1640.2916346768911 62.95454653432686 2.069886038413596
0.9916053896663529 11.741098068071452 1482.9934266444102 66.8432669127806 2.0957699383711996
1.0004857907066502 11.65098508914839 1333.413737064017 70.9031176869251 2.122507083143325
1.0102774070421687 11.560538306404922 1193.3852380146939 75.14379642797165 2.150225538095721
1.0209581578957767 11.470344548014907 1063.4355616088153 79.57466778904737 2.1790303717753434
1.0325145511712877 11.38128194208195 944.2765404599226 84.20638872163146 2.209017618766796
1.0449019446084427 11.293792826059962 836.0408613388767 89.05087527351999 2.240261722473325
1.058027167806955 11.207918232793157 738.4772559006485 94.12130374208577 2.2728342207790027
1.0718533379781787 11.12416064504027 651.126084035321 99.42763783005299 2.3067813983646515
1.0862990514700357 11.04259595372814 573.4571208245526 104.98769918606823 2.3422035236951055
1.1012801305254172 10.963343779780274 504.68595981528256 110.81515082413232 2.3791683970057083
1.1167171379156036 10.886322175683585 444.0447722423495 116.92848967825205 2.4177757693956496
1.1325288196880057 10.811558360895962 390.6987049098623 123.34209551873491 2.4580923476357763
1.1486344098633838 10.7389296438704 343.9100495413128 130.07715760595985 2.50023047046319
1.1649638263443982 10.668388112604559 302.92483631008963 137.15452501562726 2.5442960829051264
1.1814390584707284 10.599747670971501 267.0733208906679 144.5956676470026 2.5903951143793154
1.1979600030786017 10.532924719026763 235.74881595586476 152.42374091686702 2.638640692010022
1.2144942972852681 10.46770099351855 208.39860870982682 160.66759206758243 2.6891821833846725
1.2309330067238848 10.403950811988622 184.4767229424422 169.3514895581462 2.742128780322736
1.2472353041464617 10.341476051870897 163.59396466672763 178.50872657929972 2.79764931293703
1.2633067387048407 10.280117939260116 145.33301217416246 188.17125950147127 2.855894756383447
1.2791227643414167 10.219752318219587 129.35275782551182 198.37470197704044 2.917034277124249
1.2945985939635218 10.16014096107159 115.34659630907225 209.1585391175179 2.9812559580511446
1.3096720591383226 10.101165420151915 103.06928019210008 220.56416672904894 3.0487507066097828
1.3243012347550682 10.042792480264307 92.3121797909443 232.6388152966705 3.119740795053697
1.3384341589257915 9.984584702255479 82.81825643613264 245.43098787151047 3.194443232255787
1.3520147165164431 9.926590136403547 74.4717115938808 258.99711176133854 3.273119305313822
1.3649943330280723 9.86872067533631 67.12118603635207 273.3958068414473 3.356028052677845
1.3773278112425282 9.810781326320848 60.62424137295114 288.6937536592279 3.443469773363867
1.388977740596443 9.75264914986803 54.87854460410135 304.9620823653427 3.5357548032443966
1.39990104419526 9.694302951932253 49.80057970550231 322.2800894434323 3.6332299305639784
1.410064159367437 9.635427749819131 45.28537822497111 340.7343896072809 3.7362680019766414
1.419443592779923 9.57626953689281 41.28338168845888 360.4193094652546 3.8452665092819722
1.4279839588132408 9.516493161687272 37.72227213013902 381.4407630763775 3.960674886403231
1.4356607198966087 9.456072199892208 34.54905069169592 403.91355833286013 4.082966109166573
1.4424627969643742 9.394993118417213 31.71952206987486 427.9659815949452 4.212668657301764
1.448360158708024 9.333143163175745 29.191754896930757 453.7389920529688 4.350351698904944
1.4533133052426974 9.270523764496865 26.93077790782836 481.38936220402013 4.496643118430737
1.457325360654655 9.207069354339655 24.905325352587937 511.09106434551614 4.652231006266319
1.4603661802794816 9.142791813913542 23.092568037549185 543.0357393474164 4.817854046555375
1.4624287435081338 9.077674692529689 21.465669178026392 577.4394426507941 4.994348933020264
1.4635000543101409 9.011705828179226 20.007121108410686 614.5402348337886 5.1826088807969555
1.4635657432985287 8.944884683147487 18.698843124793466 654.606294838819 5.383639928321329
