M[M_sun], R[km], Lambda[1], P_c[MeV/fm^3], rho_c[fm^-3]
0.24162668629717493 15.618656898711224 2160425.4255784233 3.5677272577965504 0.1711233750220791
0.2536445072818859 15.277288947755947 1723143.856715129 3.7848290588509546 0.17388829087831448
0.26604033113668357 14.981264316851263 1382930.299327381 4.011421358116156 0.1766669012832549
0.27881704400052326 14.723491647871962 1116401.7994698735 4.2477599540397595 0.17945788234813023
0.29197127791248484 14.498396490455795 905863.3744513822 4.494470136958832 0.18226780224168362
0.30550776657317846 14.301186715294978 738652.1302157636 4.751707621498379 0.18509236937100132
0.3194246266040653 14.128092986990838 605058.110178148 5.020154551366415 0.1879381993784319
0.33372236269282224 13.975922469535991 497658.8218185869 5.300035140399296 0.1908019183544441
0.34840499785544615 13.841993923500548 410985.927253309 5.592077873120168 0.1936898202004688
0.36346865411689827 13.723939087231733 340667.1282895301 5.89645020842575 0.19659697117098626
0.37892272333674787 13.619962855977203 283284.27038856305 6.214016178601141 0.19953105090023676
0.39475523858176836 13.52842939486956 236400.08806867915 6.54503261182537 0.20248822719329687
0.4109809586231249 13.447844526530712 197851.77996902444 6.890203123067604 0.2054722316754356
0.42759057658015875 13.377014511847346 166064.97752580087 7.250232336244337 0.2084861287587268
0.4445855797465887 13.314920415452056 139792.28894568526 7.6253784803210145 0.2115254530328729
0.4619679640017816 13.260566390964788 117973.51941781904 8.016592078200778 0.21459638963783542
0.4797331408291871 13.213142139362771 99802.20458627636 8.424577530648651 0.21770057512595872
0.49789182904712087 13.171957796699894 84636.90977759985 8.84977481041037 0.22083546420696562
0.5164301872386255 13.136391789754763 71931.42981955236 9.293059043535216 0.2240044901332478
0.5353491620832189 13.105833190985006 61268.80965509363 9.75531432666343 0.2272105604816763
0.5546577932950061 13.07978817048467 52301.88112569275 10.237350361126103 0.2304550263700824
0.5743411997959017 13.05786084290841 44725.466431742956 10.739636763922574 0.23373456422099023
0.5943995145218103 13.039502781482229 38321.923020937356 11.263421414411175 0.2370554016020153
0.6148367000620029 13.024488538950282 32897.56043719735 11.809640583266459 0.24041913506032492
0.6356416601611803 13.01242519133587 28288.609542700236 12.3792734267773 0.2438273978173648
0.6568132397717285 13.003020281818573 24368.160756483507 12.973006988037495 0.24727811775281988
0.6783456949045078 12.995972248775475 21025.245883917843 13.592172088754339 0.25077612482758543
0.7002349945092541 12.99106069553575 18170.472705706 14.237964716138901 0.25432403493742184
0.7224693809817547 12.988008989472155 15727.309846440105 14.9115747551548 0.2579238330797264
0.7450587761369097 12.986640224376439 13631.981411197643 15.614028218824206 0.2615753783663117
0.7679801496456538 12.986764570455396 11834.843821728442 16.346598784996377 0.265280639966965
0.7912259839604419 12.988140822806622 10287.614142264856 17.110899196207495 0.26904427305130835
0.8148006390773075 12.990668668183991 8955.017621541065 17.90838475743946 0.2728687107084947
0.8386850388565227 12.994140137370575 7806.63320370188 18.740413179743822 0.27675496494674395
0.862867027903009 12.998400506504147 6813.2001225630465 19.60834438287673 0.2807036539022913
0.8873495804580633 13.00335417669516 5954.394955400845 20.514257141192477 0.28472107159196614
0.9121053927697914 13.008855270644391 5210.273723661674 21.45994591983348 0.28881023203380124
0.9371273111766618 13.014740221701508 4564.613887837439 22.446885034836654 0.2929709768831219
0.9624113091229035 13.020951960143234 4003.917914193837 23.477119889858944 0.29720726492039445
0.9879329001076899 13.027340743374593 3516.015520027472 24.55306370554039 0.30152511939529847
1.0136762421065926 13.033794417930277 3091.5113068760766 25.67664691695175 0.3059260824584689
1.0396408200883211 13.04025377225016 2720.9959206246203 26.849855019895745 0.3104115922833551
1.065793522018003 13.046584092279206 2397.7593951038643 28.075773748365986 0.31499029785247
1.092126050195506 13.052712631598578 2115.3487734343703 29.35644313915614 0.319662540416558
1.118625038997875 13.058542476202334 1868.2622322681075 30.694649503934514 0.3244332130667241
1.145256399119677 13.0639990835684 1651.8230862482928 32.09376200879648 0.3293101648682151
1.1720209262507713 13.069017075144874 1461.8249287322674 33.55575377576385 0.3342913003560658
1.1988786772113456 13.073468909580033 1295.1792006467474 35.08515264398157 0.33939008666147524
1.2258244215743648 13.077336756699376 1148.844380268241 36.68396340918137 0.34460317112880934
1.2528206177571464 13.080502116422528 1019.9931455756436 38.357257183787844 0.3499451062755644
1.279864604533063 13.082938001662004 906.5454306255989 40.10729374888691 0.35541258426700106
1.3069083397735948 13.084525430944876 806.573907429515 41.939508064781386 0.3610199511917972
1.3339470246297913 13.085239864482936 718.4384435945763 43.85742041413553 0.36676934054173616
1.3609563982215782 13.08503145926875 640.5128712155021 45.865685898445136 0.3726683185732844
1.387886863651836 13.083775872989857 571.6731798791602 47.969655389069 0.37872693814035
1.4147443202569314 13.081479380506613 510.70795413252796 50.1741054535668 0.38495094927668483
1.441468323332562 13.078025137753531 456.7836934474786 52.48421970242357 0.39134713278854283
1.468063000835245 13.073424605821122 408.92816190033363 54.9064335046625 0.3979272766045999
1.4944727300128227 13.067558165239465 366.45343180785966 57.44693767503264 0.4047004433360883
1.5206848923262686 13.060411057148492 328.76310078705194 60.112361222166115 0.41167640581204695
1.546668840655579 13.05192063616674 295.22788057213666 62.909810796266605 0.4188657055590049
1.572384938229603 13.042037612986606 265.4126453195678 65.84691391380117 0.42627971605547904
1.5978095245769037 13.03070745146201 238.8724816018414 68.9318663426449 0.43393071132016764
1.6228971236061198 13.01788153009764 215.18994945439763 72.17348407880444 0.4418319404611826
1.6476490362081433 13.003540773446124 194.05830405972785 75.58126039989065 0.44999770888947543
1.671997282287112 12.98760551428272 175.19528591397037 79.16509454386151 0.458442072253818
1.6959345431447792 12.970051309046232 158.3320682616265 82.93525974248688 0.46717863953946553
1.7194147889592704 12.950839114336176 143.24541979181612 86.90445706023533 0.4762287997091162
1.7423937467564576 12.929888572609949 129.76148234500405 91.08422891441298 0.48560674797112025
1.7648785106206724 12.907245965268343 117.65167554192496 95.48874228506376 0.4953347070029972
1.7868066569168422 12.882805081079464 106.80556044456195 100.13159261160955 0.5054299053988923
1.8081434078411 12.85654376344487 97.06334285771614 105.0293464138235 0.515918198137944
1.828853120013606 12.828406120629575 88.31234006010176 110.19854858334803 0.5268221280973074
1.8489327021626802 12.798434271563746 80.44724182198986 115.6568848357059 0.5381652602446545
1.8683079969544647 12.766494040172331 73.37015852359954 121.42447124160242 0.549976573477536
1.8869855222277336 12.732670819308222 66.99312542344612 127.52274668325323 0.5622859198942384
1.9049090603893 12.696851112563111 61.24362664510727 133.9742109222193 0.5751227984554798
1.9220490910650447 12.659030662658965 56.06236903452407 140.8045469063988 0.5885234896392595
1.9383628358474716 12.61913772041208 51.38070852450685 148.04143085396947 0.6025262395271552
1.9538575702358902 12.57729130790894 47.154337458257054 155.7133233353568 0.617166666353037
1.9684737372896786 12.533355965867875 43.33038232652762 163.8539211948236 0.6324925266858649
1.9821861437683481 12.487350482122975 39.87027793157426 172.49706424584934 0.6485455865887724
1.9949742360681084 12.439272561190695 36.736859966907815 181.68194226978144 0.6653786559739021
2.0068098567008716 12.389107571370177 33.8963132282127 191.45062446718813 0.6830463537211925
2.0176555656129374 12.336829371963862 31.321840834434308 201.84915744342723 0.7016079295624108
2.027490449601136 12.282440531609032 28.985301947300826 212.92743738272438 0.7211258571773945
2.0362989444075663 12.225970543763495 26.864773966608702 224.74109672234422 0.7416709144355789
2.044041751486285 12.167371172624305 24.93735874272885 237.3511814627568 0.7633198142989895
2.0506999697062684 12.106660307789339 23.183368166766133 250.82464344233247 0.7861553932803463
2.0562708090445363 12.043908917170036 21.589839401171606 265.2347018847368 0.8102661549187407
2.0607156773331687 11.979055047588293 20.137542946050406 280.6628485190205 0.8357509296422557
2.0640202295530976 11.912156403934429 18.818018432881566 297.19910683532447 0.8627175845001825
2.0661788087516966 11.843249557807262 17.582134764915768 314.9438145127357 0.8912864091312162
2.0671693806082607 11.77235205142765 16.52061121302689 334.00631434906785 0.9215829764164468
