M[M_sun], R[km], Lambda[1], P_c[MeV/fm^3], rho_c[fm^-3]
0.24162668629717493 15.618656898711224 2160425.4255784233 3.5677272577965504 0.1711233750220791
0.2536468000548526 15.277202649978635 1723005.2713144752 3.784870186008519 0.17388880350849312
0.26604574009969406 14.98111833150691 1382819.2313787844 4.011507816678141 0.17666794608395217
0.27882330928410404 14.72337978472457 1116334.932543082 4.247894670133908 0.1794594448518095
0.29198133660719644 14.498233258956589 888597.3976998479 4.494656646775529 0.18226987907177922
0.305520861371799 14.301007425107816 738490.9990615915 4.751952259224858 0.18509501192534542
0.31944119445309777 14.12790808033576 604939.9590297533 5.020459120257213 0.1879413593982267
0.3337424768917876 13.975712118089435 497522.60570192954 5.300407660458125 0.19080566901331394
0.3484271210825008 13.84180712452622 410870.0407478651 5.59251927566056 0.19369409089147274
0.3634937769079346 13.723755258154638 340513.9587893872 5.8969704119889395 0.19660185703293856
0.37895125885817327 13.61979419901665 283192.66211494 6.214621480141642 0.19953657052145563
0.39478836111352617 13.528237215503765 236313.8758189527 6.545722384102497 0.20249427556433056
0.41101770250481917 13.447668239049344 197763.31573979225 6.890990684472907 0.20547893887885046
0.42763073639887084 13.376857294671263 165993.31054389107 7.251125079253572 0.20849351419285178
0.4446293164115284 13.314762284400777 139731.51332105524 7.626373938606872 0.2115333775209059
0.46201511002804097 13.260408490413953 117914.29415244449 8.017707618061973 0.214605019240537
0.479786878643902 13.213005096284537 99753.93152165487 8.425821853405116 0.21770993069355604
0.4979488897351193 13.171845423401717 84593.01598039348 8.851143328973498 0.22084537286608566
0.5164933199403329 13.136271813157512 71897.25981723914 9.294573908912678 0.224015154879946
0.5354177433745365 13.105739790275319 61239.32757725948 9.75698581304457 0.22722200436221085
0.5547300645817456 13.079699076503697 52267.580310275036 10.239174860869758 0.23046708691594364
0.5744165933808583 13.057757868708702 44696.92482155766 10.74163529954776 0.23374739543877276
0.5944808036091166 13.039438325994675 38297.975532555254 11.265609540641217 0.23706907305429759
0.6149231181972035 13.02444065913073 32875.42151647335 11.812031230372556 0.2404336741834366
0.634168166939048 13.012396442675906 28575.774341353892 12.41339602847853 0.45970222639617087
0.6343698757040189 12.992967776113456 28194.644104044146 13.387320845007116 1.1903380907329257
