M[M_sun], R[km], Lambda[1], P_c[MeV/fm^3], rho_c[fm^-3]
0.24162668629717493 15.618656898711224 2160425.4255784233 3.5677272577965504 0.1711233750220791
0.2536411382399985 15.277361947113915 1723124.3313692647 3.784785325553203 0.17388774576385566
0.2660363315708684 14.981319137744114 1383087.635641863 4.011329422322018 0.17666579029343957
0.2788085353015192 14.723652200538083 1116625.9928390807 4.247616705753787 0.1794562208838835
0.29196076250602426 14.498546548368099 906030.7349423 4.4942718175844325 0.18226559390942215
0.30549387601844075 14.301387251110334 738798.4321209126 4.751447497580552 0.18508955953623482
0.3194075632863208 14.128306997857358 605209.8432980375 5.019830707138121 0.18793483936957095
0.3337013256721098 13.976218955185297 497813.6684783757 5.299639050421129 0.1907979303855961
0.34838244074055247 13.842168138512045 411098.42680404306 5.591608548836748 0.19368527935892002
0.3634410899691497 13.724191336662722 340738.36511617573 5.895897106413493 0.1965917763198383
0.3788921084034992 13.620140788485152 283393.3376255532 6.213372606128245 0.19952518229419566
0.394720720836828 13.52861234065615 236480.193470521 6.544299237466067 0.202481796490906
0.41094214763475306 13.448040399057358 197936.52562044264 6.8893657898912535 0.20546510059473255
0.4275457226407302 13.377212015492436 166141.4428838817 7.249283187547693 0.20847827669480545
0.44453899685887666 13.315052564726576 139851.72988188872 7.6243201398029345 0.21151702796183824
0.4619156671518308 13.260692990800322 118031.03335436955 8.01540608697872 0.21458721503690006
0.4796763234592553 13.21327458194923 99855.87073188068 8.42325464143255 0.21769062884841886
0.49782894554524937 13.172097843710162 84676.44568484006 8.848319901184208 0.22082493004253334
0.516364544194658 13.136489880604678 71972.2317537165 9.291448570805711 0.22399315230483083
0.5352771158648496 13.105957064714694 61308.09830222525 9.753537372086534 0.22719839451004598
0.5545808237314337 13.079901062743152 52329.58316727926 10.235395342961299 0.23044200671175985
0.5742582915354513 13.057909765601941 44351.25001649767 10.7375121768612 0.23372092371394151
0.5943100508739839 13.039590541249316 38015.8144029881 11.261095309880806 0.23704086805881566
0.6147433716978656 13.02454829248521 32920.541369827544 11.807099221152447 0.24040367933850268
0.6355415570786372 13.012472692808526 28309.62838616998 12.376502209813678 0.24381098923609065
0.6567056535728361 13.003076742481607 24385.327702719915 12.970018641998802 0.24726103759229168
0.6782342159815004 12.996015998434196 21041.51240205161 13.588924181535079 0.250758041350355
0.7001171410387546 12.991084826414633 18184.35498305241 14.234439834805618 0.2543049122841569
0.722345180869041 12.988018203804067 15739.308342644217 14.907754368035894 0.25790363325292287
0.7449275889315602 12.986648491761224 13643.383153434313 15.609929876454913 0.2615544303586578
0.7678439894664784 12.98675829826212 11843.802461990706 16.34216699164571 0.26525854858864406
0.7910813627210252 12.98813438267036 10296.142937371553 17.106111711997002 0.2690209931367709
0.8146502040849171 12.990660230811638 8962.786367359346 17.903217868112883 0.2728441941880904
0.838527334622814 12.994120757928847 7812.659727465145 18.73488980154215 0.2767295878817799
0.8627042629958015 12.998383030002632 6819.655776510672 19.60239270468279 0.2806769524757621
0.8871739165362738 13.003328856710048 5960.272355070597 20.507848520893738 0.2846929880241448
0.9119281669538886 13.00881229250052 5215.188996690484 21.453049754107145 0.28878070464920097
0.9369423072853295 13.014705075323306 4568.8591492461765 22.439530048970045 0.29294042845912593
0.9622160993914718 13.020899329949374 4008.1026600993964 23.469213792778064 0.2971751559110187
0.9877352034089357 13.027295507775651 3519.468954104276 24.54456928830923 0.3014913751081283
1.0134719423572718 13.033745055668138 3077.950977979434 25.667597058131005 0.30589115731037525
1.0394289822943288 13.040207818961878 2723.841472929675 26.840139094388935 0.31037488726633267
1.0655789082620284 13.046538945222771 2400.298066886308 28.065346281783068 0.31495172211936984
1.0919003416807005 13.052659219598068 2117.5391251794213 29.345341085471283 0.31962257983998826
1.11839303152946 13.058497011905763 1870.227879016758 30.68274033036366 0.32439120268525773
1.1450191748195884 13.063951767789028 1653.5175723902255 32.0810845811851 0.3292666064756188
1.171777019922372 13.068973101790816 1463.4811797109014 33.54215940646024 0.3342454859298746
1.1986278737653084 13.073435625215579 1296.6266310658066 35.07057717903604 0.33934188955031785
1.225569564133491 13.077303811239378 1150.097977266767 36.66844914156319 0.34455312450303005
1.2525595226175734 13.080474389958816 1021.1674559140383 38.34065417553205 0.34989258859358685
1.2795966959689875 13.08292077436394 907.5736858915893 40.08958827092563 0.3553578094332069
1.3066367666657865 13.084515579623098 807.5496624851482 41.920655478964775 0.3609629569687194
1.3336680161297638 13.085232812218825 719.287814054837 43.8372093793177 0.36670926289388006
1.3606730172151997 13.08503751591322 641.2754774053612 45.84415875886532 0.3726057205756272
1.387599121762162 13.083791399694292 572.3782951046435 47.94672020800854 0.3786616572114144
1.4144517536419272 13.081510763228533 511.3432254961288 50.149510774264 0.3848820322748887
1.441180237674014 13.078089147554783 457.336352997752 52.4580045636243 0.39127515583936373
1.4677639307902455 13.07348408179632 409.43381826038484 54.87848184455444 0.3978520357625855
1.4941703937379929 13.067632119263253 366.9202509773112 57.41712403142655 0.4046217188910949
1.5203812583438339 13.060498433306662 329.1913041262517 60.080549890932495 0.41159396099475914
1.5463619677458176 13.052032140030226 295.6133860475135 62.87585490580711 0.4187792851181725
1.5720766054139224 13.042165045899308 265.7483816040875 65.8106544062057 0.42618904469311153
1.5975013415038846 13.030854147180197 239.1740319366477 68.89313085104851 0.43383549196930865
1.622586299494885 13.01805658338231 215.47169230087567 72.13208568916568 0.44173185238904483
1.6473383054210828 13.003734969334761 194.31272571543207 75.53699628395688 0.44989240560665394
1.671686514162692 12.987822031444244 175.42364471053537 79.11797553903358 0.45833214415463086
1.6956259637018765 12.970295169588267 158.53530977248616 82.88482620425864 0.46706274341550336
1.719089888040406 12.95107037065274 143.44139259396258 86.85044941321723 0.47610649896088814
1.742095296106339 12.930191254415487 129.92831028711538 91.02662467670795 0.48547859974558427
1.764580497263567 12.907576168607267 117.80650034640013 95.42698663059065 0.49519920130771555
1.7865066078824396 12.883155322604367 106.94025607871409 100.06563177093497 0.5052875647663467
1.807847831021341 12.856926229484797 97.19262659150029 104.95883840191605 0.515768474226868
1.8285739252955113 12.828841212111719 88.43266922530557 110.12297267683908 0.5266638780287146
1.84864719133611 12.798881886677387 80.5530302610573 115.57582113094922 0.5379978106035612
1.86803897445198 12.76700597749855 73.4662920154549 121.3376245634404 0.5497997854665552
1.8867152794114186 12.733189707454535 67.08363817579081 127.42966658227712 0.5620991668840372
1.9046449894446065 12.697402413488048 61.32646321823933 133.87463205638232 0.5749261988553541
1.9217940866470709 12.659622436283646 56.13726011677225 140.69759242531708 0.5883151016373788
1.9381227326629482 12.619796117846832 51.44919475968473 147.92646038428006 0.6023050881085702
1.9536186560205522 12.577943831565957 47.216117862452826 155.59001213001426 0.6169329792752872
1.9682490388732405 12.534068456275858 43.386135193821154 163.72135684708928 0.6322446446653773
1.9819761166118655 12.488109863149381 39.92333982694754 172.3543585105068 0.6482820960515847
1.9947759023483516 12.4400689392708 36.786198547981236 181.52841262752887 0.66509899960173
2.0066188896512895 12.38993396452425 33.94215600433149 191.28527411556172 0.6827491014109944
2.017483784359558 12.337715545755024 31.36298752425689 201.67088680568688 0.70129151676537
2.027333867963946 12.283373865251841 29.02339307082625 212.73548162245928 0.720790042059159
2.0361584697670727 12.22694680542155 26.899048966300615 224.53367951646086 0.7413123888573061
2.043918125603233 12.168398435940713 24.969447097146986 237.12729250912452 0.7629380630662568
2.0505930248764823 12.107733913774668 23.21213739669763 250.58234086323083 0.7857471791913925
2.0561765260706877 12.045008797475825 21.61532382508323 264.97234294049883 0.8098295743927953
2.060646813079287 11.980226391216517 20.162703759704964 280.3790015032897 0.8352851758340074
2.063976890318707 11.913388530710536 18.840890538623384 296.8912758324517 0.8622188431180263
2.0661496318597217 11.844519297694632 17.636479858686876 314.60941826624946 0.8907511065112714
2.067161777518362 11.773677365884213 16.54026225542951 333.6431478127923 0.9210093838819378
