M[M_sun], R[km], Lambda[1], P_c[MeV/fm^3], rho_c[fm^-3]
0.24162668629717493 15.618656898711224 2160425.4255784233 3.5677272577965504 0.1711233750220791
0.2536434422104074 15.27729150231541 1723253.5900743294 3.784809674223053 0.17388804925827914
0.26603824306493074 14.98130390405367 1382965.3849303161 4.01138060771805 0.17666640883874304
0.27881262775903437 14.7235698684826 1116456.6033555183 4.247696459179354 0.17945714590343423
0.29196666593620574 14.498461583297109 905955.7355045 4.494382231438655 0.18226682339331465
0.3055012752125721 14.301271291533737 738706.176179433 4.751592320469466 0.18509112389983373
0.3194156299367113 14.128230022680958 605144.4138703718 5.020011005448579 0.1879367100341307
0.333714749403103 13.975977215860306 497708.19898423925 5.299859570369128 0.19080015065556366
0.3483945714024831 13.84208096542272 411037.7098307515 5.591869840578513 0.1936878074284005
0.36345476558665823 13.724073876473355 340686.22399625555 5.896205039575627 0.19659466849326265
0.3789080866348335 13.620062806280133 283332.63993679197 6.2137309065002 0.19952844956216614
0.3947397183697868 13.528522775669707 236418.14952791843 6.544707532614997 0.20248537668778238
0.41096384014242365 13.44793300228627 197888.82017997064 6.889831961049828 0.20546907070394013
0.42757095315641874 13.377093785196163 166098.62544644153 7.249811608427188 0.20848264818531884
0.44456417861675457 13.314981989655047 139824.4045576016 7.624909349511645 0.2115217184499802
0.4619453021525056 13.260628427613272 117996.61507505606 8.016066361563334 0.21459232279462115
0.47970827743137695 13.213192158143498 99820.75701034644 8.423991128666454 0.21769616620282753
0.49786459328905613 13.172013283820235 83780.2827373242 8.849129885204329 0.22083079467291855
0.5164007152458732 13.136439611222698 71949.51362912299 9.292345158114946 0.22399946433538354
0.5353171833263075 13.105887969690967 61285.46796900045 9.754526640634884 0.22720516756617834
0.5546236401548665 13.07982934541598 52309.89862449155 10.236483739969549 0.23044925501124974
0.5743042241703838 13.057862738114165 44738.69985049422 10.738694973087478 0.23372851763209862
0.5943601751283663 13.039537913797808 38335.44113527972 11.262390290604957 0.23704895912181453
0.6147947743629872 13.024520012990289 32907.863552454095 11.808514035022009 0.24041228376739443
0.6355947879563414 13.012449262241706 28064.63946102863 12.378044982592968 0.24382012410819515
0.6567654881227231 13.00303378537942 24375.972354874142 12.971682289128628 0.24727054631707515
0.6782966653553026 12.995994701836327 21032.76751451951 13.590732323939756 0.2507681086028339
0.7001831290875516 12.99107015682025 18040.571496025143 14.236402165531262 0.2543155580241151
0.7224150453334659 12.98800591506063 15733.375379083052 14.909881202845144 0.25791487863027585
0.7450012793461575 12.986654211024696 13540.959262883596 15.612211445074301 0.2615660922240158
0.7679191406724925 12.986751028428705 11838.124155398089 16.34463418669447 0.26527084693716824
0.7911630856131514 12.98812939940444 10291.55333688134 17.108776913307295 0.26903395310823
0.8147357657907344 12.99066025327271 8958.689495976265 17.90609427618011 0.2728578425386964
0.8386159373531265 12.994127139878021 7809.46697302382 18.737964659355484 0.27674371526245806
0.8627942553811881 12.998390583903824 6816.282754758674 19.605705986415057 0.28069181708131735
0.887268703646252 13.003334026786344 5920.661251594916 20.511416169955726 0.2847086220155072
0.9120275970848352 13.008833419394831 5212.532356926879 21.456888805536007 0.28879714235568
0.9370439204783136 13.014730209649517 4566.456182026205 22.443624512346084 0.29295743452895606
0.9623213456956905 13.020922795315865 4005.7449686451323 23.47361504169259 0.29719303069059905
0.9878449368648057 13.02732073850969 3517.553671513501 24.549298034522177 0.3015101601719911
1.0135850273416291 13.03378269695008 3092.99420249262 25.67263499953728 0.3059105996965148
1.0395468425928582 13.040228271186146 2722.2527906822065 26.845547809342666 0.31039532041748297
1.0656965309537294 13.046554989897805 2399.0102936513263 28.071151082587807 0.3149731966016674
1.0920265543717471 13.052684983784618 2116.3152846031912 29.35152140174911 0.3196448251838549
1.118522369995287 13.058523529019501 1869.120074378568 30.689369934148836 0.32441458904219755
1.145152291788928 13.063979663512356 1652.5923393459711 32.08814183809355 0.32929085451524437
1.1719133954389922 13.068995408794951 1462.6251002611766 33.549727080079464 0.3342709897702311
1.198767294144698 13.073457134654483 1295.8521261940505 35.07869097851233 0.33936871968552995
1.2257114436072145 13.077326168691211 1149.386807227521 36.677085525212725 0.34458098413980004
1.25270546964001 13.08048741985725 1020.4920561242751 38.34991248758744 0.3499219168965545
1.2797450077957846 13.082934756356732 906.9873853995132 40.09944438109167 0.35538830094534696
1.3067877232063985 13.084521348515636 807.0168127845358 41.931150119299026 0.36099468385638084
1.3338229593848892 13.085235720039408 718.8020963536361 43.84846018461389 0.36674270610570836
1.3608293546555499 13.085038536286579 640.8185744531977 45.85614215954893 0.3726405666769932
1.387759777210283 13.08377824066932 571.9923011035086 47.9594873767505 0.37869799669498583
1.4146153175832803 13.081494466454723 510.99861152988495 50.16320167251353 0.3849203956805521
1.4413376334130505 13.078043388133306 457.0526356924367 52.47259746207256 0.3913152224710161
1.467930258910604 13.073452372646091 409.150857131004 54.89404134313028 0.39789391913443684
1.4943389587033382 13.067589269265707 366.6579780124158 57.43371996196069 0.40466554129125876
1.5205498791618504 13.06045157111574 328.95013261691344 60.098257785506476 0.41163985420564
1.5465325449181766 13.05196954355609 295.39072256439175 62.89475651182713 0.41882739120823775
1.572248778542246 13.04209464317758 265.5529261825637 65.83083825340381 0.42623951688770634
1.597671956462835 13.030772727329428 239.00175163341234 68.914692876246 0.43388849560906884
1.6227600193268443 13.017959936482185 215.31470689674447 72.15512992535264 0.4417875659854907
1.6475109151673537 13.003627451564647 194.16855361739164 75.5616356210514 0.44995102200569104
1.6718644023485942 12.987699412237877 175.21489403234247 79.14420394696653 0.45839333473026594
1.6957975134882863 12.97015952147043 158.42231042849872 82.91289950836189 0.4671272557865699
1.719262448957129 12.950920883833145 143.33599126716808 86.88051208520808 0.47617457612183134
1.7422653375918047 12.930024786980065 129.8249308508181 91.05868923153452 0.485549931577535
1.7647452347651955 12.90738574100279 117.72325955137224 95.46136186332005 0.49527462824394036
1.78667056675907 12.882962725254925 106.85542167400064 100.10234761014787 0.5053667959544965
1.8080119672412927 12.856713423305697 97.12249953217055 104.99808518368847 0.5158518148502261
1.8287247399326056 12.828589822301595 88.36453684208863 110.16510571229155 0.5267522079499917
1.8488059905447738 12.798634586976757 80.49261710005885 115.6209431173792 0.538091017057125
1.8681931770615463 12.76673652097372 73.40656926148063 121.3859652828028 0.5498981894562798
1.886866502134827 12.732898647122168 67.03386332925405 127.48149735422123 0.562203190829764
1.9047912072124533 12.697095725449346 61.279041524627466 133.93005931544815 0.5750356294747613
1.9219364753186956 12.659293718767435 56.095235495655785 140.75712479292346 0.5884310933284912
1.9382530261832311 12.619416393548965 51.410415868616106 147.9904542508795 0.6024281834948676
1.9537542893682933 12.577588010077656 47.17998424892539 155.65864823505387 0.6170630515649083
1.9683726972773712 12.533673569411969 43.35473304389596 163.79521627224824 0.6323828654026222
1.9820930518645994 12.487688377901536 39.89429822373849 172.43378898134776 0.6484287557312445
1.9948875335650853 12.439625270704518 36.76007492504484 181.61386728782145 0.665254656450349
2.006720463662006 12.389464963930562 33.87651616769514 191.37730770443275 0.6829145512974848
2.0175801016546315 12.337222034143034 31.340179058669296 201.770111252869 0.7014676303714337
2.02742109249261 12.282852026018537 29.00285799172012 212.8423225793517 0.7209769539211509
2.036236517984508 12.226401741971975 26.879815131846804 224.6491255063529 0.7415119399992137
2.0439865688453596 12.167824229998907 24.950618213266566 237.25190577893494 0.7631505401384535
2.05065239892194 12.107137041057273 23.196251921059417 250.71729180634233 0.7859746759773155
2.0562261713101773 12.044384536162585 21.601287926989333 265.1183662239125 0.8100725656201696
2.0606851903432037 11.979574361301191 20.14900596019281 280.5370323898459 0.8355445619069618
2.0639969919942707 11.912694782195816 18.827628346543854 297.0626057201845 0.8624964282352338
2.066165827301928 11.843812299798726 17.624531331540833 314.795532323759 0.8910490385115264
2.0671658850192007 11.772937415011187 16.528908602387542 333.84527310515807 0.9213286246355751
