M[M_sun], R[km], Lambda[1], P_c[MeV/fm^3], rho_c[fm^-3]
0.24162668629717493 15.618656898711224 2160425.4255784233 3.5677272577965504 0.1711233750220791
0.2536433614300538 15.277279756572632 1723199.7735421667 3.7848074920166312 0.17388802205812884
0.26603782924403085 14.981341670618534 1383002.4841497522 4.011376020298512 0.17666635340248524
0.27881230018232916 14.723589834386543 1116511.3999543572 4.247689311361423 0.17945706299951777
0.29196623817110795 14.49846197495717 905925.6828544989 4.494372335672946 0.1822667132016668
0.3055006847459187 14.301293725867238 738670.4028156004 4.75157934076623 0.18509098369426666
0.3194171880514562 14.128176871855505 605144.5570924957 5.019994846211888 0.18793654237581314
0.33371388483707365 13.976047922066437 497733.04551364103 5.299839806191628 0.19079995166309094
0.3483931613695074 13.842036612613438 411043.21222718176 5.5918464221303115 0.19368758084847196
0.3634551741401297 13.724044110193713 340688.68941595015 5.896177440754462 0.19659440927929375
0.3789076496194167 13.620050311383267 279421.52017012524 6.213698793346479 0.19952815672887098
0.39473785374850956 13.528514903443067 236426.82670340379 6.544670938486675 0.20248505580671325
0.4109622418837255 13.447917835018186 197883.10596207395 6.889790179534769 0.20546871487502494
0.42756719183041064 13.377127613051561 166109.61193295836 7.249764247484337 0.2084822563803762
0.4445629920495379 13.314986475038392 139827.7062933517 7.624856540056659 0.21152129805276212
0.46194289350693557 13.26061097236644 117995.4139987981 8.016007182521028 0.2145918649968847
0.4797052404928943 13.21321303967433 98758.47629002514 8.423925118606212 0.21769566989945488
0.49786119627757625 13.172020885880793 84655.73848196489 8.849057287527685 0.22083026903472106
0.5163983101202024 13.136428461197026 71950.78850261193 9.292264798029187 0.22399889859536992
0.5353152099535379 13.10586799325273 61288.28521917982 9.75443797332457 0.2272045605028376
0.5546191287795592 13.079852478286034 52310.255495855876 10.23638618751613 0.2304486053499653
0.574300036071329 13.057881382598524 44739.66627075198 10.73858895936222 0.23372783699114352
0.5943554085843674 13.039544461382642 38337.99512522018 11.262274221407965 0.2370482339193713
0.6147899695182238 13.024523237719032 32909.520979261084 11.808387224732778 0.2404115125492576
0.6355899921618815 13.012453260105934 28300.561662000193 12.377906702819388 0.24381930534339502
0.6567608430057919 13.00302943366829 24376.504849807858 12.971533174869359 0.24726969404111634
0.6782905760751994 12.995985221813854 21032.97188260881 13.59057025787285 0.25076720626239346
0.7001771988609848 12.991067457243568 18040.82684243281 14.236226278763844 0.2543146038298177
0.7224089990243848 12.988008360476005 15734.015463422515 14.909690570659588 0.2579138706860515
0.7449946768533637 12.986651865503747 13637.55340537215 15.612006943221655 0.2615650469461965
0.7679133188176234 12.986751656112293 11838.453568485333 16.34441304598379 0.2652697446061895
0.7911548702605817 12.98813400175418 10291.40167848169 17.108538023982355 0.26903279147033754
0.8147278788274422 12.990656678628499 8958.996027616544 17.905836454913583 0.2728566191952218
0.8386080313352114 12.994114725819744 7809.9462079298955 18.73768904964482 0.27674244897844186
0.8627853865625574 12.9983963329375 6816.6061221349555 19.60540900493646 0.2806904847127193
0.8872578496550215 13.003347366460591 5956.763045002089 20.51109638748247 0.2847072206791263
0.9120187321571999 13.008827171610601 5212.7888265263955 21.45654469497735 0.2887956689739178
0.9370366754283703 13.014723679363128 4566.697380119315 22.443257507069962 0.2929559101979802
0.9623118048761631 13.020917955684736 4005.9237038748565 23.47322053642815 0.29719142848750124
0.9878363756790581 13.027320656306346 3498.5674213095317 24.54887417255881 0.30150847636962735
1.01357539356311 13.033770114546396 3093.1453720882014 25.672183421491656 0.3059088569698677
1.039536003071103 13.040229509883185 2722.3828124147494 26.845062995076525 0.31039348887648577
1.0656861629638146 13.04655536804105 2399.168962456062 28.070630762943935 0.3149712717130524
1.0920145068265805 13.052681550598585 2116.591815176313 29.350967420708802 0.31964283119225584
1.1185111705606008 13.058525362693272 1869.247651371732 30.688775678377816 0.32441249276645845
1.1451403083955063 13.063979810856372 1652.655495788194 32.08750924697728 0.32928868099447656
1.1719002576861135 13.068996470260666 1462.6850948922806 33.5490487341522 0.33426870367451583
1.198754110471627 13.073448453051537 1295.8702469901582 35.07796367650394 0.3393663146949602
1.2256987546780436 13.077316526769877 1149.514941049218 36.676311377525316 0.34457848685919595
1.2526921213443012 13.080482458768437 1020.5630991309074 38.34908258821077 0.3499192879572613
1.2797309525376785 13.082930398920809 907.0499395388093 40.098560893220956 0.3553855677290292
1.3067746710408994 13.084519255346883 807.0870031289328 41.93020939135817 0.360991839893296
1.3338095972486943 13.08523274060815 718.8498717359237 43.847451670704025 0.36673970828080327
1.3608160618537997 13.085033499292953 640.8826908389877 45.85506797263879 0.3726374430873758
1.3877459722835124 13.08378056184217 572.041118515461 47.95834292920445 0.37869473922783403
1.4146003589365295 13.081494721543937 511.02999886774 50.16197441664067 0.3849169567743499
1.4413230250485303 13.07804538430568 457.068123680794 52.471289345902875 0.3913116308741229
1.4679157705885766 13.073453533595911 409.18854730693727 54.892646575175704 0.3978901646699467
1.4943242485596568 13.06759212508437 366.68523769208264 57.4322322816493 0.4046616129955969
1.5205350879794346 13.060453726800523 328.9772967256643 60.096670421188016 0.41163574026396793
1.5465172578116213 13.051974859740254 295.4112941242361 62.893062134588305 0.418823078883456
1.5722330495955161 13.042102374340097 265.5768199895565 65.8290289262266 0.42623499244236757
1.5976566269300077 13.030780427970038 239.0243773957294 68.91275999798651 0.433883744219437
1.6227437554763957 13.017969353309631 215.31613323170927 72.15306416895238 0.44178257164688445
1.6474954787740728 13.003636075298362 194.17450160478882 75.55942686532063 0.44994576742815134
1.6718443011925412 12.987710398054997 175.30832182716225 79.14185273271806 0.4583878493743239
1.6957821426667368 12.97017218280624 158.43167205526981 82.91038289915919 0.46712147262595166
1.7192467025897527 12.950934135064907 143.3450965205172 86.87781712813097 0.4761684733699958
1.7422500102440892 12.930039898877792 129.83247863030655 91.05581480475529 0.4855435370359897
1.764730330644432 12.907401999757312 117.73063948578381 95.45828028073288 0.4952678665636602
1.7866572857401153 12.882977403153054 106.86388019413086 100.09905618866331 0.5053596932097272
1.8079977754148842 12.856732364808932 97.12652629458253 104.99456685808119 0.5158443436784244
1.8287101838797784 12.828610879852747 88.36902385046596 110.16134186867234 0.5267443387541955
1.8487914802486451 12.79865666599401 80.49814139921452 115.61689806123353 0.5380826613669697
1.8681804919049705 12.76676297281421 73.41507861685533 121.3816316552437 0.5498893677786667
1.886852996410907 12.732924596115607 67.03620958076039 127.47685082840385 0.5621938652895239
1.9047781137085438 12.697123356571206 61.28453214639469 133.925090348899 0.5750258191919428
1.9219237597636856 12.659322460253112 56.098670580914664 140.75178778095577 0.5884206947996151
1.9382406791326574 12.619446929025713 51.41389868242952 147.9847172383169 0.6024171480657692
1.9537517126436004 12.577655336483422 47.183056258909495 155.65249501682177 0.6170513906004126
1.9683602607535249 12.533709089600482 43.35272822800304 163.78860956622273 0.632370524020861
1.9820820286268264 12.487724694859669 39.896238589953136 172.42666796752528 0.6484156075578168
1.9948775049280427 12.439665540297351 36.76169216387276 181.60620615569033 0.6652407015919445
2.006711317809483 12.389507140335137 33.91988076058126 191.36905671248655 0.6828997183903074
2.0175711437219888 12.337266487283667 31.342726114338486 201.761215530989 0.7014518413425873
2.0274126958881076 12.28289898450378 29.003364840715328 212.8327439614583 0.7209601967022169
2.036229438487152 12.22645043116988 26.88157660136819 224.6387753515986 0.7414940495103187
2.0439804331453026 12.167875713506307 24.95258224381867 237.2407336721025 0.7631314906700171
2.0506472514869496 12.107190725681651 23.197885936214075 250.70519279618463 0.7859542797810366
2.056221099108742 12.04444073028213 21.602076526693395 265.1052744330839 0.8100507801196137
2.060681547448716 11.979635899178717 20.150643833705658 280.52287381174585 0.8355213385434975
2.0640018903322974 11.912769837316606 18.829595807416233 297.0472448322601 0.8624715408444152
2.0661643703416077 11.843875151390128 17.625673234566285 314.77884580334467 0.891022326674329
2.067165684856636 11.773003911010104 16.52987504141576 333.8271509170214 0.9213000020870035
