M[M_sun], R[km], Lambda[1], P_c[MeV/fm^3], rho_c[fm^-3]
0.24162668629717493 15.618656898711224 2160425.4255784233 3.5677272577965504 0.1711233750220791
0.25363615608497625 15.277488183808444 1723395.2194844398 3.784675670047662 0.17388637896087863
0.26602253833230854 14.98165908420303 1383609.8130552042 4.0110989120092935 0.17666300471234817
0.2787901174631746 14.723976746593678 1116840.607008857 4.247257549774254 0.17945205521575744
0.2919347321167194 14.498968893117645 906354.6122929535 4.4937745993387255 0.18226005726885788
0.30545989948984115 14.301838848233936 739148.1573132916 4.750795343402316 0.18508251502645492
0.31936585552655183 14.12876238966139 605510.8045725364 5.019018821448378 0.18792641574218077
0.33365274408298834 13.976644383933566 498121.6843879256 5.298646069370973 0.19078793271407452
0.3483226478510842 13.842637736892058 411398.3068718687 5.590432001787291 0.1936738959425596
0.36337369231250544 13.724628419468868 341019.756091296 5.894510573578704 0.1965787537100323
0.37881386578668824 13.620641143414884 283642.0569143088 6.211759321070718 0.19951047107699266
0.3946333653513696 13.529073984407013 236728.708002698 6.542460883733576 0.2024656766121663
0.4108444919356514 13.448489844951366 198143.26360505112 6.887266895384452 0.20544722552834574
0.4274386442879393 13.377614443646957 166325.6390121962 7.246904071718226 0.2084585948792634
0.4444183540719623 13.315467392495634 140026.6747590159 7.621667386144875 0.2114959103370051
0.4617847836650881 13.261069461438945 118176.03979488784 8.012433447964218 0.21456421927084748
0.479533623164709 13.213624299928393 99983.63221476933 8.419938955213267 0.21766569952329418
0.4976748585516292 13.172419924937355 84798.06399113168 8.844673399661371 0.22079852781347778
0.5161949922383683 13.136790460389923 72083.8364099275 9.287412272377349 0.2239647365122613
0.5350979446281848 13.106187800916567 61400.92320869894 9.74908393167598 0.22716790389965197
0.5543866937951607 13.080131570702255 52408.26925924754 10.230495754871486 0.2304093773664172
0.5740493727106285 13.058108998746361 44826.4886905691 10.732187733005238 0.23368673913507995
0.5940927162350957 13.039773748892975 38413.62507214401 11.255265981833183 0.23700444631168485
0.6145081284315793 13.024708482560689 32975.81002844037 11.80073060048191 0.24036494749901685
0.6352891263539224 13.012599635880306 28360.169471797446 12.369557742645503 0.24376987053068783
0.6564374035260298 13.00314399537397 24431.178104332106 12.962530216541564 0.2472182368231515
0.6779541959353657 12.99608525097649 21082.10895571877 13.580785522451603 0.2507127274770555
0.6998223987061739 12.991133566190038 18219.837104880477 14.225607340801805 0.2542569955731162
0.7220297842496128 12.988067034837439 15770.974701270085 14.898181637889138 0.25785301862016907
0.7446015683766437 12.986660305838694 13670.899372305195 15.599660878432115 0.2615019420524608
0.7674999414354202 12.98673055900514 11869.415457446887 16.331062749385797 0.26520319672601855
0.7907234817647727 12.98809626786606 10318.429557113506 17.0941165438032 0.2689626646957492
0.814275760915658 12.990591819523031 8924.134986060319 17.890272402665463 0.27278276888018754
0.8381371540960944 12.99404584973881 7831.46040841831 18.72105143817413 0.2766660077622654
0.8622942265289689 12.998299834965282 6835.259656210376 19.587481632959506 0.2806100559008606
0.886745437650593 13.003226000491178 5973.953899414997 20.491793037967973 0.2846226304085221
0.9114837836952154 13.008714934904194 5227.6492411639465 21.435773249775842 0.28870673166070515
0.9364810101824572 13.01459237197203 4553.920340956437 22.42110445955872 0.292863899050651
0.9617367380607817 13.020774633190266 4017.5334894461644 23.449408059235125 0.297094718942244
0.9872386442184867 13.027166158511978 3528.295662009891 24.523290272462166 0.30140684367979104
1.0129589836825645 13.033630346844802 3102.491575482766 25.644927086437868 0.30580366952362137
1.038899486951521 13.040073997284042 2730.7890888601555 26.81580123622408 0.3102829432206929
1.0650317084937475 13.046406554611591 2406.5618159045807 28.03922671989804 0.31485509450230115
1.0913376001040294 13.052529705779204 2123.2979203439486 29.317532338966323 0.3195224854272278
1.117814463720072 13.058380212837905 1875.3244147969488 30.652910662640853 0.32428597659945124
1.1444282466553084 13.063853569187623 1658.039410178232 32.049122058405324 0.32915615157186573
1.1711656597110263 13.068865519165824 1467.4817664084162 33.508110345312865 0.3341307370832028
1.19800014151135 13.073327372426222 1300.3741383378842 35.034071803709985 0.3392211761707442
1.2249272235469146 13.07722122653121 1153.4059296916705 36.62959331531861 0.3444277816223177
1.2519084957631768 13.08041339204797 1024.0813384893167 38.29900124263865 0.34976064123341133
1.2789252575360515 13.08286752109086 910.2619292757201 40.04524673337933 0.3552206315295892
1.3059522417456415 13.084483936789955 809.9242581595199 41.87344221263811 0.36082022411183534
1.3329715811438494 13.085224108445217 721.4364014250004 43.78659554693972 0.36655881240850613
1.3599637415819323 13.085056077160722 643.2394177789917 45.79025032896857 0.3724489621843941
1.3868811354514312 13.083843730023235 574.0964035174679 47.88928713914105 0.37849818415761954
1.4137140829158228 13.081567293898074 512.9046775264532 50.08792392405467 0.384709459133591
1.4404399888690913 13.078200456091928 458.73727004848496 52.39236161534742 0.39109492489768277
1.4670103714562055 13.07361874969828 410.7353518483523 54.808492425427765 0.39766363683361905
1.4934147741526826 13.067816372858774 368.07943579642443 57.34247426219562 0.40442460237191874
1.5196173062320155 13.060737450622815 330.2142023212053 60.00090028267904 0.41138753463204963
1.545592017956348 13.052301221926799 296.5509603760108 62.79083804703956 0.4185629104534691
1.5713035836210627 13.042484191048057 266.63339578623084 65.71987241689169 0.4259620331533696
1.5967211892483428 13.031226610967304 239.9255108241615 68.79615257741196 0.4335971005643586
1.621809547133897 13.018470894264235 216.1542170329036 72.02844360985695 0.4414812789730044
1.6465486945394658 13.0042078545466 194.94051019844417 75.42618309455821 0.44962878365516046
1.6709134672482073 12.98836109508453 176.0027325487842 78.99954328503715 0.45805496678736846
1.694843747912429 12.970893221894809 159.0721944220672 82.75857534708108 0.46677261931341146
1.7183349212641095 12.951769574694962 143.9105660546664 86.71525580613348 0.47580035195736364
1.7413366282635077 12.930943795099113 130.35757523916348 90.88243201776294 0.48515782415484143
1.7638204099572186 12.908384793104172 118.20764263743149 95.27240754926608 0.49486002028745785
1.7857559068312667 12.884031777916812 107.30425171652614 99.90053172272766 0.5049312860249782
1.8070941082853345 12.857851454425637 97.5221453323198 104.78233549691943 0.5153936256640683
1.827844342201061 12.829878409188913 88.72936472432447 109.93344202074663 0.5262664022152529
1.847922121307296 12.79997229182457 80.82308229357871 115.37293896541817 0.5375787260588271
1.8673394623186965 12.768209541923849 73.70976526472907 121.12027644260995 0.5493573443417449
1.8860336498139558 12.734478724843218 67.30709835886387 127.1966337275238 0.561631471803949
1.9039716864838598 12.698752337198435 61.53375861353527 133.62509487953687 0.5744330036990379
1.9211427060001165 12.661068407002503 56.32592677296069 140.42994911757236 0.587793630694286
1.9375063461382391 12.62137177101274 51.62408093992616 147.63876895657341 0.6017516993338353
1.9530240716635838 12.579610345579264 47.37463698501615 155.28146062012567 0.6163482432776067
1.9676901520784236 12.535862076046659 43.5348827092367 163.38910959649965 0.6316225336070815
1.9814441565296836 12.490003745387485 40.05543465118821 171.99730611172612 0.6476228378365377
1.9942866222114632 12.442101583359534 36.90627605819616 181.14429395828344 0.6643993221195926
2.006150266750962 12.392040371654058 34.05410061071889 190.87159815277775 0.6820054311714007
2.017044831852379 12.339917032692139 31.46545320094091 201.22490587620055 0.700499944607923
2.026935242256877 12.285695581438961 29.117795757109302 212.25452815947807 0.7199474870323762
2.0357976784287204 12.229379231197626 26.985112200267388 224.01482771030115 0.7404155411582494
2.043605397947708 12.170965122857258 25.048314794947203 236.56669099424204 0.7619812984863633
2.0503247708314176 12.110429403514937 23.285657885264833 249.97587744425525 0.7847248189513247
2.055949294017035 12.047810467620673 21.683257672717403 264.3161485886686 0.8087376288672616
2.0604650128769277 11.983150154880587 20.225498595325224 279.6680936646845 0.834117043153104
2.0638446197197493 11.91643762360394 18.89749632545273 296.12116578653047 0.8609706952018988
2.066075514361268 11.847703755812129 17.688314312765424 313.773177727048 0.8894124498838653
2.0671406089951025 11.776985645768525 16.587756696908826 332.7350087326018 0.9195750507464148
