M[M_sun], R[km], Lambda[1], P_c[MeV/fm^3], rho_c[fm^-3]
0.24162668629717493 15.618656898711224 2160425.4255784233 3.5677272577965504 0.1711233750220791
0.25364483848544717 15.277278443895787 1723147.6589046004 3.7848443917918657 0.17388848199602608
0.2660424008027019 14.981207248692616 1382978.0674011223 4.011453591260678 0.17666729080178378
0.27881943986144736 14.723426466376957 1116414.7535760931 4.247810178135003 0.17945846487194894
0.2919750512435078 14.498323562840206 905830.6585592165 4.494539670181442 0.18226857651025521
0.30551162641701685 14.301161105467038 738560.4305256972 4.751798825121274 0.18509335454419332
0.3194301358309948 14.128045912202081 605018.493642296 5.020268097488037 0.1879393774632685
0.3337319880920232 13.975776298348984 497608.6696721913 5.300174018724936 0.19080331662874248
0.3484132575588623 13.841924013021867 410944.442647831 5.592242430671143 0.1936914123400427
0.3634785226974641 13.723856955475156 340613.69164383307 5.896644142624508 0.19659879264202185
0.3789332652276924 13.61990054746429 283247.1937209125 6.214241836719 0.19953310863056156
0.3947676654487525 13.528361870492944 236366.14590738353 6.545289759846618 0.20249048203405326
0.4109947930253272 13.447795705439917 197824.09173677012 6.890496725749598 0.20547473211908104
0.42760501657994954 13.37699970967646 166047.09721097778 7.250565149184815 0.20848888203489074
0.4446026702108277 13.314859862835085 139772.14879802716 7.625749583913237 0.2115284072560858
0.46198383900179324 13.260484392667975 117945.23184606439 8.017007946071878 0.2145996067120331
0.4797542560448755 13.213071521911855 99795.66078056682 8.425041406229445 0.21770406282184013
0.49791339312852956 13.171911811105124 84619.55684209107 8.850284983528423 0.22083915807832055
0.51645492849246 13.136328281709309 71919.7524885839 9.29362377129157 0.2240084658518592
0.5353752147125824 13.105794786030263 61256.646487799604 9.755937438724544 0.2272148266366791
0.554685088289437 13.079750802295624 52289.23686005755 10.238032632047174 0.23045954964884383
0.5743693200569902 13.057800300780013 44714.21558013664 10.740381790751707 0.23373934752401368
0.5944282350488648 13.039515278265078 38316.11065356068 11.264237114730472 0.23706049811237143
0.6148696216246669 13.024468676195957 32889.94282994871 11.810531776697756 0.2404245550033106
0.6356774096730142 13.012401963699608 28281.74810839652 12.38024523366273 0.2438331519580444
0.6568499873582532 13.00300038495153 24361.609324925867 12.97405494562979 0.2472841074486822
0.6783842584949411 12.995974044116885 21019.70353294655 13.593311080132302 0.2507824664264239
0.7002763174636935 12.99104885882364 18165.357887591286 14.23920084949457 0.25433074102120584
0.7225132642498207 12.987997597700733 15722.70086708797 14.912914531189186 0.25793091698065257
0.7451050836362245 12.986651792373031 13628.622485541746 15.615465482286407 0.2615827247037559
0.7680280829293308 12.986756809530233 11831.472131910452 16.348153002013465 0.2652883873489841
0.7912761969414225 12.988142639165634 10285.540086616484 17.112578168518336 0.26905243732510825
0.8148532514913547 12.990680938061356 8952.33119336832 17.910196804088727 0.27287730874027794
0.8387403483837967 12.994147700199898 7804.129357151799 18.742350263033135 0.27676386484218457
0.8629225975808213 12.9984306612819 6810.865317947617 19.610431693147753 0.2807130183470797
0.8874074890161072 13.003380119303781 5952.36452822289 20.516504726518814 0.2847309208593598
0.9121678838307795 13.008862579251815 5208.6896347087995 21.46236451643691 0.28882058776406305
0.9371908507569879 13.014766449543826 4562.860954943448 22.44946456682848 0.29298169079045316
0.9624786027566007 13.020974915303427 4002.4933696832295 23.479892733385682 0.29721852626184864
0.9880110605325937 13.027345202266643 3511.969030426124 24.556042914632343 0.30153695437872385
1.013746913139158 13.033812930534468 3090.5717150214605 25.679820958302976 0.30593833169532914
1.0397146244435158 13.0402763758031 2719.9990436469516 26.85326270289667 0.31042446589611267
1.0658694890326643 13.046595342283986 2396.8760828742106 28.07943102737619 0.3150038277178356
1.0922055154946066 13.052731349787576 2114.6059110856395 29.360337050627745 0.319676556106982
1.1187056697590234 13.058563470385826 1867.3658395163186 30.698826544840717 0.32444794784918624
1.145340037628285 13.06401657082566 1651.1433968342074 32.09820854445077 0.3293254427267571
1.172106054824441 13.069031402786655 1461.2063165280606 33.5605219722879 0.33430736966997354
1.1989649997241656 13.073485725020388 1294.6496121138189 35.09026501069907 0.33940699187224427
1.2259152696995539 13.077346978355239 1148.3807804191704 36.68940510838636 0.3446207252080877
1.2529137245509476 13.08050774656554 1019.585562766914 38.363050303090795 0.34996334825288306
1.2799578602688453 13.082949441015923 906.1578246176583 40.11350414495339 0.3554317971576715
1.3070111164170148 13.084550503562827 806.2996597837024 41.94612088036598 0.3610399427351466
1.334043972267998 13.085243498057235 718.1068525345876 43.864509803530154 0.3667904138733792
1.3610543540218816 13.085029546399047 640.2269596284576 45.873237004713395 0.3726902761645723
1.3879947279325633 13.083782332067457 571.432268754341 47.97770047109318 0.37874983704079984
1.4148393128174277 13.08145419822326 510.5137295117401 50.18273274529876 0.384975123898865
1.4415720740536437 13.07801079751558 456.58515012798136 52.4934155059892 0.3913723810197642
1.4681675519195987 13.073405358112593 408.7509660072019 54.916238545816576 0.3979536700119885
1.494578987841371 13.067530682191048 366.2957358820246 57.45739597875086 0.4047280590199231
1.520791602614731 13.060378140371135 328.6358679764192 60.123520408072615 0.4117053268602227
1.5467759437149273 13.051883303111394 295.09800417848646 62.921722403541985 0.4188960215465355
1.5724938509861506 13.041993722724905 265.2889753736626 65.85963375885662 0.426311523593881
1.5979071093749802 13.030649331686856 238.7510368540077 68.94545491324517 0.4339641146621244
1.623015995627634 13.017836279444719 215.08756212022323 72.18800696877489 0.4418670521665338
1.6477578319493782 13.003473925519929 193.9542985370242 75.5967887890577 0.4500346505593072
1.6721062532641382 12.987530523516817 175.12416227712038 79.18162462553387 0.4584806367452432
1.6960433362055432 12.969966182036028 158.25306283046763 82.95295282859523 0.4672192981998119
1.7195227476966775 12.95074408527415 143.1829223642222 86.92340424996432 0.47627170577165767
1.7425038181444528 12.929796248056562 129.69174262192556 91.10443809364423 0.4856517059561783
1.7649861588782882 12.907130297485377 117.5955009675598 95.5104081805423 0.49538224681543647
1.7868958446022263 12.882652832468779 106.75350507974159 100.15473408982413 0.5054798437049148
1.8082474954234204 12.856410603540834 97.01943621083907 105.0540835004719 0.5159707273932929
1.8289515345076184 12.828257552553765 88.27390404258166 110.22501219889661 0.5268774564778924
1.8490319163748432 12.798277310165028 80.4082603640515 115.68532605176193 0.5382240099827171
1.8684035428090748 12.766325984053744 73.33459348159647 121.45494181364113 0.550038600395988
1.8870791744933189 12.732491981308717 66.96136609930105 127.55530184762367 0.5623510764782114
1.9050002165231072 12.696658249347996 61.21364760665368 134.00914954252966 0.5751917781403177
1.9221389754038394 12.658822450194728 56.03730276017551 140.8420739047289 0.5885966065028028
1.9384490599127637 12.618916738359253 51.356349994031525 148.0817710141129 0.6026038358322392
1.9539399769712718 12.577055149272816 47.13157088736034 155.75659063805838 0.6172486622227745
1.9685499292239046 12.533107511513798 43.31092999637591 163.90037789964956 0.6325793081965619
1.9822613040742658 12.487089713191228 39.852513783089506 172.54713821795175 0.6486380427032846
1.9950433843880022 12.438987724046758 36.72033810741837 181.73581506869849 0.6654767860241182
2.006875124170883 12.388811180275226 33.880437381729855 191.50864602258045 0.6831506597671851
2.017715649296055 12.336518353087493 31.306693197267634 201.91171377406127 0.7017189608786131
2.027546121953905 12.28211807905459 28.972055784895495 212.99479697514306 0.7212436987543346
2.036348298742854 12.225627219744961 26.852518367198982 224.81388322310153 0.7417967276349386
2.04408520726375 12.167012663206425 24.92580358000641 237.42974955026702 0.7634537801055818
2.050736721888347 12.106283574342056 23.172569027901154 250.9095609007368 0.7862982770185888
2.0563018361022785 12.043514739019088 21.58045961624211 265.3266681846407 0.8104190242865161
2.060740747487285 11.978643700812778 20.130207328507154 280.7624243400541 0.8359142571648202
2.064036932699041 11.911724455203746 18.809741911168786 297.307140454901 0.8628926183214809
2.06618589441039 11.842798350999692 17.609251948716036 315.0611736936586 0.8914742780970994
2.067172479730666 11.77189118557447 16.513496361027713 334.13377333927957 0.921784287710134
