M[M_sun], R[km], Lambda[1], P_c[MeV/fm^3], rho_c[fm^-3]
0.24162668629717493 15.618656898711224 2160425.4255784233 3.5677272577965504 0.1711233750220791
0.2536416887735711 15.277383767180226 1723220.9708705589 3.7847977107565836 0.17388790013944097
0.2660378853131647 14.981265547281065 1383144.7485863138 4.011355458246044 0.17666610492221607
0.2788117362080726 14.723562696317433 1116460.6350857038 4.247657272981792 0.17945669140259485
0.2919639790053692 14.498526065769545 906005.039226585 4.494327980370066 0.1822662192950749
0.30549781292327477 14.301305690167593 738729.9851939387 4.751521162606667 0.1850903552591087
0.31941249285677753 14.128244244270169 605169.2667892947 5.019922416763356 0.18793579089232942
0.333708291732126 13.976112379866896 497778.8015332924 5.2997512187466835 0.1907990597345135
0.3483882126654697 13.842131681884938 411067.4939424075 5.591741455634524 0.19368656526874992
0.3634485250406378 13.724087690019216 340717.0523124782 5.89605373718483 0.1965932474291893
0.37890090513620844 13.620117788920806 283349.89262106747 6.213554855904955 0.19952684419271624
0.3947304772581562 13.528549049562963 236451.19871959495 6.544506916743013 0.20248361755760386
0.4109531932568412 13.447990064905683 197914.20529359468 6.889602907322839 0.20546711998628242
0.4275593153712343 13.377141114864486 166119.75829439503 7.249551967699188 0.2084805002441163
0.4445522355703288 13.315012012651529 139836.56096981384 7.624619839533295 0.21151941376439823
0.46193072746885355 13.260643743460054 118016.93801143984 8.015741932991045 0.21458981307732525
0.47969244926073346 13.213235377139341 99846.42384365466 8.42362925197909 0.2176934453960329
0.49784715522649325 13.172053725632956 84667.7472465845 8.848731894804235 0.22082791305237365
0.5163823843648937 13.13647403906054 71960.91792153912 9.291904613811793 0.22399636287602462
0.5352975300434366 13.105904907729203 61295.82943654526 9.754040555815594 0.2272018395722058
0.5546015489899113 13.079884811780472 52318.68644573886 10.235948946559418 0.23044569349576186
0.5742799682373988 13.057910641018081 44746.75638206216 10.738113794815732 0.23372478628756752
0.5943351946401567 13.039581570074951 38344.4770206832 11.261753988167584 0.2370449834926711
0.6147691707856663 13.024534767203395 32913.51570118514 11.807818849955437 0.240408055882299
0.6355684560633269 13.01245027544329 28305.450787155532 12.37728692197412 0.24381563557502062
0.6567369261936093 13.003039821849077 24380.567754978907 12.970864834058476 0.24726587407910738
0.6782653477024084 12.996001288273078 21036.598957377966 13.589843867485543 0.2507631619153286
0.7001501569817077 12.991076374849762 18180.139945874398 14.235437944592144 0.2543103270784616
0.722381344495437 12.988003803076596 15735.565918942395 14.908836148309463 0.25790935303300944
0.7449652216536845 12.986644413190962 13640.112821915422 15.611090357794138 0.2615603619694862
0.7678820814727113 12.986754030425637 11840.767592944225 16.343421886386505 0.26526480392418844
0.7911228193884665 12.988128961575912 10293.650634966896 17.10746731654757 0.2690275849826541
0.8146945992558827 12.990652244497188 8960.771252256573 17.90468089625692 0.27285113615202233
0.8385733194910192 12.994114763510934 7810.86941076348 18.736453764823793 0.27673677348384274
0.8627507999330515 12.998384619136639 6817.952549798394 19.60407793420651 0.2806845130378164
0.8872213987307143 13.003330889853224 5958.742112799529 20.50966312544027 0.28470093990262657
0.9119787172037033 13.008821569994671 5213.887819664243 21.45500239763495 0.2887890653033268
0.9369943502764367 13.014715303177733 4567.67513416127 22.441612598566955 0.29294907818452753
0.9622701035958454 13.020911621137696 4006.9160886783247 23.471452377079974 0.29718424746701694
0.9877916325209671 13.027302668637839 3518.5070925676973 24.54697444117148 0.3015009296386703
1.013531494999581 13.033759085578156 3093.888734440718 25.670159470987173 0.30590104615508
1.0394886246672894 13.04021606243161 2708.7430303227284 26.842890085764157 0.31038528001637844
1.0656401046113912 13.046555329381635 2399.5309066095797 28.068298725245914 0.3149626444915597
1.0919647576845466 13.052677706993926 2116.890910171334 29.34848451890346 0.3196338942702661
1.1184597151823314 13.058511118196744 1869.6880320101106 30.68611227363266 0.3244030974336356
1.1450866511001259 13.063972037087112 1652.9398057630297 32.08467403109128 0.32927893947194986
1.171846162781217 13.068980871361036 1463.0219684249773 33.54600845566198 0.334258457622538
1.1986988044289646 13.073439464401359 1296.2298419043311 35.074703988600966 0.3393555357907685
1.2256411475426885 13.077313304663567 1149.7200698851952 36.672841738363395 0.34456729434034816
1.2526329936847873 13.08048374236743 1020.819291690637 38.345363084509195 0.349907505384931
1.279672068372314 13.082924193403421 907.31282115503 40.094601219671056 0.35537331782190723
1.3067135500017968 13.084518899203838 807.2543574705641 41.925993183083555 0.36097909365692904
1.3337476315941155 13.08523187648552 718.9862594184268 43.8429316655069 0.36672627248778283
1.3607515912911659 13.08504161303784 641.0285858339547 45.85025364001558 0.3726234436620851
1.3876813332980633 13.083788074407815 572.179544576733 47.95321370941611 0.37868013981256826
1.4145357597116326 13.081500824947643 511.1761553117654 50.15647407684521 0.38490154421609307
1.441256537743192 13.078062728024191 457.15765535971406 52.46542661631479 0.39129553401524897
1.467850034045691 13.073465355039726 409.29533745337636 54.88639550116067 0.39787333790292934
1.49425625959237 13.067610768788493 366.7841239041061 57.42556480645361 0.40464400718762444
1.5204662340462298 13.060475355030032 329.06319880474217 60.08955619775386 0.41161730246748385
1.5464495527951876 13.05199852603264 295.5045190583915 62.88546831859424 0.41880375201801595
1.572164382106058 13.042129598478443 265.6545849134411 65.82091994826267 0.4262147149447358
1.5975866373527927 13.030813838890456 239.09219711519194 68.90409731251891 0.433862449658482
1.622668429140041 13.01797980627207 215.39051060462293 72.14380597744456 0.4417601882994261
1.6474258058386801 13.003681221304392 194.23610817859162 75.54952781055121 0.4499222178114458
1.6717735483626306 12.987761619354554 175.34657995052612 79.13131523784524 0.45836326551934237
1.6957135463574906 12.97022500699706 158.4776311257128 82.89910417732659 0.4670955541560293
1.7191771735308283 12.950988663049058 143.39943435940302 86.86573913257588 0.47614112265255043
1.7421818058845933 12.930108932323936 129.8812147834682 91.04293250761062 0.4855148786666459
1.7646627023450419 12.907474988712837 117.76635474038233 95.44446961148131 0.49523756287154963
1.7865924186291249 12.883055836697308 106.90286758847441 100.08430512286701 0.5053278610496956
1.8079317578898906 12.85681701696788 97.15719738578281 104.978798920813 0.5158108604305846
1.8286454490279431 12.828701562627423 88.39424141952995 110.14441036105791 0.5267088362489271
1.8487276251404228 12.798755373774764 80.5226653093613 115.59876959540435 0.5380452142122192
1.8681177722792768 12.76687059056218 73.43593282013954 121.36220996908872 0.5498498323429092
1.886792670541196 12.733041386237923 67.05839497748175 127.4560269071206 0.5621520718456654
1.904719510273912 12.69724618274687 61.30246759705257 133.90282142883714 0.5749818534293024
1.921867061204351 12.659454745314578 56.11604436369753 140.72786949848376 0.5883740928896964
1.93818531708986 12.619587069294957 51.43018964314913 147.95900639602075 0.6023676919814184
1.9536894409450163 12.577776892479774 47.20121192641708 155.62491899504286 0.6169991312787428
1.9683115239277842 12.533866806153581 43.36874350929961 163.75894567724276 0.6323150272700954
1.9820366473341917 12.487896924113555 39.90976861570441 172.39475490941723 0.6483566835853218
1.9948318475398874 12.4398430852432 36.77242925896448 181.5718726466391 0.6651781626291466
2.006671169715302 12.389694803258102 33.92833547855288 191.33207985519374 0.6828332446504813
2.0175314955127956 12.337465248396226 31.350675668828632 201.721349447552 0.7013810829769515
2.0273777383847538 12.28311021191842 29.012479460811704 212.78981762395898 0.7208850996429631
2.0361974699814573 12.22667025203311 26.889158903660938 224.59239155872737 0.7414138740200993
2.0439526105847547 12.168104564638856 24.959052428836543 237.19066650882763 0.7630461215573854
2.05062374791671 12.10743159817688 23.204238012494493 250.65097197910595 0.7858628757394559
2.0562014647041007 12.0446917226466 21.608207867351876 265.04660476404683 0.8099531503817002
2.060667861336965 11.979893633352505 20.15621391907778 280.459423665638 0.8354172655359885
2.0639899410334968 11.913041916682017 18.834167294725066 296.97840694517254 0.862360011132884
2.066157201290441 11.844159470366591 17.6305186164714 314.7040675785443 0.8909026214441685
2.067164270162508 11.773300604747002 16.534467848244553 333.7459392950842 0.9211717348172922
