M[M_sun], R[km], Lambda[1], P_c[MeV/fm^3], rho_c[fm^-3]
0.24162668629717493 15.618656898711224 2160425.4255784233 3.5677272577965504 0.1711233750220791
0.2536342254917596 15.277539139546905 1723472.1050044252 3.7846410919830373 0.17388594796198412
0.2660190077510017 14.98173829196844 1353863.0742321566 4.011026226329147 0.17666212634879974
0.27878306142227066 14.724122750437857 1117018.7222933322 4.2471443018477935 0.17945074171047148
0.29192601822915915 14.499119696204344 906541.8911414571 4.493617822045519 0.18225831151731192
0.30544944046429745 14.301961208873436 739235.5499955631 4.750589718751013 0.1850802938877803
0.3193529516897329 14.128919348039496 605627.0512674035 5.018762839589971 0.18792375983159987
0.3336367816341734 13.976770877002092 498214.82745216024 5.2983329972927145 0.190784780597727
0.3483039422693819 13.842846650186592 411514.9087088307 5.590061062794777 0.1936703070057652
0.36335233547297185 13.72478390529991 341106.81532227754 5.894073441506041 0.19657464807309885
0.37878968841978305 13.620793095953472 283736.9007891421 6.21125071325633 0.19950583318612913
0.39460489299286805 13.529246123845317 236794.78871737447 6.541881333185587 0.20246059473679487
0.4108137831609204 13.448609200349358 198207.6568723989 6.8866052238330395 0.20544159045575422
0.4274041886064182 13.3777603035372 166389.27802558083 7.24615407888639 0.20845239038077232
0.44438101643401784 13.315589109482445 140074.40592373267 7.620831149484404 0.21148925335548935
0.46174326585421127 13.261209855124523 118225.07072903051 8.011496394654632 0.21455697040592275
0.4794892793324313 13.213736635613051 100034.21813888247 8.418893788810173 0.21765784133305874
0.4976260103798894 13.172518821014956 84834.92253895654 8.84352397758764 0.22079020550655368
0.5161422327797238 13.136883108660088 72117.45234652783 9.28614001075108 0.2239557797110961
0.535041720455163 13.106272067711195 61432.59389303443 9.747680216930704 0.2271582933254763
0.5543265971593245 13.080197644850879 52436.547066944055 10.228951450608267 0.23039909290245922
0.573983448039596 13.058178184378232 44848.845758939504 10.730509551081042 0.2336759646872909
0.5940231169104467 13.039831217904906 38434.38415136643 11.253428709833155 0.23699296700298086
0.6144331462042489 13.024760933359033 32992.30767531615 11.798723401039998 0.2403527403774717
0.6352111261083866 13.012636206224629 28375.81736618449 12.367369102975752 0.24375691143279965
0.6563548503887793 13.00316681706392 24447.479309325867 12.960170186137951 0.24720474785714044
0.6778658682527431 12.996108000042602 21093.272556763575 13.578220623967969 0.250698446809476
0.6997287081031984 12.991159895956214 18230.72517518409 14.222823842864463 0.2542418949609575
0.7219363046986875 12.988058530635216 15781.269328104514 14.895164927740726 0.2578370681364569
0.7444984715221579 12.98666936439073 13583.12108140117 15.59642480966091 0.26148540141547166
0.7673913166538434 12.986743358882006 11876.972638544697 16.327563548995055 0.26518575408970047
0.790610533603021 12.98808536763307 10325.905624590181 17.09033667773216 0.2689442844870158
0.8141568177481755 12.99057899483686 8989.464752297927 17.88619317551846 0.27276341323905373
0.8380115495429208 12.994034490291456 7836.7857207484385 18.716659713882166 0.2766456967107277
0.8621683645704071 12.998285478910573 6839.711899485616 19.582783220641204 0.2805889770879219
0.886611381852819 13.003203798237768 5978.385143504615 20.48673414272461 0.2846004615451716
0.9113439386827268 13.008675052095853 5231.52760411873 21.430329750439054 0.28868342417291165
0.9363392036465529 13.014559376007503 4583.70469081835 22.415299013830694 0.29283978653421633
0.9615854062681053 13.020742056172962 4020.580835173991 23.443167909699174 0.2970693758408494
0.9870836270361453 13.027126791032835 3531.024014817986 24.516586096408012 0.30138021117094965
1.0127984156628367 13.033582131467204 3105.016689207748 25.63777679923123 0.3057760472041046
1.0387279469336583 13.040021823252715 2733.201140628184 26.8081336681603 0.3102539765292434
1.0648598018809745 13.046366513969632 2408.6831922081788 28.030998029225895 0.3148246529973959
1.0911603543725263 13.052494155497156 2124.938057772225 29.308771659148103 0.31949095235896696
1.1176314551147257 13.058339836092877 1876.7774967571227 30.643513555330944 0.32425282769449815
1.1442413635386293 13.06380709507374 1659.4089008236936 32.03904451235017 0.3291212994973451
1.170972889554714 13.068832418165147 1468.7510582855716 33.49738450229534 0.334094589886353
1.1978025666847436 13.073301299428504 1301.4223864404603 35.02257248439859 0.33918315103925395
1.2247242097265032 13.077196685818613 1154.3533017709549 36.61735384840561 0.3443882989966851
1.251700921361098 13.080399957375379 1024.9921781097328 38.28588103546461 0.34971907929331936
1.2787152004836206 13.08285227864493 911.0667008056416 40.031279942615136 0.3551774229449681
1.3057367108068358 13.084476608522847 810.6616195493451 41.85857119977568 0.36077526678700367
1.3327595340981289 13.085248452873481 722.0367382450443 43.77065386940705 0.36651142549845056
1.3597403226865203 13.085065565365168 643.8547007384851 45.773271341762126 0.3723995895960188
1.3866528716687267 13.083850718906453 574.6890472346591 47.871198443872196 0.3784466978917265
1.413482875070936 13.081591629812744 513.418914955355 50.068527531285866 0.3846551083035261
1.4402068432253805 13.078233360698182 459.20703221605237 52.37168826829109 0.3910381636322999
1.4667743540180473 13.073666718218272 411.13842198749404 54.78645074829011 0.39760430460287366
1.493174978980478 13.06787829714197 368.43655942155397 57.31896548565692 0.4043625262496595
1.519375797518275 13.06080637452313 330.5570061567677 59.9758175827331 0.41132252827947224
1.5453495207371526 13.05238843218274 296.8431636092403 62.76406581794118 0.4184947730019271
1.5710585054609287 13.042584542553719 266.86840655887846 65.69128547088465 0.4258905479757632
1.5964760792003263 13.031342384039862 240.1729157204114 68.76561526301569 0.4335220339230445
1.6215717185366585 13.018615591908091 216.37875674142876 71.99580883948448 0.44140237853074704
1.6463042414750213 13.0043535348875 195.14446794678773 75.3912912710926 0.4495457768340132
1.6706676538763834 12.988529890376405 176.18274565071314 78.9622211156974 0.4579675589585402
1.6945993750960597 12.971080720162554 159.22417930331878 82.71882478587477 0.4666812726395318
1.7180913391950599 12.95198069711648 144.06300989762426 86.67269087625401 0.47570396333353054
1.7410934515551273 12.931171887043497 130.49311721169042 90.83703498549669 0.48505683246809594
1.763580653940305 12.90863050585188 118.32564041426193 95.22374204917378 0.49475323731377724
1.785519037190542 12.88430848940382 107.41241305177283 99.84855540976172 0.5048191233965261
1.8068643628846264 12.858154749723909 97.62077714632228 104.72655205757643 0.5152747927583962
1.8276140098948521 12.830204116293503 88.8253619194031 109.87377832268095 0.5261412779877969
1.8476965513371097 12.800322532878432 80.90764681833957 115.3090742250374 0.537446803543228
1.8671199606216862 12.768586500439852 73.79366044442907 121.05186018663589 0.5492180739163425
1.885807806129116 12.734857634113004 67.37639038645735 127.12328269174532 0.5614842568604198
1.9037623110783681 12.699190762215439 61.59767926212013 133.54638954346993 0.5742771958238793
1.9209342120514064 12.661508110270937 56.38388458066918 140.345709335764 0.5876294995645533
1.9373118842752401 12.621871370827973 51.5551296655649 147.54822239121228 0.6015775285103907
1.9528546086257095 12.580199653564746 47.422830054199885 155.18435191174072 0.6161642125544985
1.9675093972932622 12.53642051473047 43.579138011063655 163.2845473126383 0.6314267476285509
1.9812770786822047 12.490595488343265 40.099158184418435 171.88494140618832 0.6474153686934649
1.9941273226995346 12.442729260383175 36.94405745419525 181.02341601416956 0.6641791412683216
2.006003484392943 12.392701850759947 34.09011770818688 190.74142392881737 0.6817714154077821
2.016908834710556 12.340615541819272 31.500792486680684 201.0845717088727 0.7002508653037401
2.0268115905190136 12.286430081311531 29.147894248517048 212.1030802744551 0.7196819980523583
2.0356841275171167 12.230148712635426 27.01225139097541 223.85157709996605 0.7401333585918394
2.0435071686748016 12.171777716464192 25.072781563886853 236.39011842213534 0.7616796456925284
2.0502458382667226 12.11129264994084 23.308984763265165 249.78507780174766 0.7844031738821985
2.0558783640759604 12.048695194684228 21.705047995159767 264.10971245063223 0.8083941071398822
2.0604092945155235 11.984073385099627 20.244895848049516 279.4444554455385 0.8337495706084264
2.06381054473943 11.917412011858374 18.916198950641203 295.87858384139804 0.8605769844253266
2.066038991949873 11.848845284351706 17.70829579275589 313.5282605375952 0.9314306925077602
2.0666850647430177 11.779321494007332 16.647069942423794 332.74999742940355 1.0952269161891468
