M[M_sun], R[km], Lambda[1], P_c[MeV/fm^3], rho_c[fm^-3]
0.24162668629717493 15.618656898711224 2160425.4255784233 3.5677272577965504 0.1711233750220791
0.2536415285851033 15.277385554103608 1723321.1710658094 3.784795263054135 0.17388786963001077
0.26603792903304285 14.981284733030835 1383127.7992593094 4.011350312725882 0.17666604274164158
0.2788105280533524 14.723589205294306 1116459.0114441728 4.247649255602995 0.17945659841308273
0.29196313661330336 14.498522394801332 905985.3092438935 4.49431688079196 0.1822660956986966
0.3054977875164344 14.301301883511156 738709.1820159582 4.751506603995385 0.18509019799832133
0.3194119327338179 14.128258331642307 605194.2052641442 5.019904291920384 0.18793560284008806
0.33370751236499396 13.97605584561043 497766.3242066705 5.299729050552188 0.19079883653757862
0.3483868032612206 13.84209472371808 411060.3392628242 5.591715188785212 0.19368631112975707
0.3634475073282273 13.724107400452372 340731.14867352066 5.896022781628707 0.1965929566880553
0.37889929612692225 13.620099864031644 283362.6123036773 6.213518837103361 0.19952651574461516
0.3947259617173923 13.528614558986874 236456.1494105795 6.544465872137697 0.20248325765186378
0.41095101057339745 13.447999862444252 197918.61658437885 6.889556044643156 0.20546672088403709
0.42755716354957846 13.377147307544087 166118.41112940805 7.249498847274013 0.20848006079245243
0.44454937649136156 13.315013145847914 139842.02262493552 7.6245606082233754 0.21151894224508566
0.4619274611752853 13.260663457454918 118013.42871271656 8.015675557785206 0.21458929961144604
0.4796896733110579 13.213275370252525 99844.16863944146 8.423555215393549 0.21769288874441087
0.4978432733484078 13.172066124436977 84671.29854553772 8.848650469857276 0.22082732350096748
0.5163785580856655 13.136473601014245 71962.63896640635 9.29181448295894 0.22399572834920153
0.5352932942749297 13.105917342914049 61299.276007517205 9.753941108067059 0.22720115870027857
0.5545975464942682 13.079866087989751 52318.69209885129 10.235839533804452 0.23044496484949584
0.5742757885153283 13.05791191879344 44747.9485188107 10.73799489246941 0.2337240228976728
0.5943303817190109 13.039571121899064 38344.07758752551 11.26162380834948 0.2370441701268118
0.6147641121930768 13.024536929100119 32915.580640016524 11.807676623781521 0.24040719090986246
0.6355621310302219 13.012458885444879 28306.549992591823 12.377131832598309 0.24381471727931833
0.656730618035706 13.003045324964958 24381.102983406723 12.970697593665358 0.2472649182016005
0.6782597650877707 12.995992073462807 21037.49615977938 13.589662101565613 0.2507621498913844
0.7001442643863991 12.991076885758625 18181.25568519477 14.235240678748587 0.2543092569016327
0.7223740876377901 12.988008357070367 15736.859172495613 14.908622345547062 0.257908222577211
0.7449582307453211 12.986655156887158 13640.915861921456 15.610861000279618 0.2615591896460108
0.7678749416301894 12.986749269706573 11841.281237944238 16.343173868623616 0.2652635676178455
0.7911147116197184 12.988134070585136 10294.248176467163 17.107199394051086 0.2690262821662799
0.8146860432878172 12.990653868090728 8960.963600573898 17.904391742045014 0.27284976413596235
0.8385641146891604 12.994116312392073 7811.248357861318 18.736144661304696 0.27673535331310695
0.8627412597729588 12.998384838611644 6818.360301472761 19.603744862963197 0.2806830187572047
0.8872129240153142 13.00331921213906 5958.866206031156 20.509304483760474 0.2846993682791774
0.9119683251726116 13.008826585835994 5183.423313269597 21.454616473071514 0.28878741288610493
0.9369840814469605 13.014708564469757 4567.783139026877 22.441200998565034 0.2929473686324491
0.9622539940152629 13.020929921074469 4006.7713564769156 23.471009937301663 0.29718245058761555
0.987779733139565 13.027301756135783 3518.713091286824 24.54649907956927 0.3014990412526895
1.0135180054366006 13.03375735095747 3093.9633252929084 25.669653027386406 0.30589909169168916
1.0394770458691562 13.040216730588256 2723.113041684216 26.842346370000406 0.31038322595612966
1.0656273987314366 13.046547007247057 2399.662162434503 28.0677151928055 0.3149604857513233
1.091952172615667 13.0526740223972 2117.15474783841 29.347863237627095 0.31963165803913984
1.11844680669756 13.058508042892909 1869.8242288902354 30.685445827596652 0.32440074650205897
1.145074065792002 13.063966407973828 1653.1309967792215 32.08396459509335 0.32927650191973756
1.1718325935843301 13.068979779931167 1463.1155954551205 33.545247709911955 0.33425589383092424
1.1986838535670616 13.073438930014875 1296.2840193157897 35.07388834345233 0.33935283867338384
1.2256272262220604 13.077308441056564 1149.799090987117 36.67197356034134 0.3445644937324401
1.2526183292274389 13.080475704792008 1020.8912007266831 38.344432387073084 0.34990455713948254
1.279657257456438 13.082926701446114 907.342989744838 40.09361042851321 0.35537025264506683
1.3066977409447744 13.08451475407058 807.3274539100231 41.92493820363278 0.36097590429422066
1.3337312323174917 13.085233825265892 719.1225361626786 43.84180067258921 0.366722910591925
1.3607362055966508 13.085037287530525 641.0734155356441 45.84904900295286 0.3726199407411443
1.3876652363053708 13.083787312243205 572.2227314123882 47.95193028410653 0.3786764867698385
1.4145192925911165 13.081502441681936 511.1937169455569 50.15509779376224 0.38489768771922506
1.4412397645759607 13.078060511017913 457.19542459927305 52.463959659784756 0.39129150630223863
1.4678328094869986 13.073470777027227 409.3213014637524 54.88483137732462 0.39786912756286424
1.4942393464469568 13.067613278817424 366.8155687469282 57.42389649552353 0.40463960192761056
1.5204503010966026 13.060478423055274 329.0934382933522 60.0877761069325 0.4116126890402291
1.5464320936563523 13.052006281401408 295.52423254574785 62.88356823029873 0.41879891614224013
1.5721468967754906 13.042137196771296 265.67317257774295 65.81889096312766 0.42620964121763316
1.5975696203234442 13.030822483248995 239.1052577544934 68.90192978659441 0.433857121459381
1.6226570056701735 13.01802034411835 215.40234810996822 72.14148945292735 0.44175458768367726
1.6474079032388673 13.003691543347422 194.24974716403733 75.54705093931183 0.449916325393465
1.6717579465267103 12.987771944437082 175.36059559160086 79.12867862603046 0.4583571143341433
1.6956963732849828 12.97023999246142 158.48997725259622 82.89628210842086 0.46708906904990316
1.7191584977649264 12.95100700561642 143.40062477473836 86.86271708375136 0.47613427919883916
1.7421645703084863 12.930123822077613 129.88742612237135 91.03970922079563 0.4855077080399318
1.76464512577231 12.907494242031461 117.7687277999376 95.44101404550482 0.49522998058820683
1.7865749631677075 12.883075665670964 106.91119198250757 100.0806142691752 0.5053198963475518
1.807915434289466 12.856838891714943 97.16414744864213 104.97485364614889 0.5158024826315657
1.8286288005774691 12.828724801408795 88.40079794866776 110.14017310882542 0.5266999500596811
1.8487121055120985 12.798779244891001 80.53169148094764 115.5942337211729 0.5380358446612669
1.8681024291204698 12.766896692656529 73.4435707206987 121.35735053487271 0.5498399403156293
1.886777026371864 12.733070164925033 67.06156384030403 127.45081663898532 0.5621416148790913
1.9047041261379511 12.697277360852967 61.30811874448592 133.89724962757674 0.5749708529635854
1.9218513539333868 12.659488359936162 56.11841849596658 140.7218850359281 0.588362432880862
1.938171741645456 12.619622065448395 51.432806531933785 147.95257344672095 0.602355317883381
1.9536764470491346 12.5778139107873 47.20345987380399 155.6180193904566 0.6169860558373917
1.9682991811041493 12.533907815502136 43.37419869871111 163.75151594220756 0.6323011155813834
1.9820249449186935 12.487938892220285 39.91241153978578 172.386770215902 0.6483419407217743
1.9948203773299595 12.4398877337061 36.77386441329663 181.56328238016084 0.6651625153396457
2.0066609214946944 12.389743506745742 33.93229105848683 191.32282825186962 0.6828166129322293
2.017522963635012 12.33751419964683 31.353281652094093 201.71137499459948 0.7013633793068594
2.0273691667704985 12.283162577740779 29.014573391307017 212.77907753368407 0.7208663104975863
2.036189561767207 12.226724486315161 26.890801916536724 224.5807864624401 0.7413938143348886
2.043945706190615 12.168162304513519 24.9613113647952 237.17813988799426 0.7630247625181495
2.0506168967258027 12.107490002135233 23.205304725796687 250.6374061832432 0.7858400068740289
2.056196446555695 12.044754307598051 21.609519089906733 265.03192594267387 0.8099287239701141
2.0606624941500784 11.979960094178532 20.156829061703636 280.4435488553642 0.8353912271523097
2.063988032065231 11.913109624341052 18.836116297843624 296.96118422939225 0.8623321072473346
2.0661561264099837 11.844230323720183 17.63137149146823 314.6853587166626 0.8908726722360458
2.067163614505696 11.773372878739169 16.535184568291946 333.7256209400759 0.9211396435985753
