M[M_sun], R[km], Lambda[1], P_c[MeV/fm^3], rho_c[fm^-3]
0.24162668629717493 15.618656898711224 2160425.4255784233 3.5677272577965504 0.1711233750220791
0.2536448571447247 15.277250242628245 1723198.8550424078 3.7848359532380167 0.17388837681352326
0.2660410334394498 14.981257714720186 1382988.0305174359 4.011435851579879 0.17666707642821056
0.2788173088117736 14.723490270068599 1116408.5185758008 4.247782537005265 0.17945814427649828
0.29197304434149507 14.498361172415995 905830.2782077491 4.4945014021119745 0.18226815038642014
0.3055094259090416 14.301167109783652 738613.0028204168 4.751748630541612 0.18509281234693517
0.31942804723571805 14.128051549991689 605028.368675877 5.020205606478194 0.18793872909492207
0.3337242398148055 13.97593187297075 497651.54285501246 5.3000975858435195 0.1908025470764517
0.34840870947307295 13.8419624373895 410966.889628248 5.592151864905578 0.19369053609134707
0.3634719350890817 13.723938836204486 340637.8462648203 5.896537409024514 0.19659779017746348
0.37892724181702 13.619940044925356 283256.07030445733 6.214117643402244 0.19953197613705126
0.3947608046848091 13.528394602079214 236385.91989744292 6.545148235579802 0.2024892410574232
0.41098719746960916 13.44780831491758 197840.36107453416 6.89033513807097 0.2054733559706022
0.4275960765133709 13.377029984209118 166058.9354991843 7.250381981472484 0.20848736673534848
0.44459293326517696 13.314893647946256 139775.13008110315 7.625545342259942 0.21152678136119862
0.4619761981351998 13.260525700556865 117962.49725073493 8.016779067563874 0.21459783615173336
0.4797423973765872 13.213108141162255 99795.21952391982 8.424786105744936 0.21770214331910015
0.4979008846330344 13.171944715203074 84630.12463804195 8.850004202265128 0.22083712510200568
0.5164418816078614 13.13635071165436 71928.13729649987 9.293312964741094 0.22400627775436735
0.5353612020730394 13.105813649618838 61264.75757282019 9.75559449910437 0.22721247869051087
0.5546691174824646 13.079797013953076 52295.02210904382 10.23765861132521 0.23045707919615965
0.5743540662260292 13.057812565373766 44719.19925589917 10.739971752570547 0.2337367149518767
0.5944128698232145 13.039498072572217 38321.98319346798 11.263788179706836 0.23705769315821967
0.6148517129374504 13.024478576342746 32895.37239288645 11.810041292181554 0.24042157203909678
0.6356571088584841 13.01241877625742 28284.317574743684 12.379710381488096 0.24382998505863074
0.656829733519278 13.003002484102634 24364.64920025699 12.973478181959237 0.2472808109040544
0.6783634106559515 12.995974343078077 21022.89769493515 13.592684213588399 0.250778976201455
0.700253582741395 12.991049897865452 18167.72434257784 14.238520518200449 0.2543270501907317
0.7224897208122547 12.98799705233324 15610.432143902373 14.912177157231037 0.2579270182065806
0.7450794365333527 12.986651745256744 13630.551434457748 15.614674453364037 0.26157868148861496
0.7680015404823637 12.98675936084634 11833.189479333414 16.34729760425981 0.26528412340572327
0.7912491403445147 12.988147027380714 10287.412502458053 17.11165410792729 0.26904794393136716
0.8148260560733652 12.990674080818383 8953.919839592985 17.909199501927667 0.27287257661283426
0.8387100734369636 12.99413064123869 7805.310068001763 18.74128414309413 0.2767589665726901
0.862892777536627 12.998419905172574 6812.232891345156 19.60928289095774 0.28070786439616474
0.8873759478486063 13.003373302006084 5953.721911130369 20.515267711681542 0.2847255000685407
0.9121305871327186 13.00887057569624 5209.45707926358 21.461033379795595 0.2888148882224448
0.9371564098197748 13.014753227432333 4563.873391933399 22.448044854001026 0.29297579411162983
0.9624413578545943 13.020959012642935 4003.327620598058 23.478366624804394 0.297212328281449
0.987962823132517 13.0273477898066 3515.2754783746864 24.55440322540356 0.30153044067181495
1.0137078901129077 13.033813686504416 3090.905548951185 25.678074036222764 0.3059315899865834
1.039674368134492 13.040262509412543 2720.5953642713134 26.851387187490626 0.3104173805366318
1.0658268756945681 13.046587433274427 2397.3553651106463 28.07741813738366 0.3149963811624816
1.0921614695982202 13.052726225401877 2104.3690469239737 29.35819392107476 0.3196688421564795
1.118662589430864 13.058548891751856 1867.757433499298 30.696527583924492 0.3244398381155853
1.145294522102275 13.064008291193923 1651.5233389918708 32.09576125661524 0.32931703408680235
1.1720594840546128 13.069014745628765 1461.5023444038795 33.557897645352185 0.33429852541762073
1.1989172099478846 13.073481301557937 1294.9911592161495 35.087451255469546 0.339397687546511
1.2258650415548737 13.077346126868282 1148.6373637176778 36.686410091488305 0.3446110637471932
1.2528631309986509 13.08049791849803 1019.7897044297515 38.359861867470975 0.3499533081747806
1.2799067706725833 13.082940896866816 906.3885415596053 40.11008604292175 0.3554212226918997
1.3069515789945068 13.084527911688221 806.4893152564738 41.94248128935013 0.3610289397001101
1.3339908409994485 13.085240346553997 718.3413922311548 43.86060790865929 0.36677881542391155
1.361000230648864 13.085033328809065 640.3751183937366 45.86908098327708 0.3726781910187883
1.3879325135546101 13.083767636631773 571.5871082014505 47.97327256761222 0.3787372337981347
1.4147827056800941 13.081461786738044 510.6263540358845 50.177984395127936 0.3849618184984073
1.4415150976446005 13.078018251876813 456.71208448321903 52.48835424851312 0.39135848470302415
1.4681104691541942 13.073416431034092 408.8562393228458 54.91084196522225 0.3979391433875824
1.4945208766483553 13.067545837901575 366.39136983521263 57.451639843262875 0.40471285965088305
1.5207331187386015 13.060397252693251 328.71653907511575 60.11737850733938 0.41168940901384177
1.5467172720217601 13.051902613667773 295.17919426104714 62.91516636979453 0.41887933591942045
1.5724337200464722 13.042018980583824 265.35647132720703 65.85263287003036 0.4262940170095462
1.5978477875840762 13.030678941459719 238.81556816033756 68.9379758760394 0.4339457297381585
1.622945149624342 13.017856649991675 215.14861238173518 72.18001367937217 0.4418477269480087
1.6476984011918758 13.003511279303712 194.01697179315502 75.5882420689438 0.45001431811469905
1.6720465767730268 12.987572779297368 175.16240573676902 79.17252657019417 0.4584594110862242
1.695983589066398 12.970011998167664 158.30149651805078 82.94321464898492 0.4671969198914296
1.7194634333818126 12.950795614751012 143.219927670678 86.91297580333287 0.4762480904709308
1.7424448532522991 12.929851720586601 129.7259071574848 91.09331503972236 0.48562696125545113
1.7649269017131974 12.907190522357514 117.62830291608053 95.49848333745804 0.4953560810470215
1.7868529336575993 12.882751966492274 106.78080513789651 100.1419970733634 0.5054523577759724
1.8081910040880969 12.856484475152135 97.04520674350795 105.04046824588593 0.5159418153716409
1.828903963759081 12.828351810196013 88.29235694136347 110.21044664455202 0.5268470037783084
1.8489771038784035 12.798363569260562 80.42927456741921 115.66967200107615 0.5381916741157979
1.868352148015447 12.76641716566496 73.35689978047102 121.43817077942167 0.5500044607162156
1.887026863589678 12.732591435688851 66.9780638311772 127.53738342703042 0.5623152141780625
1.9049498984361346 12.696763728553766 61.231331557242086 133.9899192321492 0.5751538115366683
1.9220893640831969 12.658936314694884 56.0507539521728 140.82141890934156 0.5885563627170904
1.9384006293093643 12.619039162608644 51.36939955533949 148.0595676056914 0.6025611264714521
1.9538948896896158 12.577185254107812 47.14462741227176 155.7327760788038 0.6172035312491161
1.9685076778954158 12.533243740036784 43.32152953240209 163.8748078334167 0.6325315431003369
1.9822195408638676 12.487235004790005 39.86190791342307 172.51957713194895 0.6485871541714472
1.995005336044066 12.439142348132947 36.73050946777011 181.7061630269164 0.6654227744188633
2.0068387946382766 12.388974416382101 33.88832131730367 191.47671041072837 0.6830932487347486
2.01768244657851 12.336689184149815 31.315162427551876 201.87728211242214 0.7016578480756069
2.0275159840527004 12.282296516188053 28.97989932365501 212.95772147944658 0.72117883739277
2.0363210792710547 12.225814758105441 26.858294920438222 224.77382061096228 0.7417274784561004
2.0440615413769114 12.167210216449602 24.932895113107588 237.3865045928807 0.7633800434806888
2.050716910177106 12.10649107693136 23.178708437426472 250.86282106451807 0.7862196316769916
2.056285015089742 12.043730741251904 21.5852560860892 265.2760867469737 0.8103350073080362
2.0607264881000265 11.978869798716527 20.13428338523391 280.70761607890086 0.8358243588600178
2.0640273951993375 11.911962333085278 18.814206628664536 297.2476767344836 0.862796276439629
2.0661839737206757 11.84304816342204 17.611949845689203 314.9965768521053 0.8913708712589935
2.0671710571510418 11.772145135167577 16.517785236919543 334.0636171913518 0.9216734816785156
