M[M_sun], R[km], Lambda[1], P_c[MeV/fm^3], rho_c[fm^-3]
0.24162668629717493 15.618656898711224 2160425.4255784233 3.5677272577965504 0.1711233750220791
0.25363751941638557 15.277430744712793 1723396.6730786301 3.7846950160876314 0.17388662009993403
0.2660252503332754 14.981578962370666 1383312.550287015 4.01113957924449 0.17666349615188534
0.2787923351762132 14.72396220440449 1116845.7892771184 4.247320911980065 0.17945279012186002
0.2919384941562809 14.49892245740946 906313.0874130881 4.493862317056344 0.18226103402600177
0.30546547827762677 14.30177181979149 739082.6403352541 4.750910392582862 0.1850837577771795
0.31937375208170055 14.128675180912436 605445.9090973561 5.0191620473286624 0.18792790176596882
0.33366171497684943 13.976517094711465 498080.2611136986 5.298821239775601 0.19078969638938886
0.34833312546604284 13.842594643291742 411353.2112790404 5.5906395517660155 0.1936759040456988
0.36338497952224097 13.724552674660117 340975.13979719224 5.89475516254874 0.19658105094139944
0.37882834494362544 13.6205452526867 283601.4893243014 6.212043905533702 0.19951306614463307
0.39464846559999817 13.529003369888503 236683.5703197448 6.5427851659225915 0.2024685201288802
0.4108623084847037 13.448382068565397 198107.5689701767 6.88763713093763 0.20545037860967993
0.4274570738192544 13.377552772741486 166302.12421630078 7.247323730804872 0.20846206661133782
0.44444008518295686 13.315407928570217 139995.62580125846 7.622135306758142 0.21149963528595866
0.4618080852447551 13.26101970063793 118152.43384093724 8.012957785646165 0.21456827544672616
0.47956116468691334 13.213536774617353 99961.16929714191 8.420523793761777 0.21767009669158965
0.49770226699613573 13.17236295243369 84779.68048614166 8.845316580952753 0.2208031847208376
0.5162262682223081 13.136744439210004 72061.52999741044 9.28812419702173 0.22396974850614107
0.5351285401252851 13.106180793192301 61381.54015861999 9.749869420802451 0.2271732817739954
0.5544206406969988 13.08009041442752 52397.99994274767 10.231359922298797 0.23041513238437028
0.5740853128199218 13.05809100611797 44813.86476869941 10.733126823064563 0.2336927683841545
0.5941304178197538 13.039749479499488 38402.180693453636 11.256294105446875 0.23701087004662844
0.6145475181896066 13.024700532067667 32689.75333400356 11.801853823704446 0.24037177857026643
0.6353332234882763 13.012580818063874 28350.321952716728 12.37078250965336 0.24377712246702268
0.6564833973817849 13.003146646356214 24423.4505307376 12.963850903515246 0.24722578532831987
0.6780034689997785 12.996068193061697 21075.111831247516 13.582220866875334 0.250720719090255
0.6998735418204136 12.991127575087882 18213.49554210027 14.227165028900572 0.254265446107075
0.7220891929579315 12.988032946557231 15765.269752396236 14.89986984933157 0.25786194483044134
0.7446591961875461 12.986658613612253 13666.344808852333 15.601471859972873 0.2615111985888256
0.7675605459383485 12.98674182872097 11863.869764301142 16.333021002172003 0.265212958125011
0.7907875201279907 12.988100622531443 10314.700957438607 17.09623188301475 0.268972950874021
0.8143422252334562 12.990608654537674 8979.445878418612 17.892555293680687 0.27279360103482025
0.8382044844800718 12.994062236026286 7827.214351900334 18.723491760523714 0.27667721978080506
0.8623665077950448 12.99831361242215 6832.500647090397 19.590111084224258 0.28062185259037736
0.8868210537733519 13.003244812714538 5971.594868267194 20.494624256589482 0.28463503724750894
0.9115626775837172 13.008729640803534 5225.439993331811 21.43881973892886 0.2887197758450348
0.9365629561274966 13.014625015139439 4578.473803652343 22.424353537026587 0.2928773938687083
0.9618218391439659 13.020806281598308 4015.841581186656 23.452900453564823 0.29710890259330835
0.9873266490179957 13.027202087459763 3526.7708752091394 24.527042399181738 0.3014217490980297
1.0130509837518982 13.033645644945443 3100.8408978911953 25.64892443269993 0.3058190960526921
1.0389934614337826 13.040091430290836 2729.5824372852344 26.820092613268812 0.31029915527042157
1.0651276643601932 13.046432099700757 2405.445629591428 28.04383218685581 0.31487213212718845
1.091438089426659 13.052553597963083 2111.7236286571647 29.322435587436495 0.3195401341111105
1.1179159369855083 13.058395733717257 1874.3777632570157 30.658170160106664 0.32430452981756885
1.1445275631311493 13.06386310805592 1657.1870560714954 32.05476244498473 0.3291756582228217
1.1712736578052367 13.06888266686206 1466.7864114571667 33.51411362778473 0.3341509687640973
1.1981162841617685 13.073366039063492 1299.6779725762206 35.04050806370106 0.33924245913766066
1.2250403683028537 13.077234609277543 1152.7870611045148 36.63644389460385 0.344449880530645
1.2520188899370959 13.08041519312771 1023.5640760086901 38.30634485409499 0.3497839041846253
1.2790441289827919 13.082881108206756 909.7843213176599 40.05306425467913 0.35524481632882565
1.3060731443815214 13.084480775729105 809.5609245646905 41.88176591417693 0.3608453879226225
1.3330945105982537 13.085231037708743 721.0370779194715 43.795518617848494 0.36658533638991947
1.3600887164897197 13.08505418485232 642.8939356922607 45.79975409486479 0.3724765978446313
1.3870063374568413 13.083830083262445 573.7676946686064 47.89941213566479 0.3785270031661461
1.413842876073216 13.081559433671265 512.6617526238252 50.098781007735234 0.3847398818785393
1.4405704301195295 13.078182319607937 458.4959202412983 52.4039335732408 0.39112669715842
1.4671419676338744 13.073594415800025 410.510528118585 54.820830420659114 0.39769684849784176
1.4935487986228142 13.067781728117891 367.86770274439954 57.3556335984242 0.4044593502697189
1.5197515109801478 13.060690903357928 330.0342112719673 60.01494077443787 0.41142392310536396
1.545728002897262 13.052253051581898 296.37894131906705 62.80582442699078 0.418601051981915
1.571430582976916 13.042425045696815 266.4559888993191 66.30761282906037 0.42743049781830883
1.5959948241455497 13.03078460130048 240.52229273919497 68.85550701555506 0.5050592235525944
1.618326190370084 13.015794705147956 218.5860824291456 72.21591783138857 0.5831074351782999
1.6386677504331546 12.996851625531038 199.67445753169926 75.82973450651775 0.660467569358308
1.6571281367692139 12.973618430035176 183.2090601647679 79.71023712683028 0.7374748012565441
1.673914431022628 12.94609288557419 168.68857972535974 83.87179256092514 0.8143436355485671
1.6891711981972144 12.914386266986433 155.7286899672358 88.33003351331061 0.8913261010014758
1.7030597896840804 12.878599593931952 144.10922697638205 93.10217422840606 0.9687014988159953
1.7155915647754885 12.838686197670166 133.61359373019963 98.20697900795284 1.0467444783983537
1.726941329201275 12.794880043304127 124.09850927516483 103.66435101958092 1.1256930055912444
1.7371910031034852 12.747398087153828 115.37988557568144 109.49744335312238 1.2058951938563789
1.7463875309114751 12.696292636065383 107.38674345912443 115.73062833061459 1.2876302343222654
1.754590375133554 12.641725388687544 100.04594751796827 122.39047232590488 1.3711866305766056
1.7618727362609952 12.583897248646597 93.28483531918582 129.50640913419895 1.4568778779112723
1.7682461811627868 12.52286524814576 87.04133524802371 137.11108754740366 1.5450327952393301
1.7737698877976258 12.458854882719166 81.27662041759315 145.23953647439774 1.6359367845199775
1.7784634877580277 12.391936826824347 75.92434896921723 153.93078482759788 1.7297912823453072
1.782351255648992 12.322323571555076 70.97403657589669 163.22618866343723 1.8265611476511059
1.7854438207388876 12.250075679150697 66.37421105306105 173.17265924319102 1.9279410929169412
1.7877563152379587 12.175321312447549 62.116904429004705 183.82249240595323 2.0344499900347044
1.7892622987712639 12.098116429210572 58.17178149929527 195.2332421543772 2.146579843398051
1.7900297829733076 12.018771442091882 54.51175672493827 207.4671967325389 2.264842099067587
