M[M_sun], R[km], Lambda[1], P_c[MeV/fm^3], rho_c[fm^-3]
0.24162668629717493 15.618656898711224 2160425.4255784233 3.5677272577965504 0.1711233750220791
0.2536446768348767 15.277264132868686 1723230.5360703466 3.784842604905558 0.1738884597233503
0.26604222310288694 14.981211354558901 1382914.038307548 4.01144983483123 0.17666724540755077
0.278819236731359 14.723416796126607 1116359.2489939905 4.247804325037641 0.17945839698483998
0.2919743426251023 14.498326801605769 905838.4695499828 4.494531566786205 0.18226848627706854
0.305511661758087 14.301155854589652 738632.9799043756 4.751788196233858 0.18509323973192368
0.319429455616904 14.128051584057523 605034.6985363113 5.0202548647712755 0.18793924016872474
0.3337287358873749 13.975927607141847 497632.7212304944 5.300157833743323 0.19080315367283338
0.34841219737932533 13.841884345451566 410943.53117875085 5.592223252971594 0.19369122679052395
0.36347761346842433 13.723867196248973 340612.9082729094 5.896621541289226 0.19659858036549793
0.3789318521150866 13.619914924632063 283249.7795172484 6.214215538178046 0.19953286881953358
0.39476609970500354 13.528369253797862 236364.80761654186 6.545259791361614 0.2024902192509252
0.4109931145098892 13.447780500565177 197821.8483501978 6.890462508697096 0.2054744407123033
0.42760314645124853 13.37699603292684 166044.2519208106 7.250526362402579 0.2084885611617815
0.4446009427115699 13.314841461416076 139767.95949176527 7.625706334564292 0.21152806296345897
0.46198195358885147 13.260490422996542 117949.0092831431 8.016959479674464 0.21459923178526571
0.4797510350146224 13.2130953430432 99788.29163488526 8.4249873447619 0.21770365635518074
0.4979105185423541 13.171931190638473 84616.93415898435 8.850225526291204 0.22083872758251896
0.5164517780107825 13.136345833306065 71921.68137908579 9.29355795593707 0.22400800250766043
0.5353722006501621 13.105798713616101 61259.08962056809 9.755864818902092 0.22721432944293468
0.5546809926242863 13.079783042021072 52289.63136140095 10.237953511318068 0.23045902755199543
0.5743660677655998 13.057803236396966 44314.04641073812 10.740294962177643 0.23373879005767206
0.5944256073180947 13.039506420789781 38316.662375830085 11.264142049367221 0.2370599041422615
0.6148668262982221 13.024464681251892 32614.717330103544 11.810427912809105 0.24042392333757456
0.6356726866017708 13.012407719811726 28282.935313652335 12.380131974461369 0.24383248134190896
0.656845659807995 13.003008294756858 24362.258737961365 12.973932811228828 0.24728340937852988
0.6783798022476757 12.99596385630043 21019.994634243354 13.593178335902476 0.2507817273421165
0.700271068829102 12.991045446845341 18164.923868259222 14.239056783507516 0.25432995945619497
0.7225092907507918 12.987983122219868 15610.059392849611 14.912758385766438 0.257930091380943
0.7450991559466829 12.986648370532034 13628.613597651038 15.61529797480887 0.26158186851664283
0.7680225562120501 12.986758436737604 11831.468489367608 16.347971863669553 0.26528748441977074
0.7912703644896038 12.988145677136488 10285.98529123644 17.112382489982863 0.26905148580665256
0.814847037117938 12.990672975897882 8952.47126739252 17.909985615739853 0.27287630666666324
0.8387345602254954 12.994136360939903 7804.430912247229 18.74212450166307 0.2767628275855012
0.862915787869232 12.99842514005895 6811.1561882428305 19.61018842274295 0.28071192694619596
0.8874017891842617 13.003366705665943 5952.693085684819 20.516242775922706 0.28472977295123153
0.9121605708294145 13.008860713314386 5208.903634568607 21.462082634282286 0.2888193808263063
0.9371834528414331 13.014763608689247 4563.17403972124 22.449163927477425 0.292980442105747
0.9624711236074758 13.020966808792638 3980.195341663905 23.479569563250337 0.2972172137719058
0.9879929128492775 13.0273588035131 3514.887547805424 24.555695692180162 0.30153557502875555
1.0137380986338242 13.033813502404705 3090.6108800041065 25.67945102777613 0.30593690406218144
1.0397069942020043 13.040274015820486 2720.126161925431 26.852865540841126 0.3104229654893836
1.0658603538204723 13.046596700780784 2396.9668310104958 28.07900477419217 0.3150022508219588
1.0921956201907885 13.052726738437292 2114.5928048446635 29.35988321727381 0.3196749225855629
1.1186968658805894 13.058558951137314 1867.4567342669416 30.6983397117795 0.3244462305140168
1.1453304043827128 13.064014236960244 1651.222719043615 32.0976903008769 0.3293236620928822
1.1720969073018461 13.06902644340004 1461.3024363941197 33.55996623784682 0.33430549678760846
1.1989551918639865 13.073486269345175 1294.7247488263943 35.0896691617243 0.33940502156121977
1.2259035604062223 13.077344716257532 1148.41332065222 36.68877087431054 0.3446186792671364
1.2529033178441187 13.08050326915229 1019.6397467815888 38.362375109413705 0.3499612221327224
1.2799476978999473 13.082947315723713 906.2058357092202 40.112780315481345 0.35542955787110075
1.306999502952681 13.084547720553967 806.3416256235329 41.945350146828964 0.36103761269089857
1.3340323475199223 13.085237720269822 718.1333758928581 43.863683522510556 0.36678795773886785
1.3610439398565608 13.085031326113713 640.2616327799922 45.872356907918586 0.3726877169626451
1.3879829799231218 13.083785667938823 571.4445485667219 47.9767627984145 0.378747168121669
1.414827819538788 13.081455353390625 510.5647894134619 50.18172721208519 0.38497230628398854
1.441560185342753 13.078011514686475 456.6025440054773 52.49234370886792 0.39136943826643683
1.4681547832566406 13.073409608657013 408.7596163135888 54.91509573772807 0.3979505937781438
1.4945658731685783 13.06753543983468 366.3116858131523 57.456177028055734 0.4047248403185052
1.5207791662575634 13.06038355877351 328.65936625230455 60.12221976411224 0.4117019560062059
1.546763467633402 13.051888934670385 295.11637454418127 62.92033405876372 0.4188924880986965
1.572481370656492 13.041999187942707 265.3051145614903 65.85815120711743 0.4263078162907518
1.5978950964216692 13.030654885212975 238.7712460513448 68.94387110386744 0.4339602213515037
1.6230041338506067 13.017842310292389 215.09429995197743 72.18631425587033 0.4418629597278477
1.6477455914896204 13.003480961336074 193.9722720036817 75.59497887557794 0.4500303448180307
1.672093529164238 12.987537562886947 175.1331477023218 79.17969795529656 0.4584761418456221
1.696030111498225 12.969977346315224 158.2628598105952 82.95089059818068 0.46721455920032545
1.7195101559929011 12.950755042958226 143.1907153994418 86.92119584030578 0.4762667048103393
1.742491692411805 12.929808148948142 129.69522180959476 91.10208258562947 0.4856464658178768
1.7649733842137485 12.907144299963507 117.60015762085096 95.5078828754427 0.49537670573217474
1.7868839815969455 12.882666623706628 106.7517408668073 100.1520367885593 0.5054740230458045
1.8082352571420013 12.856426769128163 97.0254296002455 105.051200212008 0.5159646047241961
1.828939447049233 12.828272343233916 88.27481685844299 110.22192766215973 0.5268710075320863
1.8490206961264508 12.7982958788842 80.4182462731632 115.68201099954214 0.5382171622287676
1.868392278458604 12.7663456966806 73.33792822886431 121.45139021301863 0.5500313706386369
1.8870682275419735 12.732512956237505 66.96493393291112 127.551507260049 0.5623434819116124
1.9049885584713278 12.6966812773369 61.21623477602376 134.0050771293753 0.575183737932278
1.9221278053160795 12.65884642114828 56.0388443105381 140.837699778155 0.5885880840408405
1.9384374221221765 12.618941193676813 51.35870824953456 148.07706897085626 0.6025947912180939
1.9539304076081467 12.577081940030151 47.13457949680289 155.7515473915922 0.6172391047658851
1.968542293526947 12.53313819438885 43.31423998108108 163.89496287800645 0.6325691928911306
1.982251975262264 12.48712081962316 39.85511502514776 172.54130154346518 0.6486272659220139
1.9950357252176647 12.43902229143125 36.7233796595454 181.72953557681296 0.6654653478425786
2.006868455374699 12.388845118502983 33.88260672438643 191.50188292079872 0.6831385016580009
2.017708617196298 12.336554018426622 31.308409619685808 201.90442206258845 0.7017060188100168
2.0275395361645834 12.2821575202885 28.973698491783814 212.9869453558761 0.7212299628161745
2.036342569105153 12.225667059962545 26.85365246480865 224.80539899370467 0.7417820624424454
2.044080470638126 12.167054439073683 24.92754007638942 237.42059136440443 0.7634381645574009
2.0507325595977255 12.10632729535398 23.173925253765315 250.89966256816635 0.7862816218950535
2.0562982531464047 12.043560148418083 21.58120092795817 265.31595627412105 0.8104012315467856
2.0607383097769634 11.978691287550735 20.13117899927276 280.75081726640377 0.835895218862511
2.064035618783664 11.911775538895338 18.81065455842123 297.29454743814347 0.8628722153779029
