M[M_sun], R[km], Lambda[1], P_c[MeV/fm^3], rho_c[fm^-3]
0.24162668629717493 15.618656898711224 2160425.4255784233 3.5677272577965504 0.1711233750220791
0.2536407134411949 15.277397016390324 1723331.360235399 3.7847765630912966 0.17388763654399514
0.2660343459494302 14.981396226596264 1383199.5752914953 4.0113110021248195 0.17666556769622727
0.2788069921698164 14.72367199701246 1116578.6579428245 4.247588004891186 0.1794558879971286
0.29195912156250836 14.498566214727072 906053.5150249036 4.494232083186535 0.1822651514576797
0.30549083299374374 14.30141816453999 738775.0302113022 4.751395380785583 0.18508899657538277
0.31940349811326385 14.128377192923697 605250.4466028508 5.01976582431804 0.18793416618527015
0.3337000687744443 13.976115622792506 497789.6545807487 5.299559693751387 0.1907971313956083
0.3483758530780239 13.842248649732795 411139.90503151785 5.591514520468842 0.19368436960859423
0.363435412683063 13.724195797820522 340763.1988922147 5.895786294303393 0.19659073554904988
0.3788854073636872 13.620230934003947 283405.3573251012 6.213243669713632 0.19952400654934394
0.39471404663962173 13.52863238687397 236489.83639699547 6.544152310899979 0.20248050814340948
0.41093433933553086 13.448076423429711 197953.19383709508 6.8891980373436486 0.20546367194364254
0.42753788262657655 13.377231128853492 166154.7049385736 7.249093035361646 0.2084767036145021
0.44452915878272675 13.315105460189491 139874.03897963735 7.624108113800734 0.21151534009852846
0.46190229908032826 13.260759827407027 118036.96077717695 8.015168489690579 0.21458537702978714
0.47966520791484235 13.213306609228354 99863.49249324648 8.42298962072989 0.217688636263227
0.4978167270102324 13.172124999624026 84691.90271216039 8.848028434453752 0.2208228196988707
0.5163511189272426 13.136520135445137 71981.2907312179 9.29112594222656 0.22399088097952005
0.5352640822624559 13.105951590663235 61313.88760515439 9.753181394899363 0.2271959573017929
0.5545649434831046 13.079925139303596 52335.39745001112 10.23500369756335 0.23043939850619086
0.5742423152830001 13.057936061686036 44358.31536107963 10.73708656505752 0.23371819115432385
0.5942927146260262 13.03961450836283 38354.13705870796 11.260629332558603 0.2370379566240741
0.6147241143657733 13.024588289322821 32925.15301090237 11.806590126503334 0.2404005831936304
0.635519565365363 13.01247925465676 28315.04875090272 12.3759470743921 0.2438077022380668
0.6566863010150372 13.003071662608559 24389.625253823753 12.969420015010828 0.24725761608590696
0.6782113134103676 12.996010022164878 21043.975147233818 13.588273564445116 0.25075441888870886
0.7000935639840323 12.991085317513871 18186.650765388415 14.233733740359217 0.25430108168732424
0.7223216050671244 12.98801696834881 15742.728397346884 14.906989084967906 0.2578995869128668
0.7449024107334034 12.986651520276531 13645.54184304766 15.609108920191044 0.26155023417479867
0.7678154118565174 12.986751144611913 11845.929535556255 16.341279247690984 0.2652541234076836
0.7910540105082475 12.988130019520769 10298.632922409603 17.105152726580442 0.2690163299154299
0.814621176329707 12.99065138968979 8964.33617514016 17.90218289225189 0.2728392833016343
0.8384974506398467 12.994110554733297 7814.154711516767 18.733783425120166 0.27672450465457543
0.8626715006996278 12.99837141949237 6820.919089473268 19.601200546274477 0.28067160401283897
0.8871400210700311 13.00331028465077 5961.219613714408 20.506564844833218 0.2846873627566105
0.9118919761426079 13.00880261488607 5216.094292291442 21.45166843205495 0.28877479022818636
0.9369055578560018 13.01468926683795 4569.838325944215 22.438056833939896 0.2929343095626121
0.9621772159684314 13.020888159414199 4008.467045088529 23.467630202750147 0.29716872448138487
0.9876958178758573 13.027277564415517 3520.2512830073956 24.54286787238552 0.30148461619036343
1.0134356547071217 13.033750068069075 3095.4035167774755 25.665784400833154 0.3058841619167647
1.0393864653534604 13.04019331276805 2724.3769615889933 26.83819304296646 0.31036753543448314
1.0655330111954966 13.046525786524695 2400.880615573507 28.06325773050513 0.314943995660021
1.0918552752416617 13.05265447683322 2118.186275729016 29.343117434705523 0.31961457606256005
1.1183481091063754 13.058487656660072 1870.668576788176 30.680355041318983 0.32438278842358975
1.1449724818075195 13.063950206320714 1653.7747840272948 32.078545436870435 0.3292578822258493
1.1717292271665416 13.068955913642583 1463.7971290430578 33.539436633930386 0.33423630990571934
1.1985774074809303 13.073420880409664 1296.9157724645743 35.067657932888665 0.33933223639471793
1.2255173489508913 13.07729734243275 1150.3382428017662 36.66534189072601 0.3445431009928214
1.2525080715571284 13.080461474714257 1021.4017429986669 38.33732318330972 0.3498820367404526
1.279543343726833 13.082915721815585 907.7806606926407 40.086042217833004 0.3553468391295981
1.3065814771472215 13.084512050098532 807.7769670526271 41.916879712800615 0.360951542255579
1.3336133950995785 13.08523071814036 719.4678194930622 43.83316158485752 0.36669723075537924
1.36061577453026 13.08503906438821 641.3929614829898 45.83984741467216 0.37259318377236533
1.3875423659394364 13.083793707753276 572.5096100283399 47.94212690659912 0.37864858319285327
1.4143934723943221 13.081519213399059 511.4668577713342 50.14458517044945 0.38486823019018757
1.4411209310189175 13.078097793893285 457.45346323369523 52.45275447375246 0.39126074105961434
1.467703230097191 13.073497021720616 409.52991797714566 54.872884031764315 0.39783696745729913
1.4941104319222782 13.06764705952915 367.03575339945047 57.41115337713065 0.40460595307421243
1.5203192001629773 13.060520407047422 329.2653040656005 60.07417922638916 0.4115774502655973
1.5463002392146008 13.052052136825099 295.67816684761783 62.869054826892445 0.4187619783767044
1.5720145041046418 13.04219050217867 265.8127889716177 65.80339306951383 0.426170886826827
1.5974371698853247 13.030885649322391 239.24321999139374 68.88537374922174 0.43381642350857536
1.6225246306761607 13.018088513297242 215.52951361825555 72.12379540310036 0.44171180912753183
1.6472757146284436 13.003773134293446 194.3609801501595 75.52813220923592 0.44987131818295645
1.6716244476795992 12.987866590095738 175.4714067334081 79.1085398434546 0.45831013078479643
1.6955638075571664 12.97034316014454 158.58695062553016 82.87472687407323 0.4670395351841513
1.719035375470482 12.95114925542403 143.48616439097438 86.83963448612796 0.47608200847207627
1.742034828973767 12.930252366975544 129.9673320174131 91.01508965008964 0.4854529385572492
1.7645204747918477 12.907639111672667 117.84222327835883 95.41462044233944 0.49517206712945677
1.786446066535184 12.883227562275962 106.96490216452368 100.05242365527779 0.5052590622257763
1.807788245525123 12.857002480695973 97.21668793481685 104.94471990190026 0.5157384935624909
1.8285152308703636 12.828925650117823 88.45781762883747 110.10780942296925 0.5266320782830117
1.8485900451921058 12.79897177870955 80.57796912667558 115.55958934905141 0.5379642813433176
1.8679830886433233 12.767101551924673 73.485735171885 121.320235030729 0.5497643867505076
1.8866608298837753 12.733292950213462 67.09902239543399 127.41102171953054 0.5620617467932748
1.904591058329578 12.697513927528387 61.34069285483036 133.8546935813195 0.5748868341147386
1.921727448426732 12.659691630980678 56.15166579620726 140.6761774203947 0.5882733770640752
1.9380739100257216 12.619922011365219 51.462504502927956 147.903440679524 0.6022608085611701
1.953568126173177 12.578068200219084 47.227641247469315 155.56532272162838 0.6168861903749513
1.9682029627888504 12.534210825702273 43.3982583291444 163.6947706526764 0.632194863770237
1.9819333821537986 12.488258859524882 39.93219837017637 172.32578670303604 0.6482293413330666
1.9947335847915224 12.440226268300925 36.79348553495211 181.49767413377626 0.6650430090091464
2.006580688683854 12.390102787797124 33.94865291278628 191.25216944298805 0.6826895887440779
2.0174485876766792 12.33789262833516 31.370269222931213 201.63519589833726 0.7012281689254422
2.027301459653304 12.283558069298994 29.03158175315905 212.69705140617847 0.7207228106949826
2.036129643022026 12.227143400337456 26.905628598760345 224.49215452401782 0.7412406119192985
2.043893258752618 12.168603560315738 24.974003205973354 237.08247055114063 0.7628616375104791
2.0505718940062474 12.107950545659175 23.21719180167588 250.53380108571616 0.7856653520983807
2.056158765389325 12.045233571252751 21.621277738130228 264.9198211601571 0.8097421750988555
2.0606321424154572 11.980463951199244 20.167238423511936 280.3220985774558 0.8351916754339611
2.063967121547901 11.91363287020217 18.84530270305636 296.8296530739996 0.8621190032076994
2.066143640824723 11.844774506152424 17.640610854142523 314.54247882576846 0.890643949633036
2.0671607377459464 11.773941846841067 16.544139417103388 333.5704504708651 0.9208945642373865
