M[M_sun], R[km], Lambda[1], P_c[MeV/fm^3], rho_c[fm^-3]
0.24162668629717493 15.618656898711224 2160425.4255784233 3.5677272577965504 0.1711233750220791
0.2536415930805586 15.277352312594667 1723234.6931203553 3.784792375463876 0.1738878336375912
0.2660366103749159 14.981329392673215 1383081.7158883663 4.0113442424868 0.17666596938638468
0.2788107216491559 14.723620377967952 1116487.2079540445 4.247639797402945 0.17945648871221537
0.2919627169341768 14.49851890253479 906006.9483292216 4.494303786495899 0.18226594989067094
0.3054963280284657 14.301344167082602 738730.582195249 4.751489429055708 0.18509001247619394
0.31941024846963756 14.128273812895412 605183.9402495305 5.0198829098807725 0.18793538099317436
0.3337078239365052 13.976084787394655 497780.6554025888 5.299702898558867 0.1907985732303999
0.3483854190540825 13.842156647084606 411105.3210097932 5.59168420160348 0.1936860113202495
0.3634456713107518 13.724120890752834 340738.63501708885 5.895986263180702 0.1965926136990635
0.3788972455146913 13.620109653440437 283369.8584178476 6.213476345553871 0.19952612827284696
0.3947257593778328 13.528575200655682 236449.2251759931 6.544417451663808 0.20248283306972062
0.4109484371050788 13.448011647707709 197923.8935203633 6.889500760614157 0.20546625006204708
0.4275527917459318 13.377184385469944 166129.5964380308 7.249436181021004 0.20847954237060126
0.4445459166765241 13.315048886851297 139844.02858219118 7.624490733004612 0.2115183859934147
0.4619241932387965 13.260667632521493 118020.85514339166 8.015597254975031 0.21458869387590424
0.4796864528466956 13.213243578744741 98773.19684225792 8.423467874531294 0.217692232063227
0.4978391653415609 13.17207825183285 84674.1828337954 8.8485544130275 0.22082662800847797
0.516374498948009 13.13648653374492 71964.72206910767 9.291708155881533 0.22399497979994787
0.5352896136123958 13.105927429199346 61299.32135801377 9.753823789977142 0.2272003554785349
0.5545929059974412 13.079889892139995 52322.08314962251 10.235710460147537 0.23044410526929257
0.5742705562065952 13.0579028258167 44750.068603289365 10.73785462409272 0.23372312233124473
0.5943199216483195 13.039617620068377 38344.3822083184 11.261470236136315 0.23704321060484487
0.6147582364461287 13.024538351524273 32916.598803274486 11.807508840707666 0.24040617050883353
0.6355555295465416 13.012466324095973 28307.667080306317 12.376948875061393 0.24381363397416628
0.6567244654655477 13.003042313167713 24382.872806611507 12.970500301821742 0.2472637905623257
0.6782516560690761 12.995999164781532 21038.424973813457 13.589447674279505 0.2507609560177039
0.7001358440508406 12.991081355237162 18182.297764586416 14.235007966564257 0.25430799442667523
0.7223649314754891 12.988001954909066 15736.713945348001 14.908370125165238 0.25790688899297715
0.7449488202617455 12.986652672934838 13641.478157385876 15.610590430342484 0.2615578066719683
0.767865668277516 12.986758768066093 11842.29435297998 16.342881285689415 0.2652621091653008
0.7911052828500937 12.988129490179274 10294.463590778549 17.106883330057705 0.2690247452541083
0.8146763711010113 12.990650903583736 8961.879261517883 17.90405063161409 0.27284814559135817
0.838553808357942 12.99411799894188 7811.705818870629 18.73578001725684 0.27673367796237897
0.8627298656989926 12.998386086203553 6818.740441154182 19.60335194493914 0.2806812559818312
0.88720138736993 13.0033217394611 5959.270935599099 20.508881401121393 0.284697514265453
0.9119585907114302 13.008808984685365 5214.436288530615 21.454161205731687 0.2887854635631953
0.9369718818093125 13.014704228953459 4568.182240113376 22.440715442769804 0.29294535191010923
0.9622454924336598 13.020909500544738 4007.232122113464 23.47048800092591 0.2971803308489112
0.9877665065953632 13.027299573355872 3518.871926327679 24.54593830653643 0.30149681356764146
1.0135046355596222 13.033759760850383 3094.3022513907504 25.66905558806244 0.30589678605827764
1.0394631678795392 13.040217009771691 2723.3642841883984 26.841704962167807 0.31038080283283614
1.0656132196570856 13.046548382751256 2399.8743666004643 28.067026814851413 0.3149579391419414
1.0919369533956453 13.05266826687338 2117.3093503395253 29.34713032888685 0.31962902001768323
1.1184312241942314 13.058508158756856 1869.9584788170146 30.68465963992111 0.3243979731740898
1.1450581980238832 13.063968886747762 1653.1304082935976 32.08312769398233 0.32927362640995156
1.171816844024767 13.068977800167456 1463.1801007445272 33.544350281000774 0.3342528694029648
1.198666889136741 13.073440972832175 1296.3741170030005 35.072926152269936 0.3393496569679943
1.2256097353103295 13.077305281249311 1149.8942210618156 36.67094939854603 0.34456118994502527
1.252601157632011 13.08047624868773 1020.945825197813 38.343334474180516 0.3499010791921253
1.2796398220304077 13.082924811649422 907.4255180987573 40.09244162596967 0.3553666367604688
1.306680245126866 13.084518813527913 807.3921948461937 41.92369368134321 0.360972141914795
1.3337132886976046 13.085233392259806 719.1840486993104 43.84046648120699 0.3667189446851441
1.3607175206587487 13.085037871188028 641.1399144784141 45.847627937414615 0.3726158084755962
1.387646136819082 13.083787720186779 572.2755984979697 47.950416276278474 0.37867217741482745
1.4144997694032027 13.081507736026548 511.23588736651385 50.15347424685875 0.3848931383618829
1.4412278817600817 13.07808475470452 457.24234156506793 52.46222915050274 0.391286754972116
1.4678140115265288 13.073473329378693 409.3579109697281 54.88298624534822 0.39786416079942355
1.4942194612357502 13.067616591906 366.8443319957229 57.421928460148926 0.40463440522992944
1.5204285482793147 13.060486557734446 329.1146319053281 60.08567621153323 0.4116072467815809
1.5464116074038141 13.052012797521481 295.5486193467082 62.88132678125157 0.418793211476212
1.5721262509493734 13.042144816082278 265.69244205603815 65.81649746258105 0.4262036559748712
1.5975492337666297 13.030833112150635 239.1243944905111 68.89937285838715 0.43385083603394675
1.6226363754419242 13.018031991692885 215.42520125917164 72.13875676088307 0.4417479809078861
1.6473880745508322 13.003703453955886 194.26431758222392 75.5441290970328 0.4499093743999259
1.671738468270386 12.987786705828235 175.3820052370778 79.12556834847639 0.45834985809219353
1.6956750989769835 12.970257747904705 158.5036606963154 82.89295306016425 0.4670814189067052
1.7191475346481617 12.951056599510187 143.41382793830704 86.8591521335601 0.47612620634064484
1.7421446178357085 12.930143165325948 129.9022976713886 91.03590688456696 0.48549924924141263
1.7646294317582003 12.907521083177478 117.78141853482573 95.43693770698567 0.49522103619129365
1.7865550572512234 12.883099340830437 106.91308136413508 100.07626037938405 0.5053105008422707
1.8078955040061582 12.85686493111465 97.17161189800764 104.97019963543367 0.5157925998300567
1.8286100180115235 12.828751207232532 88.41026252796242 110.13517467555373 0.5266894675532008
1.8486924378396519 12.798810371079904 80.53750871616 115.58888302749385 0.5380247919745084
1.8680837803109425 12.766927895122661 73.44824767127034 121.3516181640238 0.5498282713092605
1.8867593346335496 12.733104834873767 67.06760281618885 127.44467041878853 0.5621292794641979
1.9046865482594124 12.697314016552879 61.31244529301594 133.89067693712678 0.5749578764318349
1.9218345450664382 12.659527158562302 56.12439551040335 140.71482556507013 0.5883486783470495
1.9381556899205112 12.619664723256536 51.438001860116636 147.9449849362086 0.6023407210058587
1.9536611755569413 12.577858003823689 47.20686712356599 155.60988040870382 0.6169706316522466
1.9682836902295118 12.5339537691272 43.37714054498822 163.74275161515874 0.6322847049571693
1.9820100544288042 12.487988146193752 39.91500843328982 172.37735125663005 0.6483245496433264
1.9948087560810746 12.439939987117882 36.77786411806051 181.55314908482086 0.6651440574016778
2.0066479885295494 12.38979676400198 33.93408121670508 191.31191484263618 0.6827969937655637
2.017511370469668 12.337573037323759 31.354733964432906 201.69960891254277 0.701342495671837
2.0273595729188525 12.283224119892294 29.017424964543263 212.76640830721405 0.7208441464438528
2.0361807776663317 12.226788696271301 26.892974001742463 224.56709687957326 0.7413701515650005
2.04393753928794 12.168230182216169 24.963325148232585 237.16336328089997 0.7629995670456515
2.050609791254429 12.107561276812472 23.207098735065177 250.6214037760198 0.7858130304326167
2.056190437894083 12.04482887897397 21.61099902284237 265.01461062369555 0.8098999102733353
2.060657983353864 11.980040240787911 20.158799235078522 280.4247952157221 0.8353604220602652
2.063984684888982 11.913190912296335 18.83701753541696 296.9408681714377 0.8622991915931942
2.066154160293005 11.84431472927047 17.632916083457406 314.6632896302693 0.8908373439693853
2.0671624437250418 11.773459508751465 16.53636271023891 333.7016533306028 0.9211017886739318
