M[M_sun], R[km], Lambda[1], P_c[MeV/fm^3], rho_c[fm^-3]
0.24162668629717493 15.618656898711224 2160425.4255784233 3.5677272577965504 0.1711233750220791
0.25364366410759703 15.277280465953208 1723224.2030693844 3.7848133313263963 0.17388809484230808
0.2660383817992821 14.98130902441294 1382932.6967730084 4.011388295664323 0.17666650174303666
0.278814400037103 14.72351717321967 1116447.0700401834 4.247708438048476 0.17945728484026427
0.29196738042086634 14.498488599490466 905942.239290791 4.494398815549435 0.18226700806123716
0.3055036699231209 14.301227255160612 738703.4050078852 4.751614072910627 0.18509135886771344
0.31941875462112385 14.128175964065392 605140.9702979319 5.020038086436952 0.18793699100983738
0.3337157240154254 13.976006992455007 497717.0539184757 5.299892692849904 0.19080048414398496
0.3483965372381729 13.842064336213943 411028.36032019736 5.5919090872325645 0.19368818715057481
0.36345821349882734 13.724033729949385 340671.5066990066 5.896251292105035 0.19659510290680693
0.37891156529794795 13.620029146488617 283324.2681551704 6.213784724597925 0.1995289403184162
0.3947439380883161 13.528462531754583 236409.82511841867 6.544768860386391 0.20248591444948777
0.4109671589961395 13.44790042451678 197877.49156091167 6.889901982383945 0.20546966703500477
0.42757406630611056 13.377111787240764 166099.56994324658 7.249890980359828 0.20848330480897628
0.4445686747097896 13.314973707410976 139816.90459648368 7.62499785265081 0.21152242299187526
0.4619495764534489 13.260587312015389 117985.00514148008 8.016165539560443 0.21459309001661075
0.4797119311974102 13.213192747474384 99829.66126713851 8.42410175485235 0.2176969979570929
0.4978689396397484 13.17201146224079 84653.1552595117 8.849251551669878 0.2208316755901132
0.516406169098412 13.136426787822451 71944.19603639732 9.292479833729304 0.2240004124601047
0.5353241472874393 13.105863281868238 61281.924650135596 9.75467523847973 0.2272061849456816
0.5546294482053107 13.079843947991533 52305.27174190293 10.236647228606888 0.2304503437817973
0.5743110397781565 13.057869828245689 44736.86378841797 10.738872642153025 0.23372965832253442
0.594365460962774 13.03956971475791 38332.932818943904 11.26258481187676 0.23705017449424087
0.6148028160358526 13.024514243107046 32906.7952935387 11.808726557568534 0.24041357625906334
0.6356037302972034 13.012438326304483 28297.654738778678 12.378276727167155 0.24382149628501507
0.6567745959951 13.00302537100071 24374.200437540632 12.971932191527374 0.24727197465670908
0.6783058169128782 12.995979107449294 21030.538551046026 13.5910039326775 0.25076962084751736
0.7001912510478784 12.991077516718171 18175.18240373221 14.236696936838577 0.2543171571728436
0.7224249526135562 12.988008725331616 15732.013413589446 14.910200686514337 0.25791656786086514
0.7450122028673725 12.986653641688578 13636.543496194732 15.612554173409384 0.261567844023924
0.7679307291865575 12.986756161379951 11837.835730319051 16.34500480072944 0.26527269435517936
0.7911742431937181 12.988135250843541 10290.52525971789 17.109177272957872 0.26903589992163757
0.8147485375421658 12.990652247369901 8957.382516005115 17.906526364667222 0.2728598927676719
0.8386293985799456 12.994130490876397 7808.834908742019 18.738426560244868 0.2767458374580508
0.8628085136493291 12.998395565824076 6815.869814967578 19.606203705219816 0.28069405003169945
0.8872771183316357 13.003370884600987 5956.0459962848345 20.511952102024086 0.28471097055292827
0.9120406895918317 13.008843968341544 5212.064926870784 21.45746551023711 0.28879961163820395
0.9370626229162052 13.01471800419428 4565.970940591016 22.44423958742332 0.29295998920065625
0.9623375868815854 13.020928272169925 4005.2173575665165 23.474276205443243 0.29719571587304133
0.9878612333080682 13.027321981655952 3517.1997386232756 24.55000839876081 0.30151298211188543
1.0136025399293322 13.033776656210613 3092.4944484775597 25.67339181465426 0.3059135203918056
1.0395650553730453 13.04023102631008 2721.9670317202626 26.846360326963733 0.3103983899627457
1.0657148494879018 13.046563630339097 2398.831604491219 28.07202310579365 0.31497642259469055
1.092046054857042 13.052689834937576 2116.1406318027857 29.35244984008371 0.3196481669917954
1.118542243879236 13.058528157769992 1868.9826086745275 30.69036587145531 0.32441810227558127
1.1451701323247967 13.063985672711668 1652.427491412727 32.08920202401063 0.3292944972096314
1.1719328679648668 13.069000353437144 1462.350823078311 33.55086394954842 0.3342748211375577
1.1987880485172437 13.073455849559595 1289.800398833805 35.07990989685701 0.3393727503180463
1.2257324174796078 13.077328411793236 1149.3319795192965 36.67838295543502 0.34458516944885925
1.2527269956440108 13.08049296116019 1020.4062174442016 38.35130335612566 0.34992632286317493
1.2797683993105413 13.082927741476063 906.9162295360953 40.10092506245542 0.3553928816788227
1.3068101370596776 13.084524726102531 806.9042129054907 41.9327267335287 0.36099945020005314
1.333847232891426 13.085237997985104 718.7860918013865 43.85015040667275 0.3667477303197858
1.36085411282442 13.085033560698326 640.7822770218904 45.857942448108 0.37264580167157224
1.3877839531477119 13.083776179753407 571.9514127727625 47.961405420717206 0.3787034560672731
1.4146396515815225 13.081488611353862 510.9398382232578 50.16525850195818 0.3849261591433233
1.4413626690639103 13.078040867077602 456.985809860654 52.4747898120861 0.3913212418427507
1.4679553241088545 13.073446603014677 409.1219482535957 54.89637892032842 0.3979002114718501
1.4943643178501331 13.067583372268691 366.6329611341881 57.43621325916476 0.4046721249695635
1.5205751578933235 13.060443948067661 328.91552508034204 60.10091815213084 0.41164674902681714
1.5465583082964256 13.051961387919375 295.3580233626871 62.89759623128892 0.41883461852003573
1.572274679653174 13.042084299414896 265.533713666426 65.83387062833775 0.4262470997145207
1.597698043602326 13.03076027158955 238.985484025993 68.91793232240103 0.433896458795989
1.622786034649775 13.017945724305036 215.29104458243134 72.15859207515628 0.4417959363569549
1.6475373365189825 13.003609962034371 194.14748439031922 75.56533743794726 0.4499598285403595
1.6718859806935134 12.987680960929595 175.27886526810644 79.14814452445381 0.4584025280524606
1.6958246625516085 12.970138436329192 158.40514816252812 82.91711728879484 0.46713694823372065
1.7192888105947552 12.950900529494229 143.32253154782921 86.8850287782139 0.47618480420923426
1.7422907705454742 12.930000905533026 129.81249031300527 91.06350671724229 0.48556064870998206
1.764770221166787 12.907359055512233 117.70776916729366 95.46652654497116 0.4952859607087003
1.7866988006354934 12.882929197736148 106.84844062205687 100.10786398461269 0.5053787000512705
1.8080351395334051 12.856682742837698 97.10743670415991 105.0039818530928 0.5158643364400661
1.8287496420201068 12.828554535477647 88.35342040127878 110.1714138744555 0.5267653966390564
1.8488296629106777 12.798596727333775 80.4857888728524 115.62772259848363 0.5381050211256677
1.868217019842934 12.766696358578331 73.39995991411524 121.39322841663747 0.5499129745351256
1.8868883601887518 12.732856572737523 67.02439966846156 127.48928491406602 0.5622188204002345
1.904813663407773 12.697049905779181 61.27242132537406 133.938387294819 0.575052071491854
1.921957768212503 12.659242459937648 56.08996269008425 140.7660696285429 0.5884485212698269
1.9382728166979675 12.619363903786683 51.40481118043003 148.00006950192378 0.6024466789086398
1.953773035105281 12.577531609515821 47.17401558450538 155.66896106211252 0.6170825954045129
1.9683921770664028 12.533613345936377 43.350551696352376 163.80628916294867 0.6324035496544728
1.9821103289817572 12.487624658510626 39.8891604278113 172.44572387528692 0.6484507922079689
1.9949037530727285 12.43955810956771 36.75575168249499 181.62670744526102 0.665278044975164
2.006742423989074 12.389409072894578 33.91141691835874 191.39113649647567 0.6829394114827918
2.017593376407469 12.337148692741527 31.335190477955404 201.78502064685452 0.7014940930750676
2.0274341298698406 12.282774473592251 28.998085352619945 212.85837654470006 0.7210050393730496
2.0362488503794043 12.226319584883953 26.876757603850628 224.66647261437416 0.7415419248884045
2.0439976742222816 12.167738769119406 24.949197223998617 237.27063053015888 0.7631824675593754
2.0506615917868705 12.107046600027548 23.193254098919063 250.73757011094395 0.7860088606151882
2.0562383297369817 12.0443140228146 21.59838846557789 265.14030849910307 0.810109078840906
2.060691541483643 11.979476261474426 20.14629172840924 280.5607626783846 0.8355834851033416
2.0640017059951554 11.912594263382106 18.826078969809835 297.0883511747891 0.8625381404847925
2.06616838285602 11.843706654569102 17.622994689024452 314.82349964872895 0.8910938086980539
2.0671664856185714 11.772827701948566 16.527393493250788 333.87564673294696 0.9213765973544394
