M[M_sun], R[km], Lambda[1], P_c[MeV/fm^3], rho_c[fm^-3]
0.24162668629717493 15.618656898711224 2160425.4255784233 3.5677272577965504 0.1711233750220791
0.2536411688450597 15.277361905846764 1723242.9938662697 3.784783731667875 0.17388772589684395
0.26603657230687017 14.981307025719543 1383091.5692257981 4.011326071697289 0.1766657498031171
0.27880829534214824 14.723654282718707 1116629.0659787767 4.247611485074349 0.17945616033186942
0.2919608629432736 14.498538553095056 906029.0247211353 4.494264589898644 0.18226551342746344
0.3054934528176359 14.301375374864783 738747.0691188468 4.751438017524945 0.18508945713354133
0.3194066928717354 14.128323512257012 605213.1238954413 5.019818904925638 0.1879347169170612
0.33370056049312863 13.976221910915996 497820.6724196522 5.299624615391206 0.1907977850487968
0.34838130878224755 13.842184716398119 411109.80037188187 5.591591444995443 0.1936851138745503
0.3634386005614979 13.72418919844127 340766.33255132945 5.895876949570368 0.196591587002502
0.37889101065387587 13.62014784525107 283380.51480906527 6.213349152426011 0.19952496842467138
0.3947193738150189 13.528618607190674 236479.95160093645 6.54427251130218 0.20248156213855398
0.4109407259993048 13.448047054907576 197939.7403692926 6.889335275413644 0.20546484072063634
0.42754535074549527 13.377189708424531 166144.88680371718 7.249248598496357 0.20847799054844815
0.4445372845233036 13.315061737500933 139856.66688912787 7.624281571821228 0.21151672093590473
0.46191377090947705 13.260706837080717 118027.8640348108 8.015362867475353 0.21458688069910006
0.4796746978322169 13.213279003011086 99854.36984516984 8.423206433490048 0.2176902663920847
0.4978271283155554 13.172101440620395 84682.88810054856 8.848266882587806 0.22082454616524227
0.5163623309643862 13.136493164498413 71977.75861571412 9.291389883716747 0.2239927391440658
0.5352750805826909 13.105940287176493 61309.45976691107 9.753472618713804 0.22719795117418032
0.5545781977933292 13.07991513645797 52330.760967122456 10.235324101347718 0.23044153227040484
0.5742571881436849 13.057912983728881 44757.57374327326 10.737434756568877 0.233720426651683
0.5943085990263092 13.039576046356599 38347.8254135442 11.26101054686259 0.23704033845794395
0.6147389993247235 13.024554916958937 32921.11380808333 11.80700661482711 0.24040311613753437
0.6355367452178753 13.012465162719044 28077.98818970425 12.37640122837682 0.2438103913175099
0.6567013100018734 13.003080429470199 24385.910477909718 12.96990974916268 0.24726041520549402
0.6782299244628255 12.996003573215988 21041.74744142442 13.58880583134248 0.2507573824081905
0.7001128251047822 12.991082096758875 18184.627171890097 14.234311392887212 0.25430421548048093
0.72234105231736 12.988007752401483 15739.858295421127 14.907615159271467 0.25790289720371024
0.7449223215551788 12.986657804245393 13643.688697605943 15.609780540323179 0.2615536670514109
0.767838248414571 12.98675990687868 11844.030908618248 16.34200550631146 0.26525774362475474
0.7910779380488917 12.98812728913232 10296.47675201808 17.105937267266924 0.26902014487112047
0.8146466949141784 12.990650273860368 8963.198926117882 17.903029600090097 0.2728433008697841
0.8385219445507853 12.994108767951035 7812.907463060493 18.734688545163866 0.27672866321285455
0.8626985917156136 12.99838163180524 6820.034797687729 19.602175843810876 0.28067597955779683
0.8871676051163888 13.003316319267467 5960.357706297129 20.507615012137713 0.2846919647525698
0.9119216072103935 13.008816539908512 5215.34996930533 21.452798482642606 0.28877962877755475
0.9369362111978751 13.014700458144553 4569.010170132037 22.439262061326072 0.29293931539102186
0.9622088732793358 13.020891303805929 4008.033364185557 23.468925726851968 0.2971739859897001
0.9877275844061091 13.027289233728544 3519.5492823508152 24.544259788680595 0.30149014561303006
1.0134631255946491 13.033752024059115 3094.5621334612124 25.667267322595656 0.30588988479744084
1.0394215208946005 13.040200908988016 2723.9420446463205 26.839785093073985 0.3103735499131096
1.065570709971328 13.046536807387602 2400.3514605124924 28.064966358224346 0.3149503166169227
1.091892987735666 13.052656662629461 2117.663823856723 29.344936585884106 0.31962112388983843
1.1183855168601686 13.058497485714257 1870.3118538382055 30.682306426972747 0.32438967206293
1.145010426316477 13.063957383612701 1653.6603937128475 32.08062268981847 0.3292650194623775
1.1717677856155313 13.068972383944153 1463.5118220656623 33.54166411098648 0.33424381673306086
1.198618703599255 13.073430330028396 1296.7085990648668 35.07004614267334 0.3393401335570307
1.2255601970058998 13.077296921073408 1150.1708071817638 36.667883904926015 0.3445513011371353
1.2525491000420994 13.080475792065544 1021.146522284651 38.34004823756129 0.3498906691149303
1.2795870083436767 13.08291240131525 907.6389805524777 40.08894321073305 0.3553558138324717
1.3066255453409417 13.084513487270224 807.5913256094617 41.919968631080614 0.36096088052350855
1.3336578161359016 13.085232698930506 719.312669883451 43.836473045904924 0.36670707413017367
1.3606619984501287 13.085040954814543 641.2830887439562 45.843374482306785 0.3726034400059309
1.3875891637937119 13.083791002234475 572.3973805782998 47.945884639671995 0.3786592789142013
1.4144413431233451 13.081515501760085 511.35150678084386 50.14861475547762 0.38487952153150595
1.4411684125430686 13.078092761591083 457.3381114080208 52.457049516312715 0.39127253363727144
1.467753047302097 13.073486001906723 409.4454097791223 54.87746354151708 0.39784929467394675
1.4941585082737208 13.067634404385519 366.9244196720924 57.41603790313445 0.4046188509139997
1.5203700220998604 13.060504557812036 329.1994360955134 60.079390994887326 0.41159095750609664
1.5463507819645619 13.052033571132378 295.6258441337218 62.87461789284307 0.4187761368218321
1.5720655113293953 13.042167882530288 265.75681336656316 65.80933348339393 0.4261857415630122
1.5974876512056044 13.030863512646519 239.18886681994778 68.89171974082372 0.4338320231866998
1.6225736575573526 13.018061958507865 215.47652691846923 72.13057758424497 0.4417282062734492
1.6473272760337867 13.003739412239407 194.32378310442044 75.53538379756979 0.4498885695397523
1.6716754080966398 12.987830114449345 175.43245893298544 79.11625906559014 0.45832813964172503
1.6956148705802945 12.970303917656048 158.54584548809243 82.88298900450953 0.46705852153583066
1.7190795445473237 12.951078367519555 143.44817469377074 86.84848203410272 0.4761020438151627
1.742083912359899 12.930203762290379 129.93298323398565 91.02452629915722 0.4854739316279189
1.76456971953746 12.907587746567994 117.80963965356807 95.42473704991771 0.4951942652254122
1.7864961379976974 12.883167694227227 106.94509276277518 100.0632290286665 0.5052823797527713
1.807837047246672 12.856939047660669 97.19713681401723 104.9562700442035 0.5157630203138819
1.8285612947518926 12.828856906124578 88.43605304125776 110.12021425868625 0.5266580931888276
1.848636552277809 12.798898236954113 80.55883722624603 115.57286832734714 0.5379917111302535
1.8680284259312563 12.767023111758512 73.46486681446855 121.33446114264845 0.5497933459010872
1.8867053307031103 12.733207426439733 67.08466157198144 127.4262747922761 0.5620923595885687
1.904636561181872 12.697421806931283 61.3306408560795 133.87100493283552 0.5749190377872608
1.9217686157444116 12.659596222916297 56.13726403829919 140.6936966908458 0.5883075112651558
1.9381138370904445 12.619818263317136 51.45227998866336 147.92227272148295 0.6022970329308307
1.9536096887852519 12.577968310610924 47.21695500713064 155.5855207131861 0.6169244675908007
1.968241086887769 12.534093534275556 43.390437697234944 163.71652036379615 0.6322355886694749
1.9819693511184069 12.488138942112124 39.92664172305394 172.34916080090665 0.6482724990491138
1.9947659555282409 12.440096223938834 36.785366502709515 181.52282074949755 0.6650888139183603
2.0066129251074765 12.389963317688732 33.944538559541606 191.27925177589174 0.6827382749787426
2.0174773741110816 12.337747413710996 31.36441559936271 201.6643939699912 0.7012799926224756
2.027328022801392 12.283408635470593 29.023831486264555 212.72849044245604 0.7207778114080123
2.036153503948566 12.226982324938374 26.90066139417198 224.52612532202176 0.7412993312523782
2.043913038065029 12.168434833225513 24.97024621334823 237.11913851629114 0.7629241597594374
2.0505891492405253 12.107773506739276 23.213129535584685 250.57351050556827 0.7857322932043778
2.05617346564785 12.045049429620025 21.616764286098288 264.96278815521015 0.8098136746749536
2.0606450522454374 11.980268873982128 20.162958839009768 280.36864967377727 0.8352681661603142
2.063975026097087 11.913432634003472 18.84141212726226 296.8800653411393 0.8622006801133919
2.066148115424981 11.844565856774622 17.636992620042175 314.5972405263408 0.8907316123448548
2.067161806002806 11.773725186117577 16.541175522741504 333.629922552244 0.9209884956393282
