M[M_sun], R[km], Lambda[1], P_c[MeV/fm^3], rho_c[fm^-3]
0.24162668629717493 15.618656898711224 2160425.4255784233 3.5677272577965504 0.1711233750220791
0.25364421995855263 15.277288859506726 1723200.3677572075 3.7848239346344856 0.1738882270074282
0.26604031997682087 14.981264066317022 1382992.2463016587 4.011410585950692 0.1766667711079926
0.27881584183757974 14.723484465327887 1116433.301434585 4.247743169445256 0.17945768767212783
0.29197051941685365 14.498383203668135 905839.4112325073 4.494446899452453 0.18226754348665694
0.3055060754848953 14.301226402327732 738638.3330784665 4.751677142010572 0.18509204013436203
0.31942188030791924 14.128127171828334 605100.47305613 5.020116605333763 0.1879378056736973
0.3337207931927795 13.97592676607038 497672.17295353545 5.299988728750885 0.19080145106615545
0.3484022430097633 13.8420171677922 411000.40690908703 5.592022879932761 0.19368928812625252
0.3634657204542868 13.723993176163795 340632.8058665297 5.896385398136042 0.19659636245903
0.37891899617558655 13.619990080241015 283300.0612242218 6.213940766850826 0.19953036323587556
0.39475074072944133 13.528461797302354 236407.01879776234 6.544946676866495 0.20248747365979997
0.41097738140220536 13.447844532786807 195374.93180455975 6.890105005848314 0.20547139606802284
0.42758554858354986 13.377037563911149 166074.55410965963 7.250121115972409 0.20848520866192047
0.4445800272847262 13.314918941795543 139804.21775634852 7.62525446435655 0.21152446578605374
0.46196186195468214 13.260562725778922 117982.96183296165 8.01645310330235 0.2145953145546397
0.479726406008746 13.213158130371703 99808.30053157399 8.424422513025688 0.2176994096101447
0.49788397203852647 13.171977825751776 84640.49461523209 8.849604321602897 0.22083422979515527
0.5164225868157263 13.136398909059979 71935.66290080371 9.29287032436396 0.2240031615385169
0.5353416054915515 13.105837274790165 61274.80686140407 9.75510609746188 0.22720913483434033
0.5546490357239422 13.07980018568865 52298.419215916176 10.237121264465257 0.23045350067569204
0.5743305486657193 13.057839299024455 44728.46970477482 10.739387795209804 0.2337329657647334
0.5943884536604346 13.039517079817285 38328.67719306573 11.263148829319425 0.23705369848542926
0.6148259919382684 13.024522489778068 32901.13761276221 11.809342771363555 0.2404173238670671
0.6356305356326523 13.012452607128425 28291.5297357528 12.378948677154668 0.2438254749507518
0.6568005469712547 13.003012714916446 24369.650787446397 12.972656792005369 0.2472761161759049
0.6783326229693601 12.99597601458539 21027.15566505002 13.591791473172306 0.2507740056619977
0.7002196098100562 12.991058341021404 18171.740393787557 14.237551640040413 0.2543217939794274
0.7224557399494064 12.98799731313417 15729.068373502792 14.911127046430321 0.257921465874935
0.7450436038828201 12.986646497164593 13633.55893847302 15.613547934304389 0.26157292347043165
0.7679640902377499 12.986769432730112 11835.679242594666 16.346079420240574 0.2652780510639185
0.7912098214409391 12.98813680536357 10288.384772839396 17.110338144412268 0.26904154484641624
0.8147842423583125 12.990664260908147 8955.985290930052 17.907779238964363 0.272865837566627
0.8386669406580501 12.994133287520809 7807.0512832671375 18.739765880385175 0.2767519909411127
0.862848597331544 12.99840685922018 6814.4375277242025 19.607646885646677 0.28070052467210854
0.887329116384171 13.003364558737365 5955.239748755127 20.513506088767485 0.2847177803637873
0.9120854954855265 13.008841791813502 5211.012285263895 21.459137724976564 0.28880677157746665
0.9371049212202187 13.014738425244106 4565.050602151907 22.446023064322905 0.2929673967483394
0.9623889754517746 13.020946528009345 4004.3469601249785 23.47619332586708 0.2972035018687145
0.9879098934463697 13.027331559446308 3516.409800400484 24.55206818644663 0.3015211646705341
1.013651493750101 13.033794908252007 3091.6832696164706 25.67558629644741 0.3059219893196787
1.0396160061685935 13.040246135139366 2721.3187252258167 26.848716330806894 0.3104072905210206
1.0657667761347929 13.046572989413463 2398.2245831838877 28.07455166007269 0.3149857768164684
1.0921001607471539 13.05270327348973 2115.7219897492523 29.35514198316991 0.31965785705392147
1.1185981427925082 13.058537941347657 1868.5192035976845 30.693253744696083 0.3244282894355676
1.1452290063818755 13.063994209551275 1652.0326093028134 32.09227620201307 0.3293050597824534
1.1719927844683384 13.069009855065847 1461.9953354103422 33.554160491872224 0.3342859308250766
1.1988490228732056 13.073466933769371 1295.4335585050706 35.08344436239725 0.3393844378373921
1.225794973427563 13.077335983317198 1149.0240305302173 36.68214508748668 0.3445973055044924
1.252790103402881 13.080492704074244 1020.1203061506372 38.35532144224594 0.3499390108110218
1.279833433142586 13.082939099500624 906.6471698134216 40.1052185841438 0.3554061644005536
1.3068769249987156 13.08452077897689 806.71169876169 41.93729844086158 0.36101327116393106
1.3339141371546734 13.085231468808916 718.5479969522175 43.85505155562751 0.3667622990691669
1.360921484235421 13.08503377722369 640.5825349327188 45.86316276921293 0.37266098165621836
1.3878532133962085 13.083773153457045 571.7634867917633 47.966967211288086 0.37871928671862287
1.4147104704870077 13.081484433009965 510.801688658755 50.171222748198 0.3849428716185608
1.4414336339241782 13.078032611591217 456.86550306670534 52.48114704599377 0.39133869642521146
1.4680277446286905 13.073433375387959 408.99072232155464 54.903157290742286 0.39791845762594097
1.4944373269084643 13.067566182423024 366.5029378312254 57.44344319500216 0.40469121598351865
1.5206492690145803 13.060421805248001 328.82300089084174 60.10863256652814 0.41166674232671385
1.5466329904084912 13.051932773218406 295.27612623173604 62.90583074611146 0.418855576014932
1.572349726363929 13.042051581087115 265.45607682783276 65.84266382132677 0.4262690881760511
1.597773309068347 13.03072430137153 238.90435544718278 68.92732599950396 0.43391955027615503
1.622860269593743 13.017901642312781 215.21419126171136 72.1686315708933 0.4418202086482764
1.6476125743880001 13.003564333424636 194.08909385841 75.57607194703178 0.4499853656830818
1.6719604892849487 12.987629616663648 175.222652779416 79.15957141741754 0.45842918686301287
1.6958977528397459 12.970079207208476 158.3493575236487 82.92934805109878 0.46716505448987333
1.7193789246868947 12.95086913907427 143.27268481074674 86.8981263694944 0.4762144638093471
1.7423598150319366 12.929921617877417 129.76945549880102 91.07747658931389 0.4855917265332163
1.7648439350972849 12.907280769715515 117.67023720699594 95.48150327223217 0.49531882299245167
1.7867706347809158 12.882846465661608 106.81206809296833 100.12386060765122 0.5054132200697938
1.808109024818109 12.856588539492442 97.0802932372656 105.02108132108074 0.5159006471961805
1.828819077944586 12.828455196033662 88.32561128705211 110.18970666478599 0.5268036419976132
1.8488983579603495 12.798489652922344 80.45973606965006 115.6473822168043 0.5381456311131055
1.8682758013470075 12.766550549250912 73.38439323429819 121.41429063185839 0.5499558494868745
1.886954396839655 12.732730670740512 67.00510577450571 127.51186797537288 0.562264144424084
1.9048780715554607 12.696915709433096 61.25321764998524 133.96253758422785 0.5750997516617453
1.9220194869080047 12.659098429614229 56.07039838417178 140.79200882844154 0.5884990606954087
1.938333175385902 12.619212537093945 51.38813142485028 148.02795294513226 0.6025003140989391
1.9538302183886629 12.577368691772037 47.159809953973316 155.6988675180357 0.6171392711321658
1.9684463538509511 12.533441497551058 43.33809525099628 163.83839985951496 0.6324635327025171
1.982161474690469 12.487440781734188 39.8778598497384 172.48033446499605 0.6485146968776231
1.9949525628895828 12.439365617575579 36.74428364502036 181.66394339182898 0.6653458707681432
2.006787879164947 12.389205857783045 33.90102978184746 191.43123959891736 0.6830115053110155
2.0176351423272005 12.336933463058564 31.326475748381267 201.82825763728883 0.7015708344681111
2.027472106359187 12.28254822366697 28.990160224488513 212.90493295012672 0.7210864870189624
2.0362821095304926 12.2260871092569 26.868382932590173 224.71677934301607 0.7416288812664954
2.044027208152536 12.167490617676934 24.941046936425238 237.32493265828904 0.7632750576761157
2.050687813096491 12.106785287243795 23.186628559751476 250.7962735530745 0.7861076575625461
2.0562600090912957 12.044040836764745 21.592309148520286 265.20394208768636 0.8102149688293422
2.060707415398796 11.979192630299144 20.140660022091733 280.6295818876806 0.8356963646241177
2.064013882622133 11.912297549660959 18.81999012055704 297.16301484597096 0.862659109010427
2.06617529959591 11.843398865978484 17.618076840016073 314.9046073145144 0.8912236461183263
2.067168384277822 11.772509025072331 16.522885496387076 333.96373332491004 0.9215157230901377
