M[M_sun], R[km], Lambda[1], P_c[MeV/fm^3], rho_c[fm^-3]
0.24162668629717493 15.618656898711224 2160425.4255784233 3.5677272577965504 0.1711233750220791
0.2536440052843069 15.277298987132117 1723249.4658556716 3.7848201051340986 0.1738881792745533
0.2660399570901063 14.981275379038813 1382972.2975862327 4.011402535560381 0.1766666738237767
0.27881494160718673 14.723512449258354 1116425.856133058 4.24773062579111 0.17945754218464263
0.291969365868091 14.498419853913614 905884.409006247 4.4944295333622195 0.18226735011121173
0.3055045518596302 14.30125097514822 738695.4262711249 4.751654363805414 0.18509179408627346
0.31942098605907665 14.128148500690019 605099.4662367428 5.020088247206059 0.18793751144717713
0.333719475511696 13.975924645725504 489729.7403889326 5.299954044086788 0.19080110184914026
0.348400180295805 13.842033529263487 411009.64403487055 5.591981782115258 0.19368889049356255
0.3634627582666686 13.723988467971639 340656.23577335617 5.896336963820484 0.1965959075536885
0.378915873481365 13.620010965528017 283305.2385947652 6.213884409889671 0.19952984932824802
0.3947480881282829 13.528473469327922 236415.8305576619 6.544882455754806 0.20248691052740894
0.4109730586254892 13.447878988787483 197865.0429887686 6.890031680770561 0.205470771600891
0.42758098007338474 13.37706083021137 166088.3888238937 7.250037998828377 0.208484521055089
0.44457599340632653 13.314927800892695 139809.6235081672 7.625161784856878 0.21152372799764363
0.461957160076652 13.260575226861048 117980.18442330296 8.0163492448563 0.21459451112559355
0.47972233089244815 13.213148277389474 99810.89053400957 8.424306665729885 0.2176985386004318
0.4978793112951447 13.171983839891473 83767.9111710077 8.84947691259064 0.22083330729946885
0.516417166469887 13.136400781477716 71940.41172788058 9.292729291710451 0.22400216865984385
0.5353354135612854 13.105844836407613 61276.57072812943 9.754950484892715 0.22720806942832128
0.5546419627450329 13.079820653088643 52300.2664530135 10.236950057597179 0.23045236050473866
0.5743242637750762 13.057846411433927 44732.27478506761 10.73920173792938 0.23373177121935973
0.5943818341975299 13.039513391725132 38330.00842506147 11.262945123524307 0.23705242572793506
0.6148174681412527 13.024513510664898 32901.478556090835 11.809120213611155 0.24041597034460307
0.6356217804189437 13.012433483917949 28292.29780896032 12.378705988920816 0.24382403797571098
0.6567914796931097 13.003027151820449 24371.713035666566 12.97239508775584 0.24727462038173148
0.6783237010259853 12.995976110490975 21028.953745802963 13.591507036550915 0.2507724219950949
0.7002103491133946 12.991069514454576 18037.07731640758 14.237242945884882 0.2543201192985678
0.7224468162123183 12.987985236077094 15730.643106295805 14.910792471581358 0.25791969685158955
0.7450327535251605 12.986644079611207 13634.318913393963 15.61318901582488 0.26157108891724445
0.767951072900729 12.986766287384421 11836.784032681988 16.345691297492703 0.2652761163693649
0.7911965729094583 12.988141804283062 10289.063987491796 17.109918869410706 0.26903950605406207
0.8147694939831114 12.990674368708037 8956.31102562265 17.907326734571434 0.2728636904656382
0.8386515411779036 12.994140859524492 7807.560434893349 18.739282153664746 0.27674976846711924
0.8628348980862284 12.998388894075596 6814.796079559629 19.607125646801993 0.2806981862021406
0.887312974296737 13.003351162121588 5955.54715644591 20.512944828988797 0.2847153208364124
0.9120690274339104 13.008849585370774 5211.232972789283 21.45853376365241 0.28880418558997595
0.9370888270519925 13.014731086552835 4565.495095919685 22.445378917377663 0.2929647213286505
0.9623665538449823 13.020933604593415 4004.499586451058 23.475500909488517 0.2972006897600642
0.987890805598713 13.0273310557839 3516.774984129196 24.55132424136893 0.3015182093299077
1.0136339968571757 13.033793738649566 3091.92822650546 25.674793702435494 0.3059189305467417
1.0395982731446216 13.040246233876937 2721.5650016992195 26.847865397966004 0.3104040758499748
1.0657485155399944 13.0465693616849 2398.437816884002 28.073638405066173 0.3149823982890856
1.0920801384576928 13.052695809712318 2115.875639869043 29.35416964280096 0.31965435722561325
1.1185776402042413 13.058535394875827 1868.692252679371 30.692210709883206 0.3244246100626782
1.1452081092941548 13.063988802626874 1652.155368493539 32.09116587707688 0.32930124481533524
1.171971840718135 13.0690031192612 1462.1230938803296 33.55296985247622 0.334281918247552
1.1988260902218142 13.073458657298804 1295.5410595913286 35.08216778879316 0.33938021655456324
1.2257721414735323 13.07732670268366 1149.1221713581983 36.6807862842747 0.3445929222156688
1.2527673160077157 13.080497383361832 1020.2212290683813 38.353874894909296 0.3499344557721342
1.2798093123668544 13.082938473412524 906.731297266005 40.10366785070154 0.3554013669493499
1.3068533350707758 13.08452291555211 806.7811225095764 41.935647230699765 0.36100827930545465
1.333889386157804 13.085238337675225 718.6099093879927 43.85328135543334 0.3667570371187097
1.3608974290084666 13.085033696871427 640.6498193040554 45.86127728823334 0.37265549893365296
1.3878282774692998 13.083775980730335 571.8367950732794 47.964958395866084 0.3787135689814721
1.4146849526140988 13.081484882073937 510.8453963201588 50.16906857041193 0.3849368353750089
1.44140804022648 13.078034520325602 456.89755791254186 52.47885092562612 0.39133239213896387
1.468002264941043 13.073436110534365 409.041002635632 54.900709060548806 0.3979118674305647
1.4944110010613747 13.067575949801494 366.5493076692291 57.440831864165 0.4046843206313917
1.520620725343445 13.060431873176865 328.84201278683224 60.105846246917025 0.4116595210755956
1.5466061590275941 13.051943907705551 295.305787392709 62.90285657118814 0.4188480065032948
1.5723222858706754 13.042066152800635 265.47212085409734 65.83948785687186 0.42626114628596334
1.5977460559194097 13.030737133047081 238.9365420729665 68.92393314524622 0.4339112099823659
1.622832996398645 13.017919407044317 215.24829216685583 72.16500545201299 0.4418114418520015
1.647585031510853 13.003581869317566 194.10736879406414 75.57219479437329 0.4499761420287892
1.6719340257928206 12.987646915146405 175.24307900293525 79.1554441808448 0.45841955806730733
1.695871869029126 12.970101752759966 158.3725242523384 82.92493046183644 0.4671549028826146
1.7193516377607068 12.950892215077825 143.28489551919503 86.8933956863545 0.47620375113957564
1.7423374057446648 12.929953904879502 129.78333202851553 91.07243084320801 0.4855805016054031
1.764816501516057 12.907309023274014 117.68337455692853 95.47609385430145 0.49530695352164733
1.78674408665012 12.882875122181273 106.82559893985122 100.11808280771947 0.5054007518282039
1.8080831124649794 12.856623506152767 97.08697603674152 105.01490517755826 0.5158875321424647
1.828793699756542 12.828491143790309 88.33720035830834 110.1830994967839 0.5267898281668788
1.8488739571143047 12.798527767685927 80.47017938627936 115.64028135276439 0.5381309631783189
1.8682614293258097 12.766622637728126 73.3844382315293 121.40668315196504 0.549940363445642
1.8869304702250875 12.732776288560244 67.01164915423186 127.50371116711361 0.5622477737749919
1.9048537032097765 12.696964541888638 61.259014928441026 133.95381469437126 0.5750825299687352
1.9219971791716601 12.659149920142731 56.077992387838094 140.78263978303025 0.5884808062320795
1.9383120130929181 12.619278333601502 51.39301356130772 148.01788163634188 0.602480941435402
1.9538095193143228 12.577425834989846 47.16513752017751 155.68806549388228 0.6171188002150971
1.9684271482460662 12.533503186796338 43.34124309390173 163.8268016584672 0.632441867166572
1.9821433436491502 12.487506835677701 39.88175789313119 172.46783329322062 0.6484916148307897
1.9949347108003197 12.439434534987548 36.74706523290506 181.65049393054815 0.6653213723879328
2.0067712152283708 12.389280152166291 33.905333989295045 191.41675450690025 0.6829854652873738
2.017620079898968 12.337010941232618 31.32939858705536 201.8126405668287 0.7015431157085412
2.0274596920031147 12.282628837718885 28.992911001738154 212.88811688655485 0.7210570683218165
2.0362701586336343 12.226169830240268 26.871340839586757 224.6986086343294 0.7415974727639473
2.0440164969100203 12.167580322532597 24.942876775644734 237.30531877918813 0.763241614210487
2.050677560162816 12.106880018605539 23.188831506538403 250.7750747945203 0.7860719881263049
2.0562541009938844 12.044138988976156 21.59573876682237 265.18095759393316 0.810176721296366
2.0607024740746587 11.979294809495293 20.14299959804683 280.60472429265 0.8356555923827129
2.0630657870148537 11.91607082417108 18.941969686262453 297.8343718987229 1.3518084159352857
