M[M_sun], R[km], Lambda[1], P_c[MeV/fm^3], rho_c[fm^-3]
0.24162668629717493 15.618656898711224 2160425.4255784233 3.5677272577965504 0.1711233750220791
0.2536437093126319 15.277333710068326 1723124.2105633947 3.784844279932868 0.17388848060175766
0.266042406528161 14.981212649188045 1382911.2955977612 4.0114533561083014 0.17666728796010608
0.27881941908677965 14.723457011425403 1116508.779338144 4.247809811731167 0.1794584606222166
0.29197506760043535 14.498319874448363 905811.480631262 4.494539162908832 0.18226857086165696
0.30551234640364716 14.301135940350505 738567.193820236 4.751798159752633 0.18509334735694213
0.31943015384715034 14.12804334143096 605026.3673188268 5.0202672691193655 0.1879393688686238
0.33371911465485476 13.975987488538479 497707.004971019 5.318286534151289 0.19096757214674884
0.3461726768858426 13.856744933857966 422031.96817028825 5.6033171963427915 0.29440036332466035
0.35413171046798536 13.770443070535915 377812.18097341375 5.990083830368822 0.41173474484686934
0.35957726832343956 13.692370006542852 347017.9523132127 6.419145391170124 0.5150728715694644
0.36339943538256714 13.614272404103362 323228.3275410847 6.908421496285462 0.6130150122299327
0.3661697005192533 13.53218254071649 303186.7305514265 7.4571433014094595 0.70054794492811
0.368280061776067 13.443741514024962 285167.8424417248 8.060981843944175 0.781274656247993
0.3700504401583744 13.34752684891436 267945.11659937043 8.720028022625955 0.8575875375842205
0.3716841705644513 13.243038413049538 250954.69041567156 9.434258265461281 0.9300722434783462
0.37336427535538314 13.13006057113239 234003.6699494581 10.203541196117927 0.999173421714376
0.37519343297173097 13.00875563154999 216935.2741878599 11.027858196754174 1.065539218177822
0.3773021629651498 12.879726599961003 199783.3678424008 11.907515989490529 1.1299880692419373
0.3797705645023164 12.743633742826926 182683.7342792927 12.843289700653738 1.193526482341989
0.3826586859557206 12.60160589646608 165847.09565591725 13.836547799012852 1.2574349398991833
0.38601762060090716 12.454833860174094 149506.4260950875 14.889409148474314 1.3234588602951192
0.38983520787801584 12.304742699761578 133880.3426983923 16.004997639380445 1.3941977853867267
0.3941317862048122 12.152927394444406 119212.08163152487 17.187913629456244 1.473933712992969
0.3988442671861875 12.001277855158847 105687.22506848446 18.445198275084806 1.5705840119331045
0.40384959522356817 11.851689766257337 93470.27415241953 19.786529519090674 1.6881666026409898
0.40934829551463425 11.700264792401859 82197.79121233594 21.1962890209567 1.7074879820485644
0.4157951431121186 11.54420608463961 71448.47441674145 22.65485254393617 1.7194094986763453
0.4232890702558149 11.387008328823088 61470.84384113917 24.16840346602358 1.7314647161690098
0.4318519080898619 11.231660522346196 52418.748546159026 25.74005559825289 1.7437445645576606
0.44148895666685356 11.080303224489269 44378.86901177803 27.35983255804843 1.756198548686065
0.4521753002154267 10.934880699180702 37363.57291693847 29.041086545894245 1.7689934139451275
0.46388087895328334 10.796434360708027 31326.790246678407 30.786223468516898 1.7821738117160808
0.4765751680628977 10.666081154696807 26180.301889697315 32.58900072960835 1.795706061681838
0.4902059730245872 10.544191026253102 21846.48767249744 34.4644847776933 1.8097303652589782
0.5047149123872212 10.431031159587306 18212.658601449515 36.40287938884973 1.8241782394871546
0.5200632861001292 10.326605214827826 15184.108254336046 38.41779372279583 1.839162972672602
0.5361925307467125 10.230704633366052 12667.751253155368 40.5080642426243 1.8546720611388208
0.5530651755233288 10.143070351098448 10581.773512525686 42.67480830747307 1.8707091240247573
0.5706198850244392 10.063278779595336 8853.667444389912 44.92705128257494 1.8873394623132493
0.5888104922027149 9.990805309062727 7422.479139772689 47.26726179830681 1.9045765166708046
0.6075969534647504 9.925170513381303 6236.460046942567 49.69670589902788 1.9224237398425417
0.6269242100917028 9.865942484908203 5253.62036577907 52.22044129624454 1.940913826460546
0.6467561408646455 9.812505495610026 4435.6725972369495 54.84487000039 1.9600895161945147
0.6670459669125962 9.764442434848423 3755.291234204466 57.57467204786293 1.9799793851273002
0.6877501539449116 9.721228654718326 3188.1139992680633 60.41509113032198 2.0006157644227827
0.708821449034609 9.682355130350073 2713.5660498338802 63.37193020761344 2.0220346547096892
0.730229833407337 9.647413619669987 2315.9543896038517 66.44760959904944 2.0442444612109605
0.7519313009028413 9.616073526980959 1982.0131511844088 69.6518991925596 2.067310823142933
0.7738865904295239 9.587845790932604 1700.4573705241614 72.99246368425273 2.091281808809553
0.7960518532649749 9.562429040126133 1462.7726182792492 76.47404441894795 2.1161811887951347
0.8183906680263784 9.539421021736391 1261.7570262779864 80.1041860406247 2.1420537974264695
0.8408729004112188 9.518614704059402 1090.9633088090297 83.89268007037812 2.1689610338091896
0.8634401753333548 9.499587405433088 945.7776305204424 87.84700265356373 2.196944488090289
0.8860946483878611 9.482098056814506 821.7358151840211 91.9751750843167 2.226048407344926
0.9087484252669294 9.465906621046303 715.7767833761784 96.28934679258892 2.2563483958181454
0.9313966680052409 9.450807126256626 624.968177649736 100.79914144806054 2.287897943098595
0.9540025874056224 9.436557070466955 546.9086810511743 105.51532996910598 2.3207575901089514
0.9765124909856336 9.422936943922695 479.7052915280084 110.44984951168978 2.354994912186156
0.9989068232323882 9.409817927168568 421.69465504574555 115.61584272073516 2.3906846415806826
1.0211374269195437 9.396957612370914 371.49395305711323 121.0277148429653 2.427908908907745
1.043165733130237 9.38416578626691 328.02579678125113 126.70046657447207 2.4667515347501845
1.0649583630614148 9.371340095770062 290.219496247308 132.6473224095627 2.507278222737281
1.0865003555258275 9.35837355371783 257.3209611024693 138.889352234971 2.549614946838045
1.1077226958445046 9.34500564710341 228.62752902661006 145.44202696418682 2.593837447262543
1.1286192367211851 9.331270776347374 203.53217533046245 152.32608596967475 2.640059834556477
1.1491294341914429 9.31690329994038 181.56397226413657 159.56349861986334 2.688401084039284
1.1692353548521512 9.301898527130739 162.29182884112245 167.17714769018798 2.738981711913756
1.1889051012366776 9.286113848441788 145.35470909588955 175.19226547978639 2.791935064763746
1.20808636196196 9.269401410725141 130.42717954128847 183.63469989302357 2.8473919606161853
1.2267802815249678 9.251778980954759 117.26643112236307 192.5344616385988 2.90550979250089
1.2449181034974064 9.233066750918638 105.63475604964458 201.92325538247047 2.9664507725148836
1.262489338295952 9.213233147946948 95.34358977682342 211.8357861665902 3.0303920219649494
1.2794519195355178 9.192222181910822 86.21557719942561 222.30854205905857 3.0975137452541928
1.2957889696352474 9.169915067832846 78.1083978375166 233.3819193625755 3.168016118015944
1.3114582292577435 9.146282349598719 70.8939476676887 245.10051593898342 3.2421204730925357
1.3264389991112382 9.121280330404408 64.4724241096403 257.5131589394598 3.320067904948583
1.3406951097940187 9.094800787904848 58.74116308537426 270.6700510463861 3.4020915123546716
1.3542086593253746 9.066844490834699 53.61749874366204 284.62995410823953 3.4884781744175672
1.3669508498108613 9.037382319840928 48.97050631409292 299.4551575366828 3.5795210269708977
1.3788899109564012 9.006299970367506 44.93156933205118 315.21426870982214 3.675541379520429
1.3900199955221215 8.973647393609667 41.24661194470535 331.98043597304815 3.776868360363987
1.400300172914311 8.939356489315088 37.93891717917615 349.8378426637728 3.8838955829737976
1.4097227643317807 8.903405427017837 34.96189015500094 368.87584048364636 3.99702138049477
1.4182614041662653 8.865781281237204 32.279083862400405 389.193741738346 4.116688268089254
1.4259016201838923 8.826477948715695 29.86778103835893 410.90118556812337 4.243380367520484
1.432619880426359 8.785453598924509 27.686519156043335 434.1182935310959 4.377617181011323
1.4384140760864925 8.742751430646521 25.717171745513 458.97789456041914 4.519966553570637
1.443257984389493 8.69832594042229 23.937088872566157 485.62720511918405 4.671051497708213
1.4471527195223701 8.65223077677715 22.300562660955958 514.2300105428286 4.831560951179715
1.4500790404316084 8.604435625340223 20.868303731443024 544.9663184080931 5.002231296426655
1.452029631564581 8.555002219728138 19.54849678549199 578.0372256529275 5.18388131371331
1.4530046921069304 8.503936149581833 18.35217456530257 613.6657575888205 5.377401361808392
