M[M_sun], R[km], Lambda[1], P_c[MeV/fm^3], rho_c[fm^-3]
0.24162668629717493 15.618656898711224 2160425.4255784233 3.5677272577965504 0.1711233750220791
0.2536459351016348 15.27724484576353 1723077.0750366612 3.7848530080978153 0.1738885893941231
0.2660430964197813 14.981211715417135 1382912.746634581 4.011471704673028 0.1766675096916822
0.2788202300232549 14.723427766753927 1116318.8191185917 4.247838401682708 0.17945879222257036
0.29197770879076484 14.49829507139744 905809.7938101015 4.4945787447035235 0.1822690116141273
0.30551474475634266 14.301112546677988 738519.9127233545 4.751850077646507 0.18509390816928276
0.3194334934688595 14.12800451330865 604972.146802894 5.02033190579803 0.18794003949911242
0.3337346773823142 13.975781560114896 497565.57285497856 5.300252063031028 0.1908041024054059
0.34841787872688557 13.841885173318452 410918.4157587794 5.592334906079689 0.19369230706505947
0.3634838998215523 13.723815150969646 340585.9599025052 5.8967531270944615 0.19659981624722722
0.3789395367827116 13.619861463261527 283224.7898457624 6.214368649473897 0.19953426501019375
0.39477352411174366 13.528335111907525 236337.16082728675 6.545434269470182 0.20249174918822896
0.41100247094496417 13.447738154655116 197802.91555276336 6.890661722475513 0.20547613730043712
0.42761388150585844 13.376928455470404 166024.7902022544 7.250752181748601 0.2084904293073586
0.44461138813499723 13.314836179999316 139759.08047936062 7.625958135604693 0.2115300674616481
0.4619945427734655 13.26045181355017 117933.42907396029 8.017241655167066 0.21460141464083007
0.47976420116029195 13.213060706484669 99774.89405556546 8.425302095666863 0.21770602284197235
0.4979255931954335 13.171885977807847 84609.63584622004 8.850571692293508 0.22084123397228098
0.516468071063452 13.136307527532084 71911.65684682624 9.293941140062165 0.22401070014778984
0.535389796385749 13.105764669117178 61252.09820330938 9.756287619955252 0.22721722416274626
0.5546994960782938 13.0797597189787 52280.29514563828 10.238414161950221 0.23046206726416657
0.5743856275210095 13.057785418932248 44710.36847892359 10.74080048951724 0.23374203569978505
0.594446519613878 13.039476642514026 38310.794805278085 11.264695533121538 0.23706336231877448
0.6148868934626704 13.024466058923066 32886.435236293815 11.811032623617649 0.2404276009882282
0.63569578560602 13.01241637859777 28277.50250777395 12.3807913870499 0.24383638577277603
0.6568706720775292 13.002995808213877 24358.918920328237 12.97464389740963 0.24728747365554474
0.6784072901437729 12.995967081601657 21016.49679036654 13.59395119525632 0.25078603041593733
0.7002993393658964 12.991050003108052 18162.170710510545 14.239895561174446 0.2543345098659746
0.7225382000357073 12.987989578745609 15720.879808216547 14.913667493269394 0.2579348981750018
0.7451302848097124 12.986638097246512 13626.274056159658 15.616273235380776 0.2615868534017705
0.7680538381291347 12.986769415406519 11829.107164192617 16.349026487172775 0.26529274145342563
0.7913053417858775 12.988139463004625 10283.591524809744 17.113521770915344 0.26905702574403434
0.8148833475245448 12.99067447889598 8950.437977302734 17.91121519968323 0.2728821409545551
0.838770251884389 12.994158805744593 7802.711590121909 18.743438934323166 0.2767688667234686
0.8629566035898473 12.998430172412599 6809.769809478662 19.6116047988086 0.2807182813323409
0.8874411777206339 13.0033856512228 5951.26495854096 20.517767914433755 0.28473645634466344
0.9122028662788528 13.008875821785255 5207.818225591844 21.463723821316844 0.2888264079139219
0.9372278464586086 13.014775204434452 4562.546298166115 22.45091432546652 0.29298771226246817
0.9625157929532663 13.020977784043533 4001.7024647163016 23.481451143757337 0.2972248554294168
0.988042070234598 13.027358866011397 3514.074218288533 24.557717314361994 0.3015436059739749
1.0137881838704879 13.033830864164367 3089.993483643042 25.681604864901225 0.3059452161344528
1.039756871226792 13.040280988703506 2719.4250361813683 26.855177930695692 0.31043170128186315
1.0659127575694625 13.046613667717414 2396.619806003774 28.081486544391936 0.3150114319690841
1.0922488731592872 13.052743575272782 2114.2040495533674 29.36252557033138 0.3196844334341571
1.118751631094707 13.05857177227229 1866.9665594007042 30.701174203114725 0.32445622936587226
1.1453886021504747 13.064038755634533 1650.6493672297706 32.10070767743128 0.3293340295015234
1.1721551253769904 13.069030770183053 1460.999652291351 33.5632019028137 0.3343164013121579
1.1990147450655035 13.07348845209252 1294.3730482999008 35.09313839167426 0.33941649336415386
1.225965339385126 13.07735829142087 1148.1304692732745 36.692463599579625 0.3446305914272329
1.2529651994541453 13.080515364917506 1019.3991754878557 38.36630632025295 0.3499736011387836
1.2800113683905545 13.082951727972977 905.9613025530505 40.1169947073252 0.3554425957915283
1.3070659681965013 13.084546514896989 806.107317058251 41.94983763656312 0.3610511790522166
1.3340996036499237 13.085240640787706 717.9537428412377 43.868494437554304 0.3668022582663999
1.3611098248911742 13.085028747956992 640.0896779761944 45.87748116524023 0.3727026176068587
1.3880509718593659 13.083781900823492 571.2885160807415 47.98222229179278 0.3787627076021864
1.414896918037717 13.08145115133491 510.37549981294126 50.18758182564016 0.3849887115563613
1.4416307810579045 13.078002055354503 456.49086224773623 52.49858414601517 0.39138657216875344
1.4682269372079937 13.073394293046741 408.64906699740754 54.9217496390922 0.397968504883938
1.4946386891545855 13.067515845962351 366.213466626776 57.46327427361486 0.4047435809570198
1.5208514005392637 13.06035950060279 328.55661150556375 60.129792673735665 0.41172158257089303
1.5468366101802786 13.051860953183965 295.03807428901337 62.92841761276438 0.41891306138629925
1.5725544801833256 13.041967651681599 265.22354730828016 65.86678328904826 0.4263294018742481
1.5979682358381886 13.030621023518723 238.68654169652032 68.95309276806107 0.4339828899905778
1.6230770113575386 13.017803727100265 215.0281938953255 72.19617002253116 0.44188678782099655
1.647819647459016 13.003434247722598 193.9103756540005 75.60551705658318 0.45005541490090506
1.672167611279389 12.98748666844129 175.07909575081842 79.19091596605317 0.45850231333637487
1.6961045298030886 12.969922856146184 158.2180929134113 82.96289792742726 0.4672421520079631
1.719584373694116 12.950691377526809 143.14583989653315 86.93405432098557 0.47629582294258616
1.7425587697614915 12.929702575260094 129.65353462065016 91.11579756915097 0.4856769766079082
1.7650449278162634 12.907068095929297 117.56445341132785 95.52258653326857 0.4954089688406119
1.7869553361014778 12.882583888496757 106.727527050467 100.16774192513533 0.5055079140491874
1.8083046288147335 12.856335565844974 96.99197661665156 105.06798829508743 0.5160002542538045
1.8290084346398097 12.828177023453092 88.24698594438331 110.23988755501048 0.5269085568905664
1.8490880692635001 12.798190866948875 80.39262464598856 115.70131312290499 0.5382570337549846
1.8684610378665933 12.766229067947055 73.31777118241304 121.47206969548425 0.5500734664867521
1.8743828116476586 12.73888301882245 70.3120328707566 129.7304075659065 2.2104189281978583
