M[M_sun], R[km], Lambda[1], P_c[MeV/fm^3], rho_c[fm^-3]
0.24162668629717493 15.618656898711224 2160425.4255784233 3.5677272577965504 0.1711233750220791
0.2536448747872638 15.277245008465258 1723219.4627245069 3.784836383140781 0.17388838217205382
0.26604098847653423 14.981237378515695 1382972.7198118565 4.011436755327922 0.1766670873494723
0.2788172014627646 14.723482543415567 1116337.5250438077 4.24778394518056 0.17945816060920963
0.2919730511227936 14.498354544509983 905833.9887249682 4.494503351673171 0.18226817209523652
0.3055095522070296 14.30115683644648 738575.537686037 4.751751187693459 0.1850928399690555
0.3194282706889591 14.128048981234326 605032.4698635539 5.020208790064678 0.18793876212586058
0.33372453906246974 13.975954032194851 497657.65098205826 5.300101479689172 0.19080258628101635
0.3484089433898535 13.841960395475533 410961.03860691417 5.592156478739914 0.19369058073146347
0.3634730464603462 13.723914825630358 340628.0881530331 5.8965428465148815 0.1965978412475237
0.3789275774723858 13.6199385560286 283267.188512674 6.214123970360661 0.19953203383129386
0.3947603941906179 13.528401612267439 236382.4114360006 6.545155445444781 0.202489304278199
0.41098763627939394 13.447832597770187 197836.48233122204 6.890343370042931 0.20547342607752983
0.42759690231374176 13.377003567815748 166058.53188110795 7.250391312811928 0.20848744393112828
0.44459357550211753 13.314870453848469 139780.53065091828 7.625555747182927 0.21152686419107594
0.4619765157668205 13.260517814331102 117964.11448901138 8.016790727576032 0.2145979263513541
0.4797426025131361 13.213111358863715 99794.98200318306 8.424799111784377 0.21770224110633463
0.4979013258601416 13.171946489917646 84627.11248883646 8.85001850638225 0.22083722866992533
0.5164415221500386 13.136372099127463 71927.05739437175 9.293328798445886 0.2240063892246362
0.5353619444620673 13.105807075877607 61262.08935380023 9.75561196977153 0.22721259830394602
0.5546697756433047 13.079777153547754 52292.48672845903 10.237677832854862 0.23045720720404878
0.5743548746071482 13.05781146044789 44719.97835520556 10.73999264144802 0.23373684906494063
0.5944132683972899 13.039514402718039 38321.079904210725 11.263811050106108 0.23705783605288822
0.6148526838873904 13.024478048658182 32894.55114479223 11.810066279233265 0.24042172400206116
0.6356586102107055 13.01241576027037 28053.13182652454 12.379737628754306 0.24383014639171582
0.6568307680342571 13.003000586975261 24364.757012582224 12.973507564314595 0.24728097884154882
0.6783640551870305 12.995969174729263 21022.586838206524 13.592716148319237 0.2507791540054805
0.7002548516543284 12.991060477846641 18167.893307689945 14.238555176565669 0.2543272382140545
0.7224910235911759 12.987990013813006 15725.009021528702 14.91221472149446 0.2579272168230013
0.7450801057882925 12.986641261139024 13630.299858759332 15.61471475094668 0.26157888746312696
0.7680028053512914 12.986753941152127 11832.802724459481 16.347341180945264 0.26528434062457085
0.7912506174122808 12.98814627226315 10287.08433985092 17.11170118245722 0.26904817283886545
0.8148271524354692 12.990673079372558 8953.949857286452 17.909250307547726 0.27287281768186866
0.8387115510460109 12.994135521419468 7805.366342882971 18.741338454446197 0.2767592161052514
0.8628942986165623 12.998417761374405 6812.118212361334 19.609341414317882 0.28070812695357295
0.8873768288027442 13.003375862271959 5953.607480145764 20.51533072877295 0.28472577621920614
0.9121370378579489 13.008856242478428 5209.666256399626 21.461101191635336 0.2888151785731051
0.9371575869406886 13.014755403721898 4563.727391671899 22.448117178085376 0.29297609450470113
0.9624432706693163 13.02095946233976 4003.3254724465646 23.478444368881135 0.29721264402324465
0.9879638226527861 13.027362282605887 3515.3052204872747 24.55448675547515 0.3015307724971358
1.0137100075931669 13.033810592860824 3090.745251617871 25.678163028923205 0.30593193342655345
1.0396758285796799 13.040270607104814 2720.4733558414246 26.85148273093926 0.3104177414825763
1.0658298020267725 13.046595270369702 2397.4176716465468 28.077520678900612 0.31499676050814124
1.0921637168598581 13.052725086113492 2114.960102430633 29.358303097193907 0.31966923512347395
1.118665014749562 13.05855286559972 1867.748735665475 30.6966446983049 0.324440251244151
1.1452967263928604 13.064006453585078 1651.4883713893223 32.09588592697396 0.32931746244187543
1.1720599203990618 13.069023123623026 1461.4647346246854 33.55803133429626 0.33429897596314617
1.1989198880411363 13.073473607186294 1294.9541335533215 35.087594594103116 0.33939816152851304
1.225867290135336 13.077342530611359 1148.6155937983738 36.68656266379916 0.34461155592185033
1.2528651460400553 13.08049679011058 1019.7799897470663 38.36002429273969 0.3499538196363806
1.279909623814373 13.082944353278595 906.3542974763761 40.11026016760191 0.3554217613754888
1.3069553286812159 13.08452590640389 806.4927589439612 41.94266669688193 0.36102950021516783
1.3339934747234117 13.085241086553273 718.3433132214202 43.860806678139376 0.36677940626960237
1.3610028276369883 13.085033538735495 640.3665865679502 45.869292698154624 0.3726788066568929
1.3879359310527477 13.083771144231115 571.5718741648225 47.97349813234341 0.37873787582817353
1.4147864310830103 13.08146044025198 510.6240292122307 50.17822628356495 0.3849624962964645
1.4415178638910744 13.078018558167036 456.6948260307338 52.488612076602536 0.39135919260235785
1.4681133715167878 13.073414941028618 408.8512255232463 54.911116874808776 0.39793988339474795
1.4945246575537383 13.067545380605884 366.3800024823147 57.4519330686924 0.40471363392757
1.5207358381711475 13.06039648723043 328.7170294141983 60.11769138374183 0.4116902198896157
1.5467202099804898 13.051904459232745 295.16451647495035 62.915500342193766 0.41888018590572845
1.5724367013801483 13.042018219410433 265.3523135380258 65.8529895033721 0.42629490881511956
1.5978498732392914 13.030677947271872 238.8095753264766 68.9383568662412 0.43394666628596523
1.6229480839109194 13.017856083728205 215.1450330042285 72.18042086551142 0.4418487113939264
1.6477007722267318 13.003508207765009 194.0124695445916 75.58867744671437 0.45001535386809755
1.6720492062967123 12.987571090603002 175.1551834320731 79.17299003286831 0.4584604923393406
1.695986298405811 12.970010037702542 158.29631127816265 82.94371071931805 0.4671980598596103
1.719465598843522 12.950794490868713 143.21440916536184 86.91350703550228 0.4762492934504233
1.7424482760506992 12.929848512203085 129.7218502251381 91.09388165482932 0.4856282217655006
1.7649301978389327 12.907188962230919 117.62992905888414 95.49909079511443 0.49535741394475835
1.7868559365100187 12.882748926475992 106.78000647226692 100.14264590253731 0.505453757921181
1.8081935336224555 12.856479555222892 97.04305468083113 105.04116181177382 0.5159432881602576
1.8289060877573156 12.8283483037896 88.2909662316886 110.21118861780934 0.5268485550470188
1.8489800657054505 12.798358282493272 80.42988520559405 115.67046942106217 0.5381933213103205
1.8683549229504048 12.766412788067997 73.35633840213137 121.43902509722137 0.5500061997941832
1.8870302533893164 12.732585130485873 66.97779259544502 127.53829619132591 0.562317041003533
1.904952152374688 12.69675875927217 61.22885789853248 133.99089882224936 0.575155745551686
1.9220916516484365 12.658930710529715 56.04930269136233 140.82247107069492 0.5885584127275235
1.9384029871964423 12.619033143699282 51.368540008133024 148.06069864061138 0.6025633020733931
1.9538971028001153 12.577178479294815 47.14368005559155 155.73398918300012 0.6172058302030016
1.9685105919495702 12.53323428017046 43.32188439371265 163.87611035991668 0.6325339762306635
1.9822224032549378 12.487227492401901 39.862750818939084 172.52098107688283 0.6485897464022635
1.9950073984283714 12.439133604637018 36.729321640895556 181.70767348070984 0.6654255257313917
2.0068412130949334 12.388966381711775 33.8895532492304 191.47833718442013 0.6830961732053245
2.0176844747111726 12.336680470650197 31.314722774607695 201.87903602888218 0.701660961104314
2.027517073886138 12.282287478449952 28.97931689065419 212.9596100662843 0.7211821413624521
2.036322413094447 12.225805022872722 26.857870831237072 224.77586135343026 0.7417310059280395
2.0440624183516416 12.167201130338974 24.932204441033722 237.3887074351545 0.763383799529122
2.0507180994903496 12.106479240774481 23.17838889780921 250.86520192562654 0.7862236377593899
2.056286159040746 12.043719982176082 21.585501588766622 265.2786632873082 0.8103392870031935
2.060727206937662 11.978858970149684 20.13375501335499 280.71040791975014 0.8358289381288059
2.064027771296836 11.911950935693385 18.814410292716495 297.2507057083262 0.862801183919989
2.0661846557071843 11.843035900757949 17.61176585999159 314.99986728845016 0.8913761386004025
2.067171097394807 11.772131409056598 16.517676647594314 334.06719079783767 0.9216791259045023
