M[M_sun], R[km], Lambda[1], P_c[MeV/fm^3], rho_c[fm^-3]
0.24162668629717493 15.618656898711224 2160425.4255784233 3.5677272577965504 0.1711233750220791
0.2536446562110639 15.277245039144022 1723146.7790745972 3.7848325343248415 0.17388833419841987
0.2660407449650648 14.981256692161233 1382891.5490840112 4.011428664294654 0.17666698957411026
0.27881684650796207 14.72351118493548 1116447.5613529214 4.247771338142123 0.17945801438656217
0.2919722257979772 14.498374682937447 905845.6534251985 4.494485897753808 0.18226797774179357
0.30550847704403794 14.301190931250867 738648.5856122648 4.751728294185446 0.18509259267547606
0.3194254813658685 14.128092044734245 605076.9440261014 5.020180288268694 0.18793846640872658
0.33372275721917855 13.975969085545174 497666.36526432674 5.300066619153944 0.1908022352932707
0.34840686644695246 13.841978154740557 410976.11143123085 5.592115172365817 0.1936901810809311
0.3634714994648742 13.723921220976719 340643.2647272328 5.8964941662062165 0.19659738403176286
0.3789253248399394 13.619948790754025 283286.9438716754 6.2140673269296585 0.19953151731140625
0.39475814351862365 13.528408626929421 236379.87919789497 6.545090897640616 0.2024887382811563
0.4109841786015062 13.447821327948104 197837.0295226899 6.8902696716567755 0.20547279843114702
0.4275922437499259 13.377034698162353 166071.1918515637 7.250307772164058 0.2084867528207581
0.44458960132137576 13.314882622031316 139784.86156825942 7.625462595114597 0.21152612264071544
0.4619720666216471 13.260529638414747 117961.51030244408 8.016686339139257 0.21459711882240123
0.4797379557569178 13.213118335830384 99808.18323692695 8.424682672851084 0.21770136564833492
0.49789618030336474 13.171978286968137 84631.83975031925 8.849890446234404 0.22083630145973904
0.5164364571421617 13.136370070077207 71929.36445550514 9.293187044470244 0.22400539126781033
0.5353557551091847 13.105816376935685 61266.2315349119 9.75545556069239 0.22721152744459808
0.5546638835852357 13.079797537528806 52298.08259696498 10.237505748978776 0.23045606119256418
0.5743478159681026 13.057845589313002 44321.82262112004 10.739805630455782 0.23373564839644173
0.594406419748211 13.039498827960394 38321.69926915345 11.263606299335258 0.2370565567663667
0.614843729697286 13.02448713017253 32896.841865321716 11.80984257892562 0.24042036353095494
0.6356498242625468 13.012434770422246 28287.6392383744 12.379493693669877 0.2438287020339802
0.65682153538625 13.003004180945553 24365.99068743798 12.97324451465437 0.24727947535755956
0.6783548028350695 12.995968697875679 21024.00437089067 13.592430248311997 0.2507775621908374
0.7002439436623334 12.991048073983901 18168.844393572617 14.238244893018186 0.254325554910666
0.7224799890061824 12.988001864510654 15726.00697693243 14.911878422692753 0.2579254386844679
0.7450692003354016 12.986639248543774 13631.300215437786 15.614353981919388 0.261577043451167
0.767993352280252 12.986742053402303 11835.21564474978 16.346951055558435 0.26528239594736436
0.7912375562512538 12.988135296649103 10286.520226971383 17.111279742433435 0.26904612351874135
0.8148123095467141 12.990674023427825 8954.386409092385 17.908795464764825 0.2728706594853866
0.8386967407959082 12.994145712642197 7805.920010675705 18.740852226433923 0.27675698213911615
0.8628804317396578 12.998411643633029 6812.594274668255 19.608817478149508 0.2807057763824147
0.8873628796768374 13.003362629506325 5954.044810688851 20.51476656233757 0.2847233039544109
0.9121198885117858 13.008851297374266 5210.08522571996 21.460494100096245 0.2888125791829405
0.9371404054944635 13.01474981434331 4564.205733089027 22.447469690561483 0.29297340521015036
0.9624265103154057 13.020963742912823 4003.5824384396665 23.477748358798706 0.29720981731949514
0.9879481811797367 13.027341448047656 3515.670665642211 24.553738946226208 0.3015278018059914
1.013692584456748 13.033801977182106 3091.376780272237 25.677366315437364 0.3059288587557732
1.039657594555772 13.04026200522912 2720.7599049825526 26.850627371897126 0.3104145100901392
1.0658114015352782 13.04658475484485 2397.602405335258 28.07660266971201 0.3149933643929716
1.0921439435933276 13.052711918643023 2115.1350723357327 29.35732569177533 0.319665717064097
1.118643268374394 13.058549882500664 1867.942178811832 30.69559622575912 0.32443655268930643
1.1452756756328706 13.064004315661977 1651.66967584571 32.09476980966793 0.329313627572745
1.172040280638443 13.069016073696744 1461.676966336934 33.55683447838581 0.3342949424353269
1.1988978445942415 13.07347555133699 1295.06854264929 35.08631134970965 0.33939391818719217
1.2258445188301421 13.077343838594299 1148.7545508407723 36.68519675523881 0.34460714971227274
1.2528414415781863 13.08049666663097 1019.8630512285075 38.35857017597607 0.3499492407620931
1.2798858246759652 13.082943532015014 906.4409622090808 40.10870131249981 0.35541693879858277
1.3069300248479525 13.084519567665119 806.5478278720648 41.94100683264757 0.361024482194119
1.3339680937407639 13.085238891797005 718.40013794559 43.85902719196243 0.366774116716402
1.360977712524961 13.085034309957694 640.4262938379619 45.86739731915438 0.37267329515222797
1.3879105263526725 13.083770401629348 571.6377910147799 47.97147876351579 0.3787321280526237
1.414760456677586 13.081466779710627 510.66354442755295 50.1760607781683 0.38495642831169946
1.441491686926838 13.078023442125337 456.7421310839959 52.48630387281545 0.39135285513956775
1.4680870857617077 13.073420391242058 408.8894503247283 54.90865575047107 0.3979332584906544
1.494496003540399 13.067552682923255 366.41906130467925 57.449307973552465 0.4047067022301003
1.5207089043896607 13.06040185218229 328.73240202455185 60.114890365306664 0.4116829605438369
1.5466932902178154 13.05191228548912 295.19694935411064 62.91251046417989 0.4188725764284773
1.572409482283575 13.04202815771441 265.3835626741957 65.84979675593249 0.4262869249571126
1.597823679590534 13.030688734785931 238.8420736270709 68.93494606704455 0.43393828188003597
1.622921244279112 13.017867294579062 215.1643286098901 72.1767755506345 0.4418398981878682
1.6476740555722902 13.0035256167628 194.04037934864414 75.58477975018187 0.4500060813404156
1.672021625560928 12.98759235275563 175.17900800593577 79.16884091008444 0.45845081248335484
1.6959591856804206 12.970031088014181 158.31732349144812 82.93926968146792 0.46718785436756516
1.7194395311047828 12.950816218383032 143.23445917162334 86.90875121698747 0.4762385238613945
1.7424162735084534 12.92984023376802 129.74857447230383 91.08880907623782 0.4856169371452836
1.764903487845363 12.90721739344869 117.64334662194898 95.49365258082189 0.49534548128830624
1.78683007747379 12.882776687381332 106.7949963175792 100.13683731703718 0.5054412232456701
1.808167693637858 12.856513067178346 97.05432075450138 105.0349527290936 0.5159301031601714
1.8288761151139603 12.828373795201758 88.30166377385684 110.20454617748324 0.5268346674712376
1.8489554748779955 12.79839816503798 80.43824860660861 115.6633306055124 0.5381785749808106
1.8683301834203352 12.766456132653055 73.36193946003577 121.43137691598658 0.5499906308999349
1.8870074212003694 12.73263042981553 66.98701453305978 127.53012478016846 0.5623006865710627
1.9049295763439924 12.696807268019763 61.236985748990335 133.982129168313 0.5751384315318623
1.9220704716818224 12.658981766522132 56.058962256555354 140.81305173985055 0.5885400602890483
1.938381272909077 12.61908814343142 51.375484840742935 148.05057321366635 0.602543825310893
1.9538764874885515 12.57723856824354 47.149342343941946 155.72312905133842 0.6171852491663882
1.9684908261623022 12.533297718978238 43.32627240740874 163.86444969826744 0.6325121940177959
1.9822037807290718 12.48729253277904 39.86707838358201 172.5084124947536 0.6485665398895822
1.9949891504239456 12.439207865439883 36.73280808598006 181.69415140788956 0.6654008950882554
2.006824343548953 12.389041408164172 33.892337059291606 191.4637737915795 0.6830699924193533
2.017668919175414 12.336759118769617 31.31785877861988 201.86333442883029 0.7016330923130569
2.027502634636383 12.282368195400117 28.98212566683234 212.94270287100312 0.721152563235833
2.0363103280260826 12.225890885449576 26.86136749878084 224.7575920342532 0.7416994269749112
2.044051364822578 12.167289902785242 24.934798812160825 237.36898697104306 0.7633501743262594
2.050709172670848 12.106573909720082 23.180889158983337 250.8438878088829 0.7861877742192546
2.056278754348521 12.043818481428435 21.58784905099643 265.25556747643697 0.8103008764755951
2.0607209526170314 11.978961780189369 20.13578162223735 280.68541465554 0.83578794335837
2.06402403987782 11.912058647231703 18.816134638036576 297.223589601364 0.8627572509680158
2.0661800905807066 11.843149228958763 17.612983243244052 314.97041054164447 0.8913289841424629
2.067169242947076 11.77224628147001 16.51851784189887 334.0351990847467 0.9216285975491552
