M[M_sun], R[km], Lambda[1], P_c[MeV/fm^3], rho_c[fm^-3]
0.24162668629717493 15.618656898711224 2160425.4255784233 3.5677272577965504 0.1711233750220791
0.2536419523199156 15.27736864622097 1723209.1874352677 3.7848021628787683 0.17388795563299622
0.26603791094345536 14.981299777513724 1382974.1201996754 4.011364817436779 0.17666621802251267
0.2788112589050162 14.723623814134342 1116572.1260458266 4.247671855816701 0.17945686054150392
0.29196473075671586 14.4985097367606 905940.587794687 4.49434816945136 0.18226644410518075
0.30549937814079137 14.301278652588799 738699.1632566492 4.751547643374402 0.18509064130193953
0.3194141360354743 14.128229010442164 605160.0983391312 5.019955384215212 0.1879361329423667
0.33371077700572604 13.976058898906244 497728.67080128996 5.299791540738242 0.1907994657100622
0.34839054384433343 13.84206101007414 411053.1642987829 5.591789232771462 0.19368702752569283
0.36345231749900314 13.724053911175599 340695.97025953693 5.89611004274188 0.19659377626289662
0.3789035208305599 13.62007925916732 283340.23866280256 6.213620371156813 0.19952744161292768
0.3947334549494021 13.528552242228372 236441.56541136038 6.544581573600069 0.20248427219738377
0.4109567560387203 13.447958178817528 197899.28243865087 6.889688146889796 0.20546784592220402
0.42756406317117124 13.37711881575832 166110.168510052 7.249648589728011 0.20848129957339867
0.4445570329212481 13.31498923613501 139837.48312751812 7.624727576908213 0.21152027142317747
0.46193665263068645 13.26062671028936 118009.5571006753 8.015862664719728 0.21459074703485403
0.47969873562632204 13.21321676617535 99833.77905684036 8.42376391935676 0.21769445790645142
0.4978532595025875 13.172055455681361 84664.24634671207 8.848880001240172 0.22082898540625084
0.5163893385292789 13.136453965477042 71954.83922470806 9.2920685558781 0.22399751703839202
0.5353057992352299 13.105888585724772 61293.03381693935 9.754221444897723 0.22720307803461223
0.5546101019163939 13.07984868851317 52312.94381201352 10.236147961567074 0.23044701885807684
0.5742904014987714 13.057876486148935 44742.745605025404 10.73833007100372 0.23372617484768837
0.594344311508221 13.039577553783225 38336.38845893375 11.26199077765209 0.2370464629576553
0.6147789296194403 13.024528366115995 32912.22255821874 11.80807755133717 0.24040962921833367
0.6355784638342319 13.012474659922692 28304.03486580685 12.377569021098909 0.24381730590487108
0.6567483190832608 13.003055455583858 24379.453464678165 12.971169035498152 0.24726761276979292
0.6782773316788479 12.995987917370545 21035.081323474493 13.590174490446781 0.25076500273539754
0.7001625745746427 12.991072926442648 18178.611078358485 14.235796761512251 0.2543122736777652
0.7223943327155726 12.987992349633522 15735.322377645325 14.909225045495262 0.2579114092790266
0.7449786408761417 12.986642805553304 13639.330725869986 15.611507548715753 0.2615624943727438
0.7678962149824914 12.986760612950441 11840.123805799805 16.343873019940563 0.2652670527118072
0.7911376613098098 12.98813493385177 10292.794971394938 17.1079546564757 0.2690299547516975
0.8147097547687733 12.990649177796763 8959.656940726029 17.905206856367244 0.2728536317951379
0.8385877156715428 12.994125534282926 7809.915069325093 18.737016012436143 0.27673935672070676
0.8627654982381464 12.998394407029691 6817.2858414624125 19.60468377886385 0.28068723108070764
0.8872382015091719 13.003332868976228 5958.219260224282 20.510315482520703 0.2847037986325026
0.9119968481158988 13.008827385769045 5213.447621171313 21.455704382132172 0.28879207099765836
0.9370138925434739 13.014712533562813 4567.213429227257 22.442361286539487 0.29295218780812715
0.9622891779987238 13.020925832515305 4006.448338859088 23.472257162571342 0.29718751594002246
0.9878107889975498 13.027316257570149 3498.8351551024975 24.547839111504135 0.30150436456342367
1.0135506915503498 13.033769816892265 3093.51938468939 25.671080679500434 0.30590460127614744
1.039510972739827 13.040223278724792 2722.697611280683 26.84387909255627 0.31038901630594906
1.0656616353129016 13.046561620601397 2399.229559643366 28.06936015890139 0.31496657119619803
1.0919867666655023 13.052680912985334 2116.6950306443564 29.349614617977437 0.31963796193304805
1.1184832042982642 13.058515844675298 1869.4829817538262 30.68732452798273 0.3244073737394076
1.1451066460913033 13.063977788483196 1652.8080418596403 32.0859644847005 0.32928337334344654
1.1718710206009473 13.068990319170748 1462.8224435046225 33.54739224260691 0.3342631211272168
1.1987233911971338 13.073445499487299 1296.0627203685326 35.076187638656 0.33936044181928204
1.2256672927311012 13.077314565581492 1149.6192668203798 36.67442094672933 0.34457238862208045
1.252660127077967 13.080485805538105 1020.7130084190525 38.34705601725079 0.3499128682247286
1.2796989290436402 13.08292957117425 907.2089055014744 40.09640346434437 0.35537889336483547
1.3067406743612804 13.084514734045332 807.1914952648474 41.92791218795695 0.3609848950993893
1.3337755921821761 13.085227539796495 718.9317395347839 43.844988941332595 0.3667323877754815
1.3607813769401675 13.085036514018705 640.9696449095496 45.85244487686438 0.3726298154811844
1.3877109516777333 13.083784572610705 572.1311851083003 47.95554826476023 0.37868678471068845
1.4145652933816568 13.08149862033754 511.10693695573053 50.15897754419732 0.3849085592075015
1.4412869307680292 13.078053074657376 457.11129541300653 52.46809502223968 0.39130286045815343
1.46787957336785 13.073462262724389 409.2463091719142 54.88924065849255 0.3978809965547764
1.494287101725021 13.067601395305802 366.7410131800353 57.42859948475537 0.40465202041030185
1.5204976493376519 13.060466976336908 329.0270242242574 60.092794208963035 0.41162569435905716
1.5464799532873155 13.051988741365486 295.45677519096057 62.88892461121349 0.41881254855751937
1.572195397400111 13.04211668845925 265.6124225591831 65.82461071104635 0.42622394415141734
1.597618640834717 13.030799756536963 239.0599315344439 68.90804008872298 0.4338721417670693
1.622699055675112 13.01796092583827 215.35587710870522 72.14801979083725 0.44177037595316104
1.6474573004557758 13.003661355674888 194.21158537347975 75.55403330453332 0.44993293627485664
1.6718072063591989 12.98773853188941 175.34020004574816 79.13611130965704 0.4583744547000087
1.6957445954871755 12.970199551106262 158.45810330211827 82.9042376081237 0.46710735076505006
1.7192097302166518 12.950966471936617 143.37540265695412 86.87123634101779 0.4761535711249933
1.742212543737136 12.930078081577738 129.86035354966322 91.0487957821276 0.48552792229425246
1.7646931739248346 12.907440714620556 117.75006681997795 95.45075541972939 0.4952513553383987
1.786621363522961 12.883021460528477 106.88769609654693 100.0910189376033 0.5053423491706259
1.8079629676537523 12.856777211765856 97.14147794934456 104.98597554773853 0.5158261000129036
1.8286747239514254 12.82866173277913 88.38370938043045 110.15211812064254 0.5267250006419283
1.8487570952951888 12.79870900663082 80.51369460868537 115.6070205745509 0.5380622578879419
1.8681462155284105 12.766821459653784 73.42668316658376 121.37104953332968 0.5498678264563649
1.8868197939959885 12.732988684867225 67.04839728809817 127.46550467151484 0.5621710936431802
1.9047460335699824 12.697190125921574 61.29545031619753 133.91295685635401 0.575001863910243
1.9218927098159104 12.659395772442624 56.107549701359694 140.73875559902257 0.5883953031533209
1.9382104442921226 12.619524638453624 51.42347742472905 147.97070834152308 0.6023902012558002
1.9537133573851686 12.577709391442093 47.19438191936517 155.63746983644728 0.6170229163795612
1.968335271833419 12.533794972339095 43.364856660033446 163.7724608864114 0.632340333607662
1.9820585005823896 12.48782101416457 39.902321190642326 172.40927965212813 0.648383501934635
1.9948522226997243 12.439763508429529 36.76750786292054 181.58749899905388 0.6652066262467418
2.0066895584822824 12.3896109321498 33.92646244532456 191.34890926138758 0.6828634990758343
2.017549415534417 12.337374473019686 31.345025352640015 201.73949381017445 0.7014132874308125
2.027393887594096 12.283012367751471 29.00831429577109 212.80935478079925 0.7209192787299842
2.0362122972375447 12.226569601670985 26.88562930647265 224.61350228067724 0.7414503644055647
2.0439652878154613 12.168000327364542 24.95609695300342 237.21345361312834 0.7630849756634772
2.0506344210710967 12.107320626272342 23.200775181202673 250.67564949611307 0.785904476455051
2.0562101402259727 12.04457745150465 21.6045748696198 265.0733070419479 0.8099975845234972
2.0606747325537187 11.979774601640731 20.15356949254132 280.48830163087075 0.8354646321202578
2.0639957766395947 11.912918519837506 18.8320252783011 297.00973696745496 0.8624107713827298
2.066160812535937 11.844030227199164 17.62819556656674 314.7381011480827 0.8909571024951116
2.067165606566207 11.77316599660989 16.532134686798535 333.7829008067693 0.9212301125725341
