M[M_sun], R[km], Lambda[1], P_c[MeV/fm^3], rho_c[fm^-3]
0.24162668629717493 15.618656898711224 2160425.4255784233 3.5677272577965504 0.1711233750220791
0.25364449471783246 15.277263332474174 1723131.2373750997 3.784829354374827 0.173888294561877
0.26604030038068177 14.981278656341038 1382955.4471999053 4.011421979369254 0.17666690879073196
0.27881681376692175 14.723474187133602 1116377.2646080563 4.247760922043038 0.1794578935755095
0.2919713442817217 14.498382696151568 905867.4393118545 4.4944714771165515 0.18226781716465087
0.3055083716638948 14.301175888381993 738656.7180786314 4.751709379318675 0.18509238835881536
0.3194245754006981 14.128106933757511 605071.7592329744 5.020156739801072 0.18793822208428612
0.33372258311140923 13.975916061378149 497668.79518872616 5.3000378170679445 0.19080194530405598
0.34840515673969713 13.841992582778627 410985.09241299814 5.592081044709108 0.19368985088646426
0.36346933840717294 13.723927027581997 340648.60844615736 5.8964539461939545 0.19659700627689625
0.3789226856467544 13.61996865968474 283295.05699157465 6.214020527785551 0.1995310905595618
0.3947556034667973 13.528440152478119 236393.98133495369 6.545037567913697 0.20248827065149613
0.410981206634955 13.447835583228054 197852.9665228973 6.890208781743066 0.2054722798670904
0.4275908314243528 13.377016000960852 166072.0284568828 7.250238750612674 0.2084861818231522
0.44458596220369734 13.314899194797567 139795.02006054233 7.625385632656643 0.21152550997006342
0.4619682678310895 13.260550322329872 117974.53280375685 8.016600093265568 0.21459645164084146
0.47973386946539875 13.213137518119973 99803.15291645512 8.424586470949329 0.21770064234452152
0.4978916477291 13.17196285641803 84636.52782424225 8.849784642985178 0.22083553539900838
0.5164302989951961 13.136394725985292 71930.3622492775 9.293069927516354 0.22400456675715358
0.5353499685808215 13.105830772646238 61269.10350636673 9.755326335854884 0.2272106427029578
0.5546583077755933 13.079804892034968 52301.16388535755 10.237363573816763 0.2304551143614479
0.5743417162522334 13.057836247985355 44725.93569825561 10.73965112270455 0.23373465640881833
0.594399915721712 13.039530446572613 38321.98914812267 11.263437135234856 0.23705549982600616
0.6148365168606128 13.024493228727392 32898.018998651154 11.809657759012797 0.24041923951751976
0.6356422253534539 13.01243800267183 28288.508780459117 12.379292156122268 0.24382750871520611
0.6568140183970365 13.003029099351266 24368.38842523367 12.97302718497238 0.24727823319021755
0.678346464801556 12.995973017555006 21025.26641887695 13.592194040101333 0.2507762470468044
0.7002353546341482 12.99104882052115 18033.50358974853 14.237988539610358 0.2543241641809172
0.7224713453905484 12.987993907242334 15727.63022358068 14.911600576026778 0.2579239696044098
0.7450601620761818 12.986649369671412 13632.370260386699 15.61405591847157 0.26157551994853506
0.7679811158105875 12.986758098021111 11834.338826033421 16.34662873855964 0.2652807892779653
0.791226845422308 12.98813616653859 10287.240638969492 17.110931554034124 0.269044430396462
0.8148020362758056 12.990677518328912 8955.037128584912 17.90841967984538 0.27286887641281377
0.8386860019104656 12.994143482309967 7806.346978640449 18.740450511828087 0.27675513646835503
0.8628673251863237 12.99841680033834 6813.003903473206 19.608384610087406 0.2807038343764156
0.8873501045736247 13.003364107290453 5954.467052631646 20.514300457163998 0.2847212614092696
0.912106481795405 13.008850850218026 5210.338238787954 21.459992531460816 0.2888104316112914
0.9371274137936617 13.014747810869421 4564.506349326702 22.446934747942723 0.29297118336306216
0.9624125796772555 13.020957377488502 4003.9706681022494 23.47717332836248 0.29720748195003543
0.9879341321054904 13.027338175986692 3515.9822181500112 24.553121121000064 0.30152534747966336
1.0136777338454268 13.033801053747398 3091.588960880734 25.67670808710678 0.30592631852587787
1.0396423182239038 13.040255268421493 2720.955921095838 26.849920692631777 0.31041184038312614
1.0657946585546183 13.04657965041766 2397.7844307132586 28.075844231130073 0.31499055859886266
1.092127471930288 13.052713481359364 2115.360139245775 29.35651818212814 0.3196628105251806
1.1186264564725874 13.05854751586912 1868.2458270466161 30.69473000313589 0.32443349703287316
1.145257630784863 13.06400281076637 1651.7717269930506 32.09384770147584 0.329310459299821
1.1720226981166277 13.0690145054076 1461.7858015969098 33.55584566718292 0.3342916100396225
1.1988797148070376 13.07347106007066 1295.1785501891945 35.08525116789743 0.3393904124533551
1.2257302492524111 13.077293839198495 1149.231748950939 36.686835071234015 0.3721529539642993
1.2469164800144859 13.075209025039676 1043.2869184746776 38.50957566927136 0.5794613663624629
1.260963497578422 13.061871511652154 970.9839450139104 40.63485491276884 0.7716465414293096
1.269938955120156 13.037582796817272 917.396355819285 43.06494877327674 0.9492128860129968
1.2752318177109545 13.003324058219176 874.881483859462 45.791835047608835 1.1144004263522682
1.2778079634885948 12.960007356277387 839.1912887461702 48.81467833999864 1.2679629087445439
1.27838273970326 12.90843233682883 807.36818174861 52.130739184738424 1.4115059808729504
