M[M_sun], R[km], Lambda[1], P_c[MeV/fm^3], rho_c[fm^-3]
0.24162668629717493 15.618656898711224 2160425.4255784233 3.5677272577965504 0.1711233750220791
0.25364432809160614 15.277268204098121 1723137.7862436736 3.7848247815132465 0.1738882375633634
0.26604066015080136 14.981241511968722 1353327.704787403 4.011412366264014 0.17666679262202842
0.27881611390709427 14.723474081582905 1116411.7026332407 4.247745943429209 0.17945771984616138
0.2919707779784168 14.498408607412722 905886.7763325162 4.494450739903953 0.18226758625097572
0.30550604695835226 14.301224448180161 738643.9857136598 4.751682179337001 0.18509209454710135
0.3194235140890525 14.128105502199666 605119.4668313471 5.020122876646972 0.18793787074099236
0.3337213236671211 13.975948416803382 497669.9126907292 5.299996399164539 0.19080152829449343
0.34840269828847636 13.842013326586056 410998.01333019097 5.592031968603744 0.1936893760616445
0.3634665531833737 13.723954642524749 340635.17857791664 5.896396109262237 0.19659646306019396
0.3789190168004749 13.619991135466211 283289.08392644115 6.213953230059882 0.19953047688533546
0.39475076542001875 13.528457594340697 236405.87340483314 6.54496087922414 0.20248759819529008
0.4109770719533507 13.447878445325218 197858.98928479012 6.890121221540633 0.20547153416766326
0.42758640812599946 13.377030842449791 166073.87261682085 7.250139497174485 0.20848536072489454
0.4445810407912266 13.31491250259181 139794.80676603958 7.625274960269989 0.21152462894670354
0.46196277271794894 13.260558700518876 117975.2369469131 8.016476071438138 0.21459549223173896
0.47972892183374727 13.21313043913739 99809.48245763185 8.424448132496494 0.2176996022327498
0.49788516830619106 13.171975327166205 84639.91552924538 8.84963249795018 0.22083443380394843
0.5164237391768142 13.13639397131282 71932.85819911544 9.292901513586092 0.22400338111258514
0.5353430281848616 13.105835609457449 61273.501263349084 9.75514051104247 0.22720937044792922
0.5546492128348027 13.079807988277235 52297.31400575354 10.237159126739163 0.23045375282366615
0.5743326657019648 13.057851538977111 44727.73134428831 10.739428941667715 0.23373322993773876
0.5943903333633983 13.039515818124633 38324.03756585542 11.263193878769028 0.2370539799552056
0.6148274296882521 13.024514031317437 32901.027666268645 11.80939198995151 0.24041762319820126
0.6356318586278423 13.012445907950104 28291.26414462738 12.379002347632602 0.24382579273763416
0.6568027565754607 13.003012247404511 24370.124890273364 12.972714667908864 0.24727644697083614
0.6783350572043383 12.995982109737083 21027.029379202715 13.59185437638643 0.25077435589024116
0.700223899716377 12.991052452423634 18171.871361536934 14.237619907862758 0.25432216433569543
0.7224569950715857 12.988001475755999 15728.926278111294 14.91120103783131 0.25792185709536325
0.7450457819442451 12.986654451237033 13633.144769344979 15.613627309359849 0.2615733291830636
0.7679665633869908 12.986754005225462 11835.494791843186 16.34616525390172 0.2652784789231915
0.7912128515124218 12.988137301076593 10288.226775303243 17.11043086748762 0.269041995727333
0.814787297885759 12.990669260486397 8955.993521352964 17.907879310825642 0.27286631240045334
0.8386701787470047 12.994124651079558 7807.017064890712 18.73987285716401 0.27675248244406014
0.8628518367228856 12.998401981520846 6814.173978059283 19.607762158364707 0.28070104182809563
0.8873324177198435 13.00335262562255 5954.982490566438 20.513630212264808 0.28471832429219823
0.9120885172849721 13.008855725237112 5210.90231894894 21.45927129208877 0.2888073434731618
0.9371088138229116 13.01474175695674 4564.979510754005 22.446165518642527 0.2929679884224819
0.9623926349372963 13.020949908790552 4004.336560225707 23.476346455179193 0.29720412377235017
0.9879137349578977 13.027332116464484 3516.3598923555855 24.5522327115622 0.3015218182507145
1.013655418429276 13.033794197091487 3091.674524634873 25.67576158049143 0.30592266577456234
1.03962018701013 13.040248941855296 2721.2964915241423 26.84890451676657 0.31040800145368974
1.0657715600434645 13.04657330446336 2398.1757550650623 28.074753628895063 0.31498652398696514
1.092103065125314 13.052702463563547 2115.5596203582863 29.35535701901624 0.31965863105093556
1.1186028190792707 13.058541185233903 1868.493995316633 30.693484415003347 0.32442910314002354
1.1452335103131213 13.06399422050045 1651.9563167352128 32.09252175389325 0.3293059034745278
1.1719968146261615 13.069007006499932 1461.9381783302674 33.554423805763186 0.334286818220038
1.1988534140288405 13.07347090247037 1295.3179941598894 35.0837266811577 0.3393853713889961
1.2257992613030795 13.077332136364557 1148.970174048645 36.68244559181646 0.3445982748849432
1.252795528295751 13.080492628243581 1020.0969069389465 38.35564135172894 0.34994001817531517
1.2798396168509274 13.08293369453108 906.6579220465092 40.10556153507471 0.3554072253761614
1.3068818297028342 13.084523541709867 806.6810776453772 41.93766361287849 0.3610143751342615
1.3339192755591938 13.085234695052792 718.5404716558993 43.85544304312889 0.36676346277248345
1.360928368059912 13.085029714331814 640.5679462140606 45.863579751865394 0.3726621941851289
1.3878588543314085 13.083771963568521 571.7606875124815 47.96741147023866 0.37872055122300613
1.4147159690957534 13.081480377915387 510.777020832633 50.171699155152815 0.38494420656334927
1.4414390121278755 13.078030084096019 456.81944991215636 52.48165484463394 0.3913400906500216
1.468034612865341 13.073430402526641 408.98368307440865 54.90369872966375 0.39791991508214186
1.4944431808518441 13.067565428870314 366.49600222618784 57.444020704945935 0.4046927409279502
1.5206553343840927 13.060419826518654 328.81198465988325 60.109248776688666 0.41166833934677327
1.5466389748916647 13.051931704210496 295.2692049660766 62.906488502072996 0.41885725005614804
1.5723555695547415 13.042049400048803 265.43787827205955 65.84336620480781 0.4262708445724104
1.5977793447301258 13.030722348892043 238.89822351594646 68.92807635011258 0.43392139478347697
1.6228664771842887 13.017899783690384 215.21585162307682 72.16943351012556 0.44182214748098053
1.6476180303001131 13.00355990121274 194.08124761469443 75.57692940476275 0.44998740555470346
1.6719680009289188 12.987623490502207 175.22091169187496 79.16048418355795 0.4584313163359757
1.695904477333765 12.970073099669072 158.3468205434688 82.9303250316277 0.4671672995882834
1.719384717821841 12.950864241496397 143.26712711503157 86.89917259393654 0.47621683299295636
1.7423659195070833 12.929913794909295 129.773363252157 91.07859249314153 0.4855942090084834
1.7648498681307025 12.9072753499345 117.67063634005198 95.48269960599357 0.4953214480158525
1.7867760944177735 12.88283689854456 106.81005265917858 100.12513841304833 0.5054159775184047
1.808115444457268 12.856581106784883 97.07821252521939 105.02244722454776 0.5159035476950556
1.8288247106561017 12.828446317398395 88.3246271624813 110.19116789418099 0.5268066970395798
1.8489043162548868 12.798480558778461 80.4559181582109 115.64895263292998 0.5381488750509122
1.8682807072834804 12.766541102039605 73.38177941495593 121.41597309210691 0.5499592743593876
1.8869598470896805 12.732720454310801 67.00389238866426 127.5136671827934 0.5622677479929261
1.90488299013214 12.696904971519983 61.25083966506064 133.9644667310091 0.5751035603964864
1.9220245426872622 12.659086980605855 56.06985956710883 140.79408088079444 0.5885030978413538
1.938337840262371 12.619199787530805 51.38794370277504 148.03018031225193 0.6025045985504123
1.9538347676137868 12.577355748428191 47.15814748263344 155.7012564925077 0.6171437984779299
1.968450658571108 12.533426487084114 43.33719769230655 163.84096491928392 0.6324683242554826
1.9821659479629021 12.487425069792272 39.87615968568553 172.48309922949164 0.6485198017129712
1.994955801977917 12.439350179359979 36.74203292695992 181.6669178840634 0.6653512888469918
2.006791900714632 12.389189380672047 33.90030197892378 191.43444313602237 0.6830172643480898
2.017640376194994 12.336914967350957 31.327023533718073 201.83171152838946 0.7015769647841165
2.027474694608018 12.282530552303967 28.988460421839452 212.90865201671105 0.7210929933034469
2.036284918354207 12.226065488921796 26.866867114990836 224.72079801069117 0.7416358276292427
2.0440293234901 12.167471430066275 24.939944823314832 237.3292705061086 0.7632824541051295
2.0506894885834743 12.10676468548354 23.18557333566049 250.8009619228968 0.7861155463032016
2.056262422317896 12.044019171182146 21.59191846234503 265.209025403132 0.8102234277615782
2.0607093250714077 11.979169564817505 20.1403998361105 280.6350794713789 0.8357053819409342
2.0640145988301826 11.912273995717706 18.81972830680364 297.1689793345396 0.8626687725506318
2.066175950091824 11.843374056785455 17.617264907652054 314.91108660630704 0.8912340181901077
2.0671685102041644 11.772481448120066 16.522421908646603 333.9707701569188 0.9215268372041974
