M[M_sun], R[km], Lambda[1], P_c[MeV/fm^3], rho_c[fm^-3]
0.24162668629717493 15.618656898711224 2160425.4255784233 3.5677272577965504 0.1711233750220791
0.2536458506743179 15.27722624499152 1723171.259431989 3.784853322927777 0.1738885933183267
0.2660431355236278 14.981204271810734 1382915.284211275 4.011472366517513 0.17666751768968222
0.27882083734408725 14.723398769087874 1116353.1316195452 4.247839432942256 0.17945880418362703
0.2919777664896844 14.498274756056071 905743.8535613935 4.494580172448822 0.18226902751240256
0.3055147099307674 14.30109842376661 738541.7714985424 4.751851950367286 0.1850939283982413
0.3194340536179007 14.127993957387986 605000.1857854064 5.020334237299305 0.18794006368933802
0.33373525174108387 13.975760130504021 497583.04056567297 5.300254914707907 0.1908041311170603
0.34841804809798105 13.841883742847337 410917.52939271927 5.592338285062493 0.19369233975764763
0.36348404485325725 13.723831981691097 340558.302621332 5.896757109312177 0.19659985364905874
0.3789396384647129 13.619866907888827 283228.5219938676 6.214373283131895 0.19953430726357538
0.3947742149457818 13.528335937964497 233237.6186401144 6.545439549767893 0.20249179548930657
0.411002730593743 13.447761770038452 197810.73319368443 6.890667751368977 0.2054761886450238
0.4276138038565578 13.376934626869824 166029.6577827496 7.250759015830047 0.20849048584396299
0.4446117806648266 13.314816124081283 139755.97598385892 7.625965755994931 0.21153012812485428
0.46199477298722613 13.26045975537899 117930.0662627083 8.017250194810522 0.2146014807018762
0.47976462432030476 13.213058922692834 99770.60399809504 8.425311621175714 0.2177060944604825
0.4979260531360657 13.17188360908973 83734.00586428637 8.850582168553577 0.22084130982488004
0.5164685651022101 13.136305602415625 71911.15585976894 9.29395273664694 0.22401078178846962
0.5353899033852396 13.105785787006921 61251.59843314287 9.756300415518234 0.22721731176794352
0.5546998571607564 13.079738727622654 51794.52632282951 10.238428103005473 0.23046215925751765
0.5743867143062776 13.057781179921049 44709.601677129715 10.740815788739585 0.23374213392553161
0.5944475631271227 13.039487527722988 38310.97367687864 11.264712283719565 0.23706346697681407
0.6148884068138774 13.024462608059524 32886.24549503433 11.811050924578826 0.24042771228860665
0.6356964757938353 13.01240024390942 28277.27708775176 12.380811343538637 0.24383650393662668
0.6568696139926703 13.002995608756217 24357.9421884514 12.9746654177804 0.24728759665715921
0.6784057049895656 12.995974727564024 21016.11959117041 13.593974585174578 0.25078616064473563
0.7003002553361478 12.991047605495433 18162.503690970665 14.239920946095745 0.2543346475804116
0.7225393158352028 12.988002297107395 15721.255829030615 14.91369500671187 0.2579350436489435
0.7451312809258372 12.986648237391714 13626.292592498294 15.61630275093612 0.26158700426571097
0.7680552286002256 12.986760412232027 11828.329513359275 16.349058404643266 0.26529290055401084
0.7913051824302876 12.988153715985037 10283.380343268069 17.11355625054387 0.2690571934067921
0.8148845143633412 12.99068560716052 8950.629579281773 17.91125241233894 0.2728823175259456
0.8387723767907979 12.994153733965765 7802.6750064339885 18.743478714931687 0.2767690494947817
0.8629577195456608 12.998423095272772 6809.7217012065885 19.611647664753008 0.2807184736447993
0.8874425076271247 13.003382803857043 5951.259211043272 20.517814072100222 0.28473665861471475
0.9122041628262436 13.008870726344263 5207.754727561441 21.46377349122748 0.2888266205860955
0.9372284452265887 13.014775522607605 4562.539421231104 22.45096730067942 0.29298793229134307
0.9625172827606118 13.020983195298015 3979.3075634390934 23.481508089264125 0.29722508670204
0.9880410677978481 13.027370638925486 3513.98206769389 24.557778498297626 0.3015438490287058
1.0137895838017126 13.033827127341201 3090.1114216525434 25.681670050384113 0.3059454676977853
1.0397584934130757 13.040287640733998 2719.5016102709237 26.855247914871583 0.31043196566947767
1.06591401756541 13.046613439923101 2396.591576741731 28.081561654975886 0.31501170983579474
1.0922510168538302 13.05274376439541 2114.134276661728 29.362605541058986 0.31968472127967423
1.1187533794658189 13.05857443352265 1866.98928123908 30.70125998905691 0.3244565319813421
1.145390524954967 13.064036581692225 1650.719138178082 32.10079899853358 0.32933434327183614
1.1721559635694225 13.06903887958318 1460.9879073564844 33.563299830611236 0.33431673133893236
1.1990171681285497 13.073494407453797 1288.4695331667328 35.09324338854208 0.33941684056033106
1.2259664481606798 13.077352784623594 1148.1125300396889 36.69257536074493 0.34463095195145194
1.25296683126845 13.08051288831765 1019.3507635750924 38.36642529942321 0.3499739757927846
1.280013158216807 13.08294672885365 905.983481983766 40.11712225729454 0.35544299038852173
1.3070666686470034 13.084550987409346 806.0924709784346 41.94997345214893 0.3610515896433085
1.3341014951115475 13.085235653419511 717.9462087687963 43.86864004202213 0.36680269107817937
1.3611117892829157 13.085028719082112 640.0759393006703 45.877636253408134 0.3727030685821838
1.388052871800212 13.083780239593935 571.2968001670472 47.98238752632428 0.3787631779130019
1.4148991866265412 13.081450107695263 510.37824522757916 50.18775901906981 0.3849892080718783
1.4416314408625945 13.078003267538943 456.48281855168904 52.49877301696173 0.39138709073760886
1.4682285751267947 13.07339346221725 408.6480219916138 54.92195102416722 0.3979690469763416
1.4946408186316462 13.067514512317647 366.1951406763721 57.46348907721151 0.4047441481568613
1.5208534666339215 13.060358601704614 328.5514511065195 60.13002187409973 0.4117221765850825
1.5468386430617787 13.051861048807424 295.03149480264057 62.92866226866997 0.41891368405502993
1.5725568172251312 13.04196642355353 265.2183988474264 65.86704454714722 0.426330055182286
1.597970169961549 13.030619304599176 238.68226741602712 68.95337187098107 0.4339835760796855
1.6230806474240984 13.017801398017896 215.0304362252457 72.19646831780908 0.4418875090036211
1.647821573266437 13.003433056035835 193.90437384518418 75.60583600652654 0.45005617367526174
1.6721699175517246 12.987486943845864 175.07402519555475 79.19125549241832 0.45850310544750034
1.6961064255944496 12.969922076380147 158.2139302375113 82.96326134424945 0.46724298713876206
1.7195866972419271 12.950689974072752 143.14365350868516 86.93444349984705 0.4762967042412278
1.7425698737814321 12.929742952412159 129.28138837770936 91.11621267201403 0.4856779000589846
1.765047075196184 12.907065604989203 117.56205289779018 95.52303156077623 0.49540994533033356
1.7869584095015711 12.882581251281902 106.72914445259339 100.16821726484184 0.505508939811652
1.8083071299680507 12.856332794825061 96.99138774604822 105.06849641290451 0.5160013332430541
1.8290109281199156 12.828172703038941 88.2445519761775 110.24043114071107 0.5269096933836682
1.8490899571446051 12.798188141767579 80.38768108269687 115.70189733495742 0.5382582405354888
1.8684621091927895 12.766225078958989 73.31535460710712 121.47269559717215 0.5500747405932213
1.8858152505482007 12.73371359868513 67.3187745795788 127.84660099605676 1.1230561084556185
