M[M_sun], R[km], Lambda[1], P_c[MeV/fm^3], rho_c[fm^-3]
0.24162668629717493 15.618656898711224 2160425.4255784233 3.5677272577965504 0.1711233750220791
0.2536449557305958 15.277246001296769 1723243.4711127554 3.7848364699649157 0.17388838325427478
0.2660410176316412 14.981242744894942 1382967.0872832187 4.0114369378509425 0.17666708955515528
0.27881723408109016 14.723503722670896 1116422.245158522 4.2477842295789 0.17945816390780178
0.2919730985881773 14.498357346374014 905783.3848216858 4.494503745411099 0.18226817647959973
0.30550992179409187 14.30116398782218 738621.4061576425 4.7517517041418635 0.18509284554768396
0.3194283298728437 14.128037241999387 605052.2582586538 5.020209433029349 0.18793876879686722
0.33372462432788635 13.975959144856688 497657.1413960726 5.300102266099541 0.1908025941988639
0.34840895094002045 13.841956652431747 410958.6407993925 5.592157410561007 0.1936905897470889
0.36347323050941427 13.723918224205327 340634.0585482063 5.896543944683612 0.19659785156175683
0.378927624967318 13.619951514156783 279353.4899133681 6.214125248168622 0.19953204548336387
0.3947605926761437 13.528400756241583 236377.48915922595 6.5451569015668225 0.20248931704642217
0.4109876897981886 13.447828288717139 197840.42005913114 6.890345032592343 0.2054734402364983
0.42759654547933973 13.377009456288361 166054.06210248606 7.250393197392484 0.20848745952178024
0.4445936112974748 13.314870769083363 139780.60223309512 7.62555784858727 0.2115268809196057
0.46197681188928824 13.260515800027978 117960.13104441923 8.016793082461506 0.21459794456829712
0.479742795148986 13.21311124988319 99792.41159698094 8.42480173851715 0.217702260855693
0.4979012782593471 13.171947632844873 84627.81272072453 8.850021395278302 0.22083724958676706
0.5164415992550504 13.1363647278223 71926.33670373661 9.293331996261644 0.2240064117374585
0.5353620684326699 13.105828006401747 61263.84663212957 9.755615498192734 0.22721262246138527
0.5546699809489376 13.07979532305496 52294.92051042072 10.237681714885095 0.23045723305685575
0.5743550459898372 13.057823840241351 44720.172154119915 10.739996860220451 0.23373687615076646
0.5944137909939124 13.039498274793866 38321.59280416221 11.263815669072251 0.23705786491227226
0.614852903225064 13.024483102219829 32894.64455165935 11.810071325684495 0.24042175469290444
0.6356586814243493 13.012416288688986 28284.670731370137 12.379743131684867 0.243830178974976
0.6568309604808247 13.003013460831435 24365.299343917228 12.973513498453904 0.24728101275865572
0.6783642730004525 12.995968675391097 21022.499038897902 13.592722597943636 0.2507791899152612
0.7002550563839907 12.991049798661997 18167.672117139587 14.238562176263194 0.2543272761877552
0.7224910042062523 12.988005204077254 15724.74691508506 14.912222308075698 0.25792725693611607
0.7450806199395109 12.986647206823783 13630.568892406813 15.614722889557067 0.26157892906230473
0.7680031728603297 12.986766352536524 11833.150299997904 16.347349981812958 0.265284384494689
0.7912505813271118 12.988141731991401 10287.305571774765 17.111710689760066 0.26904821906965976
0.8148279735389122 12.99066665295503 8953.798712255013 17.9092605683927 0.2728728663688444
0.8387118559019214 12.994132861745978 7805.360748405991 18.741349423319296 0.27675926650154786
0.8628940521906582 12.99842173539844 6812.02655899525 19.609353233860986 0.28070817998040865
0.8873776703954134 13.003377916307816 5953.671270004116 20.515343455883748 0.2847258319913791
0.9121355752972627 13.00885561605099 5209.469125856723 21.461114887108305 0.28881523721315433
0.9371561025303232 13.014753426534872 4563.631994383095 22.4481317848651 0.2929761551729482
0.9624436369505655 13.020966742859516 4003.3532045841694 23.478460070299402 0.29721270779136955
0.9879644337464246 13.027351451781517 3515.3045097002328 24.554503625451 0.30153083951354126
1.0137107920804531 13.03380447583916 3090.8681590580536 25.678181002148655 0.30593200278869187
1.039676140605269 13.040267886274421 2720.483884601674 26.85150202717457 0.3104178143802786
1.0658294691403998 13.04659071178178 2397.3459521474924 28.077541388488164 0.3149968371219108
1.09216413394969 13.052721421019092 2114.9455178120347 29.35832514672686 0.3196693144882541
1.118663395268689 13.05855547730026 1867.6813163034471 30.69666835107476 0.32444033468082933
1.1452974732842092 13.064007011446183 1651.4917318113228 32.09591110577353 0.3293175489537507
1.172060830250059 13.06902146268118 1461.4891978921755 33.55805833451879 0.33429906695667994
1.1989202722871437 13.073476757984103 1294.9419338968553 35.08762354320865 0.3393982572553569
1.2258677174221586 13.077340593200176 1148.6251340542105 36.68659347776851 0.3446116553229456
1.252864986576321 13.080497810899258 1019.7642543133519 38.360057096644816 0.3499539229327331
1.2799100855965628 13.082944940348215 906.3445670183801 40.11029533435934 0.35542187016968785
1.306955775369515 13.084526524021026 806.4926909897132 41.942704142361876 0.36102961341852663
1.3339941209644748 13.085242268761855 718.3165596174715 43.86084682224358 0.3667795255986411
1.361003025112399 13.08503316446746 640.3679284485852 45.86933545675525 0.37267893099309524
1.387936243657075 13.083767196812724 571.5814909357215 47.97354368810761 0.3787380054945842
1.4147873159788624 13.081458788239662 510.61735918893305 50.17827513612121 0.3849626331867108
1.4415182991879683 13.078019884047668 456.70063104638217 52.488664148385965 0.39135933557196556
1.468113964390635 13.073414436307008 408.8508088026721 54.91117239643055 0.39794003284896845
1.4945250988250143 13.067544018966974 366.3835442250562 57.45199228944584 0.4047137903029868
1.520737175833817 13.06039605345657 328.71472018539384 60.11775457327488 0.411690383656717
1.5467207636286722 13.051903167751696 295.16319202643956 62.91556779234893 0.4188803575717359
1.5724373717604447 13.042018168849248 265.35005668297305 65.85306153021193 0.4262950889270992
1.5978505730139536 13.03067845858786 238.81169563600218 68.93843381227978 0.4339468554342513
1.622948671991351 13.017855605779145 215.1450336113754 72.18050310217615 0.44184891021589273
1.6477014127383383 13.003509257563074 194.01460265293818 75.58876537706355 0.45001556305231444
1.6720501246669834 12.987570526616269 175.15651131540713 79.17308363534632 0.4584607107128509
1.6959870047828989 12.97000974444517 158.2957307054466 82.9438109073592 0.4671982900914371
1.719466572073368 12.950792677808742 143.2118088527317 86.91361432495823 0.4762495364082536
1.7424484989699878 12.929848749949583 129.72221606942196 91.09399609035455 0.485628476342422
1.7649306281594341 12.907186651206507 117.62809007552205 95.49921347935461 0.49535768314137535
1.78685655209828 12.882748208959748 106.77867604664775 100.14277694232474 0.5054540406993573
1.8081934701987152 12.856479438843609 97.04438038606757 105.04130188675776 0.5159435856097796
1.8289076370718818 12.828347846276648 88.29478376945592 110.21133846933046 0.5268488683466878
1.8489797322370491 12.798358855748388 80.42837735858365 115.6706304708196 0.5381936539835454
1.8683554562874944 12.766412485047304 73.3535056681738 121.43919763828188 0.5500065510245531
1.8870307515451437 12.73258445262923 66.97669658425538 127.53848053646738 0.5623174099557383
1.904952619415998 12.696757074799622 61.229133703920624 133.9910966637937 0.5751561361523239
1.9220919917477237 12.658930682925474 56.049124338065255 140.8226835690176 0.5885588267550652
1.9384033780211585 12.619031043750573 51.366920722986166 148.0609270685554 0.6025637414659085
1.9538975564399872 12.577176986013312 47.14411709673104 155.73423418598446 0.6172062945081821
1.968510886196365 12.533233949714129 43.321970301174666 163.87637342299112 0.6325344676346728
1.9822220840475753 12.487226459508816 39.861453901022166 172.5212646228407 0.6485902699388724
1.9950071465646926 12.439131527060095 36.72849467695639 181.7079785376355 0.6654260813968117
2.0068411206900634 12.388964713124539 33.888330613290684 191.47866573379528 0.6830967638424765
2.017684580147988 12.336678809075858 31.314657341235133 201.87939025654376 0.7016615898234716
2.027517837302812 12.282285412504244 28.979047620643705 212.95999149254195 0.7211828086448698
2.0363225831800285 12.225803623873704 26.85684824735467 224.77627350968874 0.7417317183499443
2.044062949718289 12.167198984933226 24.93179386541393 237.3891523297847 0.7633845581153353
2.050712918615183 12.106479512990516 23.173098739142972 250.86568277371103 0.7862244468435655
2.0562862517327445 12.043717679687814 21.585846429315048 265.2791836556248 0.8103401513474209
2.060727267429592 11.978856225129213 20.133893867938998 280.7109717711093 0.8358298629762702
2.0640278395638183 11.911948288886096 18.813923977737712 297.2513174521219 0.8628021750545508
2.0661846094789684 11.843033332061724 17.61184961596203 315.0005318383917 0.8913772024141521
2.0671712087890466 11.772128871126995 16.517538508512487 334.0679125381061 0.9216802658356041
