M[M_sun], R[km], Lambda[1], P_c[MeV/fm^3], rho_c[fm^-3]
0.24162668629717493 15.618656898711224 2160425.4255784233 3.5677272577965504 0.1711233750220791
0.2536446265693119 15.27726764068712 1723160.5058174331 3.7848422426391153 0.17388845520787383
0.26604216170759365 14.981229930101533 1382956.8779632617 4.011449073267496 0.1766672362045025
0.27881848678080745 14.723455945185766 1116370.3622907246 4.247803138404172 0.17945838322167995
0.29197427914668134 14.498336545948446 905803.5055673958 4.494529923936983 0.18226846798356117
0.30551171285020273 14.30115090874854 738642.3755136686 4.751786041377507 0.1850932164553625
0.3194292885645496 14.12805845751599 605034.6558251961 5.020252182026386 0.18793921233421107
0.33372861481115706 13.975873390050939 497622.92312888114 5.300154552470016 0.1908031206358558
0.3484119785240697 13.841884792266262 410912.97598133975 5.592219364968922 0.19369118917302855
0.36347688009752677 13.723886175588774 340617.5618131139 5.896616959195337 0.19659853732950247
0.3789312004017626 13.619924609780693 283252.2785995513 6.214210206531122 0.19953282020133337
0.39476590685656454 13.528359931778487 236359.21321546187 6.545253715688877 0.20249016597548314
0.4109928472209967 13.447807389288057 197830.50853614754 6.890455571691823 0.2054743816338554
0.4276028362290466 13.376995723252188 166045.30131504242 7.250518498954449 0.20848849610949036
0.4446008534080692 13.314859406776378 139775.1120678578 7.62569756639935 0.21152799316322812
0.46198136184447136 13.260488946408598 117949.65318403346 8.016949653833636 0.21459915577444305
0.4797508703769465 13.213085611874792 99790.35369509777 8.424976384607668 0.21770357395014292
0.49791024174681464 13.17191977897886 84621.45096601332 8.850213472229024 0.22083864030595846
0.5164508446044033 13.136340137902977 71921.21116690878 9.293544612866643 0.2240079085716128
0.5353716377485026 13.105798146843723 61258.83309889575 9.755850096333422 0.22721422864443647
0.5546809048905479 13.079776965440578 52289.205794858346 10.237937470793817 0.2304589217048015
0.5743652409513826 13.057804153565066 44715.86373116618 10.740277359011037 0.23373867703988968
0.5944253899921649 13.039489087368603 38317.503613269975 11.26412277632398 0.23705978372393857
0.6148646300561222 13.024475863150988 32890.291514732264 11.810406856006951 0.24042379527708496
0.635671906045009 13.012421385647045 28282.547734233485 12.380109012912149 0.2438323453848722
0.6568447419985246 13.003008643185394 24362.561897202828 12.973908050377307 0.24728326785565624
0.6783790368127482 12.995978391491658 21020.204233583587 13.59315142408213 0.25078157750431096
0.7002698928791777 12.991047723938491 18165.545404470067 14.239027576387393 0.25432980100614283
0.7225068972597086 12.987991181694364 15723.089855105607 14.912726729740784 0.2579299240036026
0.7450980440640323 12.986654523300958 13628.753129281444 15.615264015314926 0.261581694938236
0.7680214123091749 12.986763644624814 11831.873587693202 16.34793514074523 0.2652873013652034
0.7912701498014678 12.988148595214296 10286.157914505293 17.112342819278826 0.26905129290145247
0.8148460374663103 12.99068093079906 8952.430779492122 17.909942800682803 0.272876103512279
0.8387324293650329 12.99414897175893 7804.340592064236 18.742078732171958 0.2767626172983713
0.8629145546394537 12.99842418163692 6811.034111554446 19.61013910359304 0.28071170568227427
0.8874004765026648 13.003369016034782 5952.758903873696 20.516189669683545 0.2847295402314573
0.9121588971689187 13.008865938280286 5208.83125178101 21.462025487262242 0.28881913613931554
0.9371819181297872 13.014757932552742 4563.123218237192 22.449102977757953 0.29298018895531175
0.9624696566211332 13.020969126637482 4002.625341726667 23.47950404580503 0.29721694768609325
0.987992312647755 13.027357883273153 3514.9290299863274 24.55562529854671 0.3015352953882673
1.0137374393045122 13.033813475346728 3090.752567730009 25.67937603047575 0.30593661463315563
1.0397044128383963 13.040273091624483 2720.133613841194 26.852785022826893 0.31042266130682467
1.0658588545095264 13.046596311950497 2397.026473351763 28.078918358465533 0.31500193113260955
1.092194719971834 13.052727574592604 2114.6346132884228 29.359791210154288 0.3196745914164253
1.118694826607342 13.058558891456382 1867.4684426829563 30.698241014557397 0.3244458823531704
1.1453289659510573 13.064009241517804 1651.2380926122503 32.0975852357323 0.3293233010993939
1.1720941094247803 13.069024269013175 1461.2883298057404 33.55985357210314 0.33430511709243593
1.198952942684759 13.073481342944167 1294.760627451935 35.08954836348397 0.3394046221141874
1.2259026540616103 13.077344507021422 1148.4759901487448 36.688642294183744 0.3446182644875511
1.252900229946298 13.08050666733234 1019.6208125435742 38.36223822547003 0.34996079109830636
1.279944590697113 13.0829436631773 906.2336793615226 40.11263357152135 0.35542910389431254
1.3069973846096197 13.084548599295136 806.3383173624188 41.94519389392792 0.3610371403147065
1.3340298884584951 13.085237686666362 718.135098545142 43.86351600838496 0.3667874598002547
1.3610411224661811 13.085031686891414 640.2575834129783 45.87217848363864 0.3726871981290761
1.3879807719894817 13.083782592053158 571.4635688622359 47.97657270169259 0.37874662704503387
1.414824854021929 13.081457771225214 510.5520802051669 50.181523357913306 0.3849717350621337
1.4408087422901732 13.077845925207821 457.96310034741583 52.5362863869294 0.5576009123584145
1.45137384000014 13.062365622260108 433.83928941019695 55.65029453481391 1.0916891012750378
