M[M_sun], R[km], Lambda[1], P_c[MeV/fm^3], rho_c[fm^-3]
0.24162668629717493 15.618656898711224 2160425.4255784233 3.5677272577965504 0.1711233750220791
0.2536441847714855 15.277272938960378 1723194.2120218833 3.7848224164227435 0.17388820808365124
0.2660403255700526 14.981250750740285 1382949.5955460353 4.011407394358819 0.17666673253948834
0.27881576815921477 14.723482495050243 1116452.151300147 4.247738196488666 0.17945762999332546
0.2919701392379897 14.498406348708652 905868.2962639134 4.494440014628698 0.18226746682254655
0.30550514730172457 14.301241623135878 738649.5761085501 4.751668111538505 0.1850919425880288
0.3194215580788349 14.128133495745084 605106.3589302511 5.020105362684109 0.1879376890268679
0.33371957816076586 13.975984899923446 497676.33782607096 5.299974977924732 0.19080131261815284
0.3484014268379636 13.84202405364096 411004.69850463985 5.592006586588981 0.19368913048366931
0.3634644590687654 13.723973595365516 340629.0560225833 5.8963661962096765 0.19659618211047403
0.3789173922288128 13.619998038071785 283307.48761558766 6.21391842395967 0.1995301594956108
0.39475010995691134 13.528474935025974 236414.98955700352 6.544921216199503 0.20248725040414614
0.4109752837213039 13.44786482961058 197872.29913014357 6.890075935873453 0.20547114849591816
0.4275835543549999 13.377057061145157 166081.3916698969 7.250088163887223 0.2084849360577646
0.4445783571268422 13.314924898214267 139800.86685503082 7.625217721229172 0.21152417328713408
0.4619599773307952 13.260565509264975 117981.00685321551 8.016411928225269 0.21459499603212984
0.47972460096222524 13.21317654603019 99810.99333832778 8.424376584906256 0.2176990642948929
0.4978824580346086 13.171977736873172 84642.01105747919 8.849553809778616 0.22083386406796543
0.5164196124239542 13.136414605940786 71937.44028820559 9.29281441137077 0.22400276790755907
0.5353380887401291 13.105849653716863 61274.83792588773 9.755044404176685 0.22720871244945373
0.5546453704371714 13.079820455184803 52297.740631251945 10.23705338872707 0.23045304864975413
0.5743276904124692 13.057853902419986 44728.90941928623 10.73931403193521 0.2337324921816615
0.5943848122208959 13.039528870142101 37995.083370598855 11.263068069179772 0.23705319389461527
0.6148225076004165 13.024500472838252 32901.296449617745 11.809254537243033 0.24041678725639892
0.6356263194338078 13.012436026335525 28060.051699222877 12.378852462170485 0.24382490525469103
0.6567965800919026 13.003027474662588 24369.795858187015 12.972553037993485 0.24727552316051932
0.6783296230585859 12.995968798862439 21027.4998108897 13.591678706752653 0.250773377808785
0.7002169062688833 12.991064483631947 18172.109256849508 14.237429256547502 0.2543211300430054
0.7224506889676017 12.98800589751647 15729.588962403077 14.910994402346477 0.2579207645356631
0.7450389744959225 12.986641725492134 13633.84965468944 15.613405639008539 0.2615721961512675
0.7679600817587268 12.986759177700957 11836.414506823256 16.345925546688974 0.2652772840428566
0.7912047900096244 12.988136695292756 10288.828711970464 17.11017192030581 0.26904073655487476
0.8147794044794912 12.990669856095403 8956.110227176558 17.907599840799747 0.27286498633516354
0.8386603796739562 12.99413481868858 7807.3350368654455 18.73957410387879 0.2767511098272937
0.8628426934745148 12.99840156681287 6814.4424100841425 19.60744023714673 0.28069959757061563
0.8873213230712462 13.003360049060014 5955.262839133602 20.51328357362853 0.2847168052679469
0.9120784294372715 13.008856351621118 5211.029851120327 21.4588982804399 0.28880574634530065
0.9370987451848628 13.01473700487815 4565.21915753638 22.445767687849443 0.29296633605985795
0.9623823620356905 13.020949282673184 4004.421830485001 23.475918812543316 0.29720238698854085
0.987904106601649 13.027326542578347 3516.605636740375 24.551773244098108 0.3015199930045991
1.0136448554835933 13.033797236088795 3091.844260960689 25.675272066785123 0.3059207766468947
1.0396085703803057 13.040244057012707 2721.412843754713 26.848378972162685 0.3104060160408108
1.06575981199314 13.046570529059814 2398.250825439287 28.074189593203595 0.31498443737368087
1.0920919097318602 13.052705460654435 2115.7318265544004 29.35475649134078 0.31965646952002974
1.1185865198508618 13.058545302706506 1868.4441255633103 30.69284022534789 0.3244268307192715
1.1452209554634365 13.063996636588449 1652.107021848248 32.091836004826455 0.3293035473082779
1.1719837723760376 13.069004682643145 1462.0357888353342 33.55368845318775 0.33428434000604074
1.1988402413722747 13.07346682884055 1295.4882986074306 35.082938254191 0.3393827642747603
1.22578526402986 13.077329194761365 1149.0446434959529 36.68160637849129 0.34459556771266364
1.2527819891297556 13.080490834257958 1020.1493074496871 38.35474794615961 0.34993720492682506
1.2798236022544744 13.08293246817804 906.6930255780157 40.1046037823248 0.35540426240911765
1.3068683013122588 13.084522827003108 806.7517250917105 41.936643803942886 0.3610112920973488
1.3339039888241764 13.08523854184286 718.5141665627102 43.854349743751456 0.3667602129213209
1.3609122132439113 13.085033240305032 640.6032700725359 45.862415252959146 0.3726588079804948
1.3878433782172084 13.083774214064729 571.7941998256996 47.96617079767131 0.37871701986838163
1.4147006798014856 13.081482108195814 510.8121520933814 50.170368703929654 0.38494047849240326
1.4414225615271674 13.078031358559079 456.85542429265547 52.48023672689427 0.3913361970300313
1.468018036180576 13.073432838884052 409.01210882024736 54.902186665857826 0.39791584487831505
1.4944269194342699 13.067570619379183 366.52926603902785 57.44240790685832 0.40468848225242526
1.5206389215567067 13.06042263815148 328.8308464489458 60.10752790189486 0.41166387938856186
1.5466223384331417 13.051937606241115 295.28382377447787 62.90465160385097 0.41885257500413314
1.5723380357328116 13.042057241469811 265.4590881221711 65.84140467699892 0.42626593953065584
1.5977625962398803 13.030729532876318 238.91541455881665 68.92598086636517 0.4339162436780194
1.6228492486135149 13.017908466336142 215.23642155506437 72.16719395688088 0.4418167329571629
1.6476021432756838 13.003569261012728 194.09199600501876 75.57453480727122 0.449981708864019
1.671950606989371 12.987637167506175 175.23415422070923 79.15793512851144 0.4584253694197153
1.6958871746955746 12.97008866858544 158.35444646307732 82.92759664780434 0.46716102977020363
1.7193679101601476 12.950878809534178 143.27640056066312 86.89625083567456 0.4762102166480254
1.742349863084145 12.929938800743138 129.77345573500645 91.07547614430614 0.4855872762794114
1.7648335618016504 12.907291829944752 117.67483742516808 95.47935864418324 0.4953141171996401
1.7867601008807328 12.88285761215971 106.82034930920182 100.12156992914652 0.5054082768849589
1.808099193503621 12.856602496669021 97.08324229394637 105.01863271331263 0.5158954475724523
1.8288090220306545 12.828468800998237 88.33087710807547 110.18708717082224 0.5267981653325408
1.8488894813829482 12.798504853145309 80.46260043894564 115.64456698930644 0.5381398158245553
1.8682660469158052 12.76656632088789 73.38678052690783 121.4112745485437 0.549949709846517
1.8869454908301735 12.732749119408998 67.00745763778767 127.50863410204718 0.5622576540661228
1.904867642052463 12.696935367921553 61.25503783524024 133.95907927879355 0.5750929238930237
1.9220105992564964 12.659118835300797 56.073481545349416 140.7882943439653 0.5884918234671019
1.9383241577528818 12.619232933267194 51.39162047013468 148.02396003653558 0.6024926335405938
1.953819203835057 12.577392455285006 47.157783650345316 155.69458490500173 0.6171311551517707
1.9684391395203962 12.533464463078639 43.33799173987894 163.83380158848203 0.6324549430940133
1.9821545995575962 12.487466810854237 39.878783249237024 172.47537819524845 0.6485055456674416
1.9949448460671158 12.439393271637602 36.74485494396661 181.65861115582496 0.6653361580263262
2.0067820308920425 12.389235553069629 33.903563704106865 191.4254967683398 0.6830011813556114
2.017629397515372 12.336964271366933 31.327902227979916 201.82206601296983 0.7015598449456982
2.0274655096459084 12.282581311394816 28.990352825987014 212.898265962696 0.7210748235233255
2.0362769070443 12.226118574016178 26.86879866855048 224.70957528062547 0.7416164288731489
2.0440234908784256 12.167525720103177 24.943031970205883 237.31715642313455 0.7632617984808402
2.050684520673142 12.106822686315741 23.187359362696334 250.78786896130032 0.7860935158358192
2.0562569097537042 12.044080363279814 21.593171373765035 265.1948295051192 0.8101998049625205
2.0607052671728754 11.979233305977582 20.141820254046753 280.61972667614924 0.8356801997834259
2.064012800740228 11.912340065085326 18.82035983552837 297.1523226487728 0.8626417857351261
2.066173749320099 11.843442939438233 17.61758569434894 314.8929922687996 0.8912050527146406
2.067168656536383 11.772554894359155 16.52387717100419 333.95111882004625 0.921495799487345
