M[M_sun], R[km], Lambda[1], P_c[MeV/fm^3], rho_c[fm^-3]
0.24162668629717493 15.618656898711224 2160425.4255784233 3.5677272577965504 0.1711233750220791
0.2536451912922594 15.277264002823525 1723166.390675067 3.784855584369464 0.17388862150610637
0.26604332550638904 14.981208780082031 1382879.1912076639 4.011477120586657 0.17666757513980216
0.2788213879528923 14.723411670835073 1116365.77923854 4.247846840545772 0.1794588901006648
0.2919781979742339 14.49827887277106 905778.6500677789 4.49459042803956 0.18226914171078562
0.3055155337018161 14.301099724683246 738542.508258807 4.751865402252993 0.18509407370428024
0.3194349090753987 14.127986476619359 604984.0194379115 5.020350984645144 0.187940237449515
0.33373574004063333 13.97580650482515 497549.4381601881 5.300275398522756 0.190804337355087
0.3484192647840536 13.84187346816352 410911.16088140756 5.592362556566559 0.19369257459112632
0.3634837552910377 13.723847253032902 340549.8715156224 5.8967857139134905 0.19660012230952767
0.3789401185642131 13.619873537771483 283217.3177617725 6.214406567097578 0.19953461077326592
0.3947767272359027 13.528298412952829 236338.83359328052 6.545477478617458 0.20249212807407788
0.41100476312681283 13.447747731178723 197805.2136303545 6.890711057467129 0.20547655745792837
0.42761603621177985 13.376924357322201 166028.16809055593 7.250808105688559 0.2084908919517818
0.44461502821797244 13.314793128912834 139746.84970637516 7.626020494005298 0.21153056387461322
0.46199791902957643 13.260440254814435 117927.66686991414 8.017311535932503 0.2146019552250469
0.4797684534277229 13.213040089064558 99771.40351521327 8.425380043897038 0.21770660890369364
0.49792837701332604 13.17189044583531 84604.76701080306 8.850657420647197 0.2208418546821906
0.5164714269397364 13.136313155816245 71909.82691584277 9.294036036186842 0.22401136822242365
0.5353930477051352 13.105787799567093 61246.979043908665 9.756392327487523 0.2272179410459371
0.5547049024801465 13.079729133510254 52277.93067549854 10.238528243209982 0.23046282005634702
0.5743908128929499 13.057790544166215 44707.65382339272 10.74092568485919 0.23374283949266103
0.5944512677297837 13.03947366605598 38307.68314816782 11.264832605290714 0.237064218748168
0.6148928213655753 13.024461254643349 32885.563638659325 11.811182382648964 0.24042851177300603
0.6357017922846087 13.012409352384328 28276.91679262068 12.380954693526068 0.24383735272253923
0.6568768097818101 13.002985595191108 24356.957948364656 12.974820001383193 0.2472884801936428
0.678412475789176 12.995957588970017 21015.672430923052 13.594142598045964 0.2507870960953902
0.7003066679228427 12.991048887539815 18161.65467114782 14.24010328941078 0.2543356368017949
0.7225450858855723 12.98800460668719 15719.293232658065 14.913892639561139 0.2579360886083158
0.7451379811195264 12.986640001414099 13625.502042111013 15.616514765308787 0.26158808794254934
0.7680629143106884 12.98676521732839 11828.127702762895 16.3492876724015 0.26529404339628326
0.7913130345806438 12.98815079307753 10282.609491305595 17.113803922750165 0.26905839775286244
0.8148916554048549 12.990687295922845 8950.028241383907 17.91151971638701 0.27288358586454053
0.8387791714953978 12.994161320060378 7802.375242072675 18.7437644650616 0.27677036236877756
0.8629660182880078 12.998425718363753 6809.32877736667 19.61195557744263 0.28071985505484726
0.8874522869894449 13.00337880839996 5951.106968508706 20.518145629872944 0.2847381115522837
0.9122131948289496 13.008873494666977 5207.415961968836 21.464130278149288 0.2888281482443738
0.9372379340193034 13.01477760112914 4562.265469835816 22.45134783024395 0.2929895127945134
0.9625261316898578 13.020986902601564 4001.5036285290466 23.481917138265228 0.2972267479715738
0.988052637351706 13.0273733774334 3514.1006516649268 24.55821799281879 0.3015455949318005
1.0138007170910546 13.033824067552777 3089.743120972118 25.682138288852872 0.3059472747202139
1.0397685079925605 13.040287147070822 2719.287270709391 26.855750623386097 0.31043386481172297
1.0659250055234035 13.046612567902292 2396.4578568184365 28.082101187604028 0.315013705801593
1.0922624677711081 13.0527355116973 2113.912140640388 29.363179985159192 0.3196867889257245
1.1187656606674405 13.058574783671851 1866.889656214932 30.7018762051579 0.32445870572356816
1.1454020963592346 13.064031953691774 1650.6390613444842 32.101454974934285 0.3293365971421379
1.1721644420703174 13.069046094454004 1460.8202603993163 33.56400326444177 0.3343191019834683
1.1990295666238233 13.073488879768652 1294.3845236268035 35.09399760117798 0.3394193345370505
1.2259807856618394 13.077355300314911 1148.0595211235534 36.69337816292302 0.3446335416670073
1.252980422336702 13.08051130182146 1019.3343482219285 38.36727995025389 0.34997666700631797
1.2800267597017543 13.082948535579547 905.8914119441149 40.118038474294075 0.35544582485783
1.3070807059054954 13.084552886825975 806.046008216183 41.950949043105005 0.3610545390025701
1.3341158374782534 13.085240548207391 717.9092857879027 43.8696859490112 0.3668058000546542
1.3611263248248158 13.085028464740319 640.028313436595 45.87875028421931 0.372706308032453
1.3880674823344246 13.083777572716066 571.2328577914108 47.98357444107461 0.37876655625552574
1.4149142909482557 13.081446443117128 510.3474580854261 50.18903183776863 0.3849927746501399
1.4416468265407256 13.077999667262743 456.439279882636 52.50012971836079 0.39139081573133855
1.468244181357258 13.073389972018894 408.6139981311772 54.92339761791602 0.39797294094654917
1.4946560983379502 13.06751194396134 366.1784742436716 57.465032059863546 0.40474822248117137
1.5208692413359923 13.060354136630638 328.5302331419404 60.13166827271765 0.41172644352481663
1.5468537894595136 13.05185604298279 295.0072630091132 62.93041968878338 0.4189181568289397
1.572572008097272 13.04196166432797 265.1982961095572 65.86892122554661 0.4263347480476469
1.5979867398676917 13.030611285125916 238.6724033947714 68.95537673389379 0.433988504421556
1.623095537798054 13.017792478912293 215.0203386241775 72.19861104506467 0.4418926894331499
1.6478377653594387 13.003424379353431 193.89561826132478 75.6081271024018 0.45006162413805384
1.6721862300388828 12.987474574333042 175.06247306351017 79.19369439484022 0.4585087953789478
1.6961225393028936 12.969908817248431 158.20019858615214 82.96587185915499 0.4672489860944119
1.7196021154520966 12.950675762577783 143.13275176542103 86.93723907150664 0.47630303483558933
1.7425866425852756 12.929726951200351 129.64590359241006 91.11919446383743 0.4856845334482336
1.751820157092661 12.909365627357861 123.49123238069173 97.1214363167183 2.128364873428208
