M[M_sun], R[km], Lambda[1], P_c[MeV/fm^3], rho_c[fm^-3]
0.24162668629717493 15.618656898711224 2160425.4255784233 3.5677272577965504 0.1711233750220791
0.2536375178329622 15.277454206959886 1723481.2339018232 3.7846944257539046 0.1738866127417089
0.26602534092441943 14.981581733583837 1383331.650484253 4.011138338301922 0.17666348115582678
0.27879224330904534 14.723963009061624 1116847.0959085755 4.247318978504009 0.17945276769645147
0.29193888719665445 14.49889906552755 906315.2762308859 4.493859640371309 0.18226100422049268
0.3054651333115473 14.301797292783345 739117.965832853 4.750906881873043 0.18508371985481314
0.3193737709848506 14.128676302294137 605457.7341574873 5.01915767679688 0.18792785642001472
0.3336620556304814 13.976532653609084 498070.3647179957 5.298815894440504 0.19078964257073397
0.3483328086424396 13.842597405115423 411355.4833804027 5.590633218347017 0.19367584276812772
0.36338458212343233 13.724559473608885 340972.21460923384 5.8947476988554515 0.19658098084081257
0.37882794799599584 13.620546139518972 283598.45263649296 6.212035221340444 0.19951298695524702
0.3946482089401383 13.52899690853174 236678.29650777057 6.542775270310829 0.20246843335773335
0.41086182696037005 13.448384685146811 198100.63251912376 6.887625833003871 0.20545028239173505
0.42745663495747094 13.377549121327858 166303.34503713995 7.247310924646264 0.20846196066926959
0.44444035824311384 13.315381975436505 139991.74995559323 7.6221210278294365 0.21149952161650484
0.4618067258232815 13.261014342028648 118153.06239913458 8.01294178506202 0.21456815166927187
0.4795596398700235 13.21355193340669 99964.39121180783 8.420505946891256 0.2176699625080728
0.49770140564462423 13.172364585133051 84778.9993051181 8.845296953649136 0.2208030426107733
0.5162252750983015 13.136739210454271 72062.58362692456 9.28810247188285 0.22396959555980894
0.5351275198348562 13.106156773842757 61381.27060369523 9.749845450693714 0.22717311766194287
0.5544199783936098 13.080090604220748 52397.538833594095 10.23133355115245 0.23041495676282303
0.5740841157115061 13.058079378220686 44814.359434902144 10.733098165487675 0.23369258439363388
0.5941304406696519 13.03974363700907 38401.29740031766 11.256262730800827 0.23701067401727216
0.6145482062350124 13.024676512326138 32968.29743942807 11.801819546858649 0.24037157010985433
0.635332667996643 13.012576569456472 28118.14982070142 12.370745133936511 0.24377690116262984
0.6564842146294748 13.003119304912174 24423.98351416947 12.963810600548205 0.2472255549730873
0.6780021753270123 12.996089204808086 21075.102624247884 13.582177064816893 0.25072047521212887
0.6998715039357549 12.991133813894134 18213.987468450843 14.227117493170715 0.2542651882234206
0.7220885552454267 12.988030450405166 15765.538243855059 14.899818330289857 0.25786167242984753
0.7446566624328467 12.986655807574188 13665.931949579717 15.60141659422991 0.26151091610700683
0.7675583939279346 12.986747248847028 11864.02636940608 16.332961241975795 0.2652126602354213
0.7907841119646903 12.988111079055859 10314.286649136722 17.096167328806665 0.268972636968767
0.8143400593931969 12.99061140359544 8979.447028430282 17.892485626057027 0.2727932704669275
0.8382027281158279 12.99406232264364 7827.378655375976 18.723417288344464 0.27667687761967436
0.8623643023541463 12.99831319222691 6832.58480050889 19.59003084009325 0.28062149258556884
0.886818512615027 13.003247138209714 5971.526246888919 20.49453785477713 0.2846346586213704
0.911560190810373 13.00872529869064 5225.503482910169 21.438726767311895 0.2887193777674943
0.9365592193758743 13.014616351095343 4578.308179057703 22.424254382654144 0.29287698203789514
0.9618192432059303 13.020796549852792 4015.92937989534 23.45279387339855 0.29710846973958505
0.98732387672095 13.02718646335239 3526.8444142528974 24.526927892206917 0.30142129421617775
1.0130486752110064 13.03364193408483 3101.01719560808 25.64880244184184 0.3058186252664766
1.0389902998130836 13.040093807624842 2729.653528737226 26.819961648785352 0.3102986605101858
1.0651254477601526 13.04643313931912 2405.4793998083346 28.043691636519895 0.3148716121703799
1.0914325711599888 13.052556813208506 2122.275939363507 29.32228594898078 0.31953959550454836
1.1179129734659625 13.0584003915498 1874.4312656164407 30.65800964905232 0.32430396360442376
1.1445256310546816 13.063858397864172 1657.2536825886707 32.05459030927899 0.32917506291058884
1.1712703982882187 13.068883000655756 1466.8263380770572 33.5139304165896 0.3341503513234798
1.1981123584853293 13.073358161969116 1299.7095722014442 35.04031163803464 0.33924180961123296
1.225036587734868 13.077235340317468 1152.8424548488474 36.63623482393044 0.34444920610101604
1.252015855873105 13.080413852902488 1023.5946349619159 38.30612073597321 0.3497831942275471
1.2790412660031334 13.082880940262765 909.7744802853131 40.05282567274429 0.35524407823602433
1.306068260712911 13.084479404983794 809.4996201406335 41.88151188347908 0.36084461994933736
1.3330903699629386 13.085226833949129 721.0636069066342 43.79524629406793 0.3665845269028081
1.3600848809651294 13.085053198278258 642.913952069599 45.799464047974055 0.37247575442767294
1.387003674831164 13.083834051664182 573.8315781205541 47.899103128427505 0.3785261236317991
1.4138381510411897 13.081556013363626 512.6713081529792 50.09844965653732 0.3847389533959671
1.4405664482922151 13.07818454879504 458.50224663014967 52.403580403458044 0.39112572748651786
1.4671381036233433 13.07359664866051 410.5159300340996 54.820453870658646 0.39769583489296156
1.493544280228681 13.067784594476468 367.8836633641333 57.35523198018525 0.4044582897762959
1.5197473821755327 13.060694364744839 330.03382642875897 60.0145122622467 0.4114228125385333
1.5457238827926043 13.052254495588166 296.385099877891 62.80536704500765 0.4185998879084044
1.571435218039546 13.042431276546086 266.47314693768465 65.73538639267926 0.42600082775963094
1.596849706188773 13.031149723172344 239.80909578160623 68.81272517186311 0.4336378392156743
1.621943427719832 13.01839609016075 216.0476572494512 72.04615467331854 0.44152409866267944
1.6466818980301434 13.004123839659238 194.8308297644455 75.4451192698434 0.44967383236740843
1.6710468811588424 12.988268435301915 175.90429291940322 79.01979865161168 0.45810240448045336
1.6949785298395317 12.970790708081092 158.9825590722831 82.78014884003824 0.4668221951373948
1.7184668914308006 12.95165782371257 143.83175036496124 86.7383569768343 0.47585266474300875
1.7414675668950315 12.930817228830175 130.28638267310157 90.90707048930042 0.48521263568491696
1.763950746806511 12.908243335857918 118.13726502540996 95.29882023757415 0.49491797562327244
1.7858832030351925 12.883882523645461 107.24383281909797 99.92874161274155 0.5049921617437767
1.8072215226173811 12.85768884014701 97.46775005284779 104.8125153524771 0.5154577569246792
1.8279687225908838 12.82970276133657 88.67735197044358 109.96582496104297 0.5263343143715338
1.8480440557722457 12.799782615725483 80.77750738182857 115.40760245029355 0.5376503288571306
1.8674596432567583 12.76800312187393 73.67081878708231 121.15741076457685 0.5494329362130587
1.8861511556564587 12.734262087156255 67.27249535337782 127.23644698719954 0.5617113766984427
1.9040848811917443 12.698516191708691 61.497716438764634 133.6678148680327 0.5745175737036521
1.921252765738573 12.660817406902796 56.295069172298426 140.47567363787675 0.5878827194479953
1.9376128700211483 12.62110519011632 51.5948526513842 147.68791739668202 0.6018462388036716
1.9531249495794956 12.57932689753112 47.34708037145373 155.334171627273 0.6164481359125972
1.9677784997375294 12.535543863951933 43.5054881454815 163.445867248185 0.631728808565546
1.9815354705900077 12.489676133315182 40.03340916721402 172.05829982554215 0.6477354560601843
1.9943738589844437 12.441761013183667 36.88640354985106 181.20990973171382 0.6645188421607102
2.006230438200661 12.391678564803971 34.03458175443219 190.9422612132613 0.6821324630027079
2.0171208008678114 12.339534653064463 31.448870867933923 201.30108524369854 0.7006351554707569
2.0270030685732943 12.285297332927664 29.1020301897276 212.33674180175356 0.7200916080019623
2.0358641402452227 12.228979066767215 26.97192193102236 224.10344978785798 0.7405687265290988
2.0436585941860974 12.170527010844921 25.033611845200788 236.66254661952186 0.7621450561800155
2.0503704031715597 12.109968949670339 23.274164477419582 250.07945815983933 0.7848994326245283
2.0559876798201886 12.047331168442593 21.672214132295103 264.4282198752634 0.8089241219993598
2.060495425374157 11.98264299214324 20.215624739215336 279.78950583899365 0.8343165423300273
2.0638663075099437 11.915913622662089 18.887727378265094 296.2528648143458 0.8611844428758516
2.0660879096672082 11.847159390967713 17.67887164638718 313.91598603904583 0.8896410579031406
2.0671440637359777 11.776420968382213 16.579469973453428 332.89009053095066 0.9198199900590601
