M[M_sun], R[km], Lambda[1], P_c[MeV/fm^3], rho_c[fm^-3]
0.24162668629717493 15.618656898711224 2160425.4255784233 3.5677272577965504 0.1711233750220791
0.25364070832461677 15.277377582953738 1723253.0667484235 3.7847755155349145 0.1738876234867102
0.26603442083015905 14.98139131964179 1383142.6604102585 4.011308799985773 0.1766655410846765
0.27880711549692144 14.723670606863822 1116525.12684039 4.247584573702182 0.17945584820050686
0.29195886691318435 14.498570259637678 906057.1295691264 4.494227332946261 0.18226509856265177
0.3054906067871366 14.30142391484938 738800.3222661254 4.751389150242865 0.18508892927363024
0.31940322987514413 14.128345242314598 595017.9380136671 5.0197580676148235 0.18793408570648046
0.33369909259394837 13.97616696829044 489857.3287545128 5.299550206724137 0.19079703587698574
0.3483751850530278 13.842201345237301 411138.50076369505 5.5915032794695865 0.19368426084883414
0.36343560310145934 13.72417957092871 340762.81809130404 5.895773046846351 0.19659061112612988
0.37888458688374155 13.620204108024485 283412.3400479527 6.213228255542948 0.19952386599066715
0.3947120475607094 13.528667076564318 236507.4768099638 6.544134746058114 0.20248035412347526
0.41093341168713066 13.448080762075316 197955.50155782216 6.889177982820776 0.2054635011509102
0.4275369865863703 13.377235406439988 166167.59607327258 7.249070303038048 0.20847651555581478
0.44452737432254635 13.315093046698932 139872.4944985717 7.6240827665417115 0.2115151383180484
0.4619039038399554 13.260736164421173 118037.61071314929 8.015140085483733 0.21458515730028338
0.47966352095771153 13.21330968172041 99861.6457571622 8.422957938167325 0.21768839805464793
0.49781564544938606 13.17212087347989 84688.9443128886 8.847993590383167 0.22082256741291192
0.5163488605794695 13.136531356549954 71982.16781070478 9.29108737290031 0.22399060944905874
0.5352620268532244 13.10595887263665 61314.32276214285 9.753138838908429 0.22719566594095278
0.5545635486416796 13.079923230316515 52337.32823234733 10.234956877618915 0.23043908670362545
0.5742407093865237 13.057923030078019 44759.6452164288 10.73703568460667 0.2337178644860686
0.5942906746425088 13.039597738665721 38354.09580317194 11.260573626632315 0.23703760857243855
0.6147213904613433 13.024566919290328 32925.42005192719 11.806529266148065 0.2404002130611271
0.6355172628497875 13.012480280996819 28315.691252970973 12.375880710137146 0.2438073092903888
0.656683122566778 13.003062963497964 24389.6565473196 12.969348451602754 0.24725720705881238
0.6782084284321693 12.996013335892803 21044.70632340505 13.588195785951985 0.2507539858388972
0.7000918620517583 12.991069589442318 18187.809431326157 14.23364932991431 0.25430062375654094
0.7223177294386539 12.988020874633758 15742.820591904945 14.906897598927307 0.25789910319168424
0.7448993198332079 12.986654386190747 13645.74388766064 15.609010778802528 0.26154973254112035
0.7678134731188433 12.986742309935552 11846.40786390922 16.341173122316725 0.2652535943993101
0.7910505723206918 12.988126674803516 10298.470304069273 17.105038084819974 0.2690157724513697
0.8146166145510744 12.990653674712348 8964.498259724307 17.902059166416663 0.272838696231393
0.8384942269417996 12.994106786232791 7814.4037318675255 18.73365116389614 0.27672389698268485
0.862667562279348 12.998370564902773 6821.067199433311 19.601058030506223 0.2806709646344668
0.8871357751354783 13.00331722303697 5961.355142558956 20.506411388888576 0.28468669028886734
0.9118891430310289 13.008806431120139 5216.297428705144 21.45150330336362 0.2887740831949492
0.9369007325017379 13.014693758709651 4569.876392674136 22.437880720223284 0.2929335780864973
0.9621719289964912 13.020891798708728 4008.596115789344 23.467440894687282 0.2971679556450927
0.9876911369931842 13.02727874079329 3520.3147816273954 24.542664479314926 0.3014838082062492
1.013429483296427 13.03375263768083 3095.3844271091184 25.665567709868867 0.30588332566460125
1.0393819066495107 13.040194194076664 2724.4518221353055 26.837960406010275 0.3103666565739535
1.0655290871261025 13.046524382383664 2400.970199460528 28.06300805908728 0.314943072016881
1.091851377491958 13.052638747446068 2118.221348898469 29.342851613458944 0.31961361926928744
1.118342070891307 13.05848648347947 1870.742943232545 30.680069897868457 0.32438178256159117
1.1449667099950787 13.063951701131556 1653.8923371825306 32.078241901584505 0.3292568393085038
1.171722610887706 13.068956496635145 1463.8425729315934 33.539111147848594 0.33423521298406467
1.198572083005643 13.07341926385279 1296.9690069257795 35.06730896052845 0.3393310824377293
1.2255111493295943 13.077296155006584 1150.3816901793184 36.66497044444114 0.34454190276460506
1.252501184531997 13.0804677541697 1021.4318542419616 38.336924991283865 0.34988077535540707
1.279536568442065 13.082915700631844 907.8142593117421 40.08561831770686 0.3553455277242237
1.3065753006942291 13.08451180479539 807.7976405782424 41.916428353116956 0.36095017772687465
1.3336056813243913 13.085234600519012 719.4455355899511 43.8326777074675 0.36669579242153316
1.360609910455579 13.085037385892907 641.4468819299494 45.83933203306721 0.37259168511266744
1.3875357638321897 13.083798517178135 572.5323826665365 47.941577820448124 0.37864702031641867
1.4143865053337739 13.081518416546007 511.479427264588 50.14399636178845 0.3848665802834314
1.4411136149337465 13.078098241720598 457.45915757653313 52.45212687690654 0.3912590179138157
1.46769601586155 13.073501643391864 409.55178391521565 54.87221486914525 0.3978351661918749
1.4941025799378485 13.067648749014976 367.02160899455464 57.41043964622814 0.4046040684313987
1.5203122036913819 13.060522721496874 329.27548636062113 60.07341767963902 0.4115754765794849
1.5462929484265202 13.05205599550767 295.6916009796596 62.868241949537754 0.4187599095392101
1.5720072610394926 13.042193842823096 265.82394927638546 65.80252505523306 0.42616871625026354
1.5974293944740343 13.030889333817257 239.244194375601 68.8844464732762 0.4338141440844616
1.6225166297009888 13.018089760341313 215.5215339599175 72.12280439271646 0.44170941318122425
1.6472690599186623 13.003775511141034 194.3661579626884 75.52707261090757 0.449868797423644
1.6716180718580556 12.987870036584859 175.47370186557413 79.1074119162624 0.45830749934356135
1.6955567210064382 12.97034832110914 158.59119561317067 82.87351961954516 0.4670367609167619
1.7190281189910173 12.95115611312017 143.4832102609111 86.83834169318695 0.47607908093213114
1.7420271726792316 12.930258219733647 129.9690072954296 91.01371078048673 0.4854498710799264
1.7645127248491441 12.907645278971643 117.84639081317118 95.41314222086129 0.4951688235814629
1.7864394128056316 12.88323622419117 106.9709251830444 100.0508447950397 0.5052556551138795
1.8077827522809247 12.857009149816685 97.22473349431851 104.94303222026201 0.5157349097669945
1.8285074774989416 12.828936151177418 88.45910486131774 110.10599685894948 0.5266282770490949
1.8485834443994034 12.798981801337321 80.57987677445733 115.55764906089034 0.5379602733775188
1.8679761134023665 12.76711360445819 73.48432148873235 121.31815635376336 0.5497601553259557
1.8866543481665332 12.733305545158847 67.10370659617814 127.40879299030541 0.5620572737515033
1.9045848583203244 12.697526464679115 61.342724936450395 133.85231022390653 0.5748821286271795
1.9217373055261366 12.65975522417591 56.15452851734575 140.6736175712453 0.5882683895044707
1.9380681689160095 12.619936020730169 51.466033060666156 147.9006890188959 0.6022555156050483
1.9535622225215847 12.578085371055648 47.2286583392757 155.5623714796934 0.616880597476061
1.9681976161155106 12.534223916905882 43.39860075666536 163.6915926873072 0.6321889132397344
1.9819288951706668 12.488278491276036 39.935231963765176 172.32237139696178 0.6482230353438224
1.9947293618757003 12.440245201678191 36.79563036297918 181.49399984414043 0.6650363162396278
2.0065769044934845 12.39012205603962 33.95226331125372 191.24821232545736 0.6826824749864345
2.0174440375678997 12.337914585054888 31.370609511457637 201.63092965085067 0.7012205967569841
2.027297832267751 12.283580462575687 29.032555143160444 212.69245773243344 0.7207147743375965
2.036126491831405 12.227166727964486 26.90690597791963 224.4871909375456 0.7412320322419149
2.0438894099460514 12.168629144762182 24.975076183255386 237.0771128853777 0.7628525021981897
2.050569364818649 12.10798064513377 23.218262974569956 250.52799903942912 0.785655571159829
2.0561561274813953 12.045260336516128 21.62137710929035 264.9135431573498 0.80973172813744
2.060631042385215 11.980488935628726 20.168222150110363 280.31529691198784 0.8351804992346196
2.063965132089944 11.913662951322033 18.84571003594723 296.8222872652351 0.862107069277687
2.06614291553578 11.844804920214022 17.6410875693981 314.53447753836707 0.8906311411456385
2.067159882672654 11.773974048104844 16.544545568408626 333.5617609699318 0.9208808398647748
