M[M_sun], R[km], Lambda[1], P_c[MeV/fm^3], rho_c[fm^-3]
0.24162668629717493 15.618656898711224 2160425.4255784233 3.5677272577965504 0.1711233750220791
0.2536449549071366 15.27727124417607 1723291.4897592503 3.7848379986253424 0.17388840230828953
0.2660414730631272 14.981249434507784 1382925.3173128804 4.011440151425037 0.1766671283893017
0.27881724433310523 14.723485511538048 1116323.3151387295 4.247789236812411 0.17945822198416478
0.29197359492553476 14.498352702152747 905829.0316889479 4.494510677724035 0.18226825367251318
0.3055103456956389 14.301164575067837 738601.9733096728 4.7517607969488 0.18509294376735275
0.3194284933254835 14.128046312330117 605035.3046676532 5.020220753337766 0.18793888624943628
0.3337253648604419 13.975909723902973 497634.92613688373 5.300116111977646 0.19080273360388192
0.3484098180158749 13.841952997378412 410962.1598921065 5.592173816606788 0.193690748480095
0.3634740687041647 13.72390817069839 340624.21992245485 5.89656327952347 0.19659803315866445
0.3789276209480854 13.619955641188056 283265.1365643766 6.214147745821691 0.19953225063487093
0.394762966576398 13.528378291350085 236373.75650783026 6.545182538702911 0.2024895418494716
0.41098905715007766 13.447797521940277 197832.22169520415 6.890374304189118 0.20547368952569978
0.4275983404281656 13.377002196444696 166058.16623433432 7.250426378178722 0.20848773401792128
0.44459556302829084 13.314867900093088 139781.32806195266 7.625594846880648 0.2115271754498108
0.46197864153888524 13.260526960542796 117962.06554559237 8.016834543671692 0.21459826530427784
0.47974457980194146 13.213106927930452 99795.01600979701 8.424847986009333 0.21770260857218138
0.4979042649708174 13.171930936541393 84626.08506850971 8.850072258552157 0.22083761785860198
0.516444515204797 13.136353074838537 71926.37923772352 9.293388298536609 0.22400680810898427
0.5353647817500345 13.105802116291194 61262.07304457877 9.755677621281015 0.2272130477889313
0.5546726725360903 13.079793721143604 52292.58557327795 10.237749555995908 0.230457681704553
0.5743578341953229 13.057807881514975 44718.20808765728 10.740071138001655 0.23373735303713017
0.5944167463923077 13.039495434027627 38319.59143007112 11.263896992881214 0.23705837302490232
0.6148563239415816 13.02449913258438 32893.328223735174 11.810160176030887 0.24042229505125404
0.635662346608637 13.012430965251568 28284.890961627527 12.379840019059868 0.24383075265231272
0.6568346496676567 13.00300688900818 24364.165406687614 12.973617977929592 0.24728160992049492
0.678368349604063 12.995974164343421 21021.929168720606 13.592836153341015 0.25077982216129047
0.7002585945953377 12.9910464978761 18167.125892863525 14.238685416561053 0.2543279447723858
0.722493687192069 12.9880078326891 15724.109268228402 14.912355881385606 0.2579279631885564
0.7450850710981757 12.986641264278559 13629.88053745501 15.614866182210644 0.26157966147930006
0.7680073173049566 12.986765215913469 11832.81830773871 16.34750493455606 0.26528515689524984
0.7912544444071749 12.988147405900891 10217.5426776447 17.111878080416407 0.2690490330337383
0.8148322869547641 12.990678083113673 8953.286427286363 17.90944122636101 0.27287372357798634
0.838717269425518 12.99413193967362 7805.27026776465 18.741542547253218 0.2767601538060992
0.8629012009060436 12.99841657557353 6812.005576171372 19.60956133520481 0.2807091135998957
0.8873829333842985 13.003370424592115 5953.2911085584 20.515567536418875 0.2847268139470282
0.9121424132471063 13.00885905966855 5209.376318958764 21.461356017223796 0.2888162696624807
0.937164139679871 13.014753476315184 4563.671526061151 22.44838896000885 0.29297722333208204
0.9624492685256131 13.020967565443215 4003.0794026274384 23.478736518334184 0.29721383052897954
0.9879727810562364 13.027351330617694 3496.0272021203705 24.554800647849586 0.30153201944252767
1.0137175558359837 13.033808577782136 3090.6981082088837 25.678497449055364 0.30593322401824913
1.0396846801193758 13.040266501687183 2720.4234198415306 26.851841767841652 0.3104190978593419
1.0658375982711579 13.046595495729525 2397.272722314277 28.077906013548947 0.3149981860285618
1.0921719354283375 13.052721849844565 2114.802139559663 29.358713363731365 0.31967071183110385
1.1186724847026523 13.05855971839124 1867.6797207830064 30.697084795721796 0.3244418037163067
1.1453049492116383 13.064016108465035 1651.4122784006793 32.09635441870057 0.32931907213330347
1.1720706650250474 13.069017324854691 1461.4278592515896 33.55853371663525 0.33430066904342637
1.198928641349803 13.07347742006475 1294.893803009798 35.08813323867365 0.3393999426800809
1.2258768780436253 13.077346562331241 1148.5904836952677 36.6871360072785 0.344613405439163
1.2528744000275527 13.08049939650524 1019.724230372738 38.3606346623138 0.34995574163165544
1.2799189997896618 13.082940820129638 906.3267657968988 40.110914502036415 0.35542378566763017
1.3069647598531442 13.084520509666417 806.4297101570108 41.94336343079439 0.3610316065473399
1.3340040064016974 13.085238319559823 718.2795307359634 43.86155362455066 0.3667816265806289
1.3610129155812458 13.08503049092112 640.3284837701 45.87008829171386 0.37268112013488996
1.387945992015608 13.083767977118983 571.562148212466 47.97434577190176 0.3787402884839806
1.4147978553058431 13.081455814110269 510.5924040435329 50.1791352656067 0.3849650433643174
1.4415291745659249 13.078015650854137 456.6836443937292 52.489580957896386 0.39136185278738234
1.4681244008157408 13.073412346627094 408.8298763780246 54.91214994629287 0.3979426642373893
1.4945345685938511 13.067543640890126 366.3648464255734 57.45303496891798 0.40471654355125913
1.5207472101811632 13.060393295744177 328.699479717607 60.11886713000007 0.41169326704865233
1.5467335092110026 13.051896639991856 295.15416618939236 62.91675536474865 0.41888338003790937
1.572448068076083 13.0420114524755 265.33978487978914 65.85432968314613 0.4262982600996236
1.5978621382253217 13.030671194723709 238.8068336707382 68.93978857634119 0.43395018570706256
1.6229599067744935 13.017849879288418 215.13350839665853 72.18195101703049 0.4418524108111491
1.647711873582166 13.003503856020426 194.00430020314968 75.59031353929936 0.4500192460935846
1.67206101627621 12.987561593233568 175.14428648115248 79.17473166543274 0.4584645555481878
1.695997625628385 12.970000786501352 158.29038557141516 82.94557488801536 0.46720234371384745
1.7194779274099776 12.950783074076337 143.21126133634343 86.9155033387298 0.47625381409503376
1.7424583092905577 12.929828447990577 129.7240489008166 91.0960109234529 0.48563295860443245
1.7649412952022392 12.90717546133691 117.61675251594585 95.50137354595788 0.49536242280982234
1.7868671767008444 12.882736967962988 106.76855176509478 100.14508412340574 0.5054590194960359
1.8082037170495597 12.856466025170144 97.03925676472275 105.04376814882951 0.5159488227224585
1.8289174846589629 12.82833220598408 88.28848605570991 110.21397686511447 0.5268543845304384
1.8489901774772697 12.798342580024809 80.42317253381889 115.67346603208742 0.5381995112746477
1.8683635802801928 12.766396670574325 73.34788112143795 121.44223552503 0.5500127350487111
1.8870393266091314 12.732567330678428 66.9723638193216 127.54172625572487 0.5623239060058565
1.9049619994276898 12.696738276212669 61.227397265337956 133.9945800122043 0.5751630133636564
1.9221006732980896 12.658909629815223 56.04505793490378 140.82642497727352 0.5885661164411333
1.9384123014508319 12.619009123758854 51.36704054213629 148.06494894756588 0.6025714777502861
1.9539056787476825 12.57715157082359 47.140940316888596 155.73854789959182 0.6172144694272769
1.9685188469932047 12.533213064454996 43.32096584597123 163.88100511844164 0.6325431196802664
1.98222962932995 12.487199600139322 39.86003290711871 172.52625695828928 0.6485994877404275
1.9950138111022526 12.439105747997012 36.72666588235264 181.71334961453962 0.6654358648878667
2.006847334358243 12.38893562753594 33.88624884053496 191.48445044014343 0.6831071630784558
2.0176902057760095 12.336648446609718 31.31257761341964 201.88562707842547 0.7016726595670999
2.02752314696233 12.282253180607295 28.977249712624598 212.96670719804771 0.7211945573698643
2.0363278686330863 12.225769214103112 26.85563139114228 224.7835302764935 0.7417442618441256
2.044066714037334 12.167162964965248 24.930307118785024 237.39698551934453 0.7633979144231039
2.0507209610690618 12.10644009258692 23.17772105497905 250.87414899421606 0.7862386922679727
2.0562894979852953 12.043677949336303 21.58427910663806 265.2883457076316 0.8103553697350704
2.0607302038791397 11.978815203867674 20.13259573364209 280.7208994282221 0.8358461466445771
2.0640297873918327 11.911905217596843 18.81274013806735 297.26208835105325 0.8628196258407613
2.066184867411349 11.842989581644568 17.61135731404804 315.01223249544233 0.891395932864748
2.0671709553450675 11.772084899425082 16.51669809305596 334.0806201460767 0.9217003364873171
