M[M_sun], R[km], Lambda[1], P_c[MeV/fm^3], rho_c[fm^-3]
0.24162668629717493 15.618656898711224 2160425.4255784233 3.5677272577965504 0.1711233750220791
0.25364348040106593 15.277283899009019 1723314.3637002842 3.7848112083564285 0.17388806838051157
0.2660385148499131 14.981315260720647 1383013.8579243347 4.011383832765081 0.17666644781153312
0.2788132506989205 14.723555520907974 1116461.6960509429 4.247701484240672 0.1794572041865729
0.29196680732171804 14.498490268417479 905964.9438367231 4.494389188367698 0.18226690086033417
0.3055028837971562 14.301232685363939 738644.3303891007 4.751601445476774 0.185091222467328
0.3194182714923804 14.128158640376842 605124.9152298449 5.020022365742641 0.18793682790156627
0.3337149376272718 13.975976780820439 497696.70073633594 5.299873465023822 0.19080029055168105
0.3483953956421458 13.842073974119403 411034.25806775445 5.591886304276427 0.19368796671920682
0.36345743459616675 13.724026497790106 340669.3704969396 5.896224442182425 0.19659485072665173
0.3789100030485779 13.620043381911112 283326.362505589 6.213753482800919 0.19952865543084508
0.3947416376437276 13.528494726073669 236421.1264889721 6.544733259160791 0.20248560227483414
0.4109651092936713 13.447932936922292 197888.03480585793 6.889861334470447 0.2054693208603162
0.42757178969415605 13.377107331673368 166104.9984774257 7.249844904341586 0.20848292363388563
0.4445659322398166 13.314966662520625 139818.4588327169 7.624946475885228 0.2115220139997861
0.4619473497549234 13.260634907258538 117998.55531006213 8.016107965941872 0.21459264463812483
0.47971027104423924 13.213188459133303 99830.71573642462 8.424037535452957 0.21769651511698654
0.4978665184483734 13.172012355058818 84655.02860551931 8.849180923283113 0.22083116421041585
0.5164029648925469 13.136432639021757 71946.92301984366 9.292401653405268 0.22399986206574948
0.5353206940861226 13.10586887905094 61284.36904176512 9.754588976163054 0.2272055943482003
0.5546270312348638 13.079817176688794 52307.65785569401 10.236552322035086 0.23044971174105228
0.5743069614944998 13.057860438547536 44736.62483919348 10.73876950369816 0.2337289961417059
0.5943608357952707 13.039553207849263 38332.2991800218 11.262471890540782 0.23704946895969023
0.6147981824488322 13.024539905824975 32906.176072683025 11.808603186302134 0.24041282595592323
0.6355984187082314 13.012441172637587 28299.002331595264 12.378142197306921 0.2438206997237301
0.6567683787113195 13.003035044162724 24374.920179944344 12.971787120853397 0.24727114549222567
0.6782984318342754 12.995994008646907 21031.28772381423 13.590846261233501 0.25076874297515983
0.7001872575469015 12.991068565068954 18039.762187970962 14.236525819262694 0.25431622885164307
0.7224194113147031 12.987994726770985 15733.068113401514 14.910015223130495 0.2579155872460438
0.745005319384235 12.986642641362549 13636.623252885382 15.612355216230998 0.2615668270868016
0.7679247243627649 12.986750318035956 11838.009100922352 16.344789655575703 0.26527162191054826
0.7911681516286755 12.988130088366532 10291.247837152374 17.108944860120904 0.269034769776713
0.8147409561945943 12.99065122256291 8958.264425967845 17.906275532858338 0.27285870258867406
0.8386214184243028 12.99412341260743 7809.045373688818 18.738158421977094 0.27674460550144886
0.862799966393424 12.998401920266858 6816.093058586455 19.605914774209754 0.2806927537804766
0.8872746467042985 13.003333638308026 5956.736494311175 20.51164098773596 0.28470960720187866
0.9120330296763888 13.00883306332289 5181.412188303464 21.457130726918248 0.2887981781929815
0.9370513215239483 13.014726450489905 4566.350990119343 22.443882529614868 0.29295850618579783
0.9623289334401348 13.02092915710027 4005.6252366790627 23.47389239256079 0.2971941570948838
0.9878524339651507 13.027317894412088 3517.4058658398644 24.549596024346993 0.30151134394410267
1.013592996434578 13.033777627747291 3092.6096689609094 25.67295247489532 0.30591182489506374
1.039554730084009 13.04023671318365 2722.1645560614716 26.84588865114998 0.3103966080564558
1.0657036250522773 13.04655592691686 2398.9221514784717 28.07151688617488 0.31497454986819956
1.092034377426848 13.052692146025883 2116.225225909591 29.351910870714505 0.3196462270329951
1.1185307606920956 13.058524370323278 1869.0646916887445 30.689787717988875 0.324416062801765
1.145160106979999 13.063987950942469 1652.5151643322033 32.0885865733305 0.3292923825817139
1.1719204364642808 13.069001255101757 1462.485972674938 33.55020398296837 0.33427259698213746
1.1987756716782167 13.073452053663317 1295.7920517307848 35.07920229971448 0.339370410486126
1.2257190031151617 13.07732872369584 1149.3470528395292 36.677629781013145 0.3445827398247632
1.2527140025922536 13.080487407169413 1020.4548417717575 38.350495939373694 0.34992376514390805
1.2797550350056546 13.082928255023038 906.9676746502238 40.100065508029616 0.35539022250458785
1.3067982434276288 13.084516937376971 806.9876927892963 41.93181148863982 0.3609966832760951
1.3338334287307123 13.085239434802718 718.7363965167177 43.849169210692764 0.3667448136978961
1.3608407094278643 13.085031731945175 640.8162547575077 45.85689735683875 0.3726427626881262
1.3877694311573188 13.083781750600624 571.9893604200136 47.960291970610086 0.3787002868288387
1.4146256802482866 13.081493460994784 510.97810854891776 50.16406448467166 0.38492281337530304
1.4413482133958924 13.0780425127075 457.0169161025997 52.47351712295804 0.39131774751524045
1.4679410670102884 13.07344923244193 409.1299646177183 54.895021924487885 0.3978965586830978
1.4943497613924646 13.067587614761285 366.64078144448706 57.43476586533155 0.4046683030523999
1.5205620927221557 13.060447414568328 328.93887406917446 60.09937377175348 0.4116427464858012
1.5465434089122785 13.051966753763185 295.380899985281 62.89594773360699 0.4188304229623738
1.572259647874701 13.042090998818557 265.543059574115 65.8321102909118 0.4262426977740857
1.5976829336437115 13.030769227377801 238.99549932736434 68.91605177660391 0.43389183604969916
1.622770824601101 13.017953494642503 215.30502978628004 72.15658224605052 0.44179107723266825
1.6475217513363656 13.003620147047014 194.16182309395202 75.56318847790979 0.4499547162153571
1.6718711496390506 12.987692694420813 175.28905651918873 79.14585695973915 0.45839719119015276
1.6958083534484898 12.970151059176624 158.4138213677504 82.91466880281514 0.4671313216200704
1.719273272520344 12.950911873499034 143.3277650221057 86.88240676807291 0.4761788666463185
1.74227592152235 12.930015970339392 129.82113174674046 91.06071009150087 0.48555442724710834
1.7647557384064954 12.907375623280734 117.71738398387541 95.46352836554144 0.4952793820335705
1.786683418428991 12.882947782566172 106.85826978876558 100.10466164098136 0.5053717895326438
1.8080226922185838 12.856699705865386 97.11704533074997 105.00055874110741 0.51585706745459
1.8287351203439424 12.828575308033217 88.35722753409169 110.16775188309698 0.5267577403892438
1.8488158398285082 12.798619268233677 80.48910493444858 115.62378699728626 0.5380968915316655
1.8682038640263179 12.766719146268919 73.40509478605995 121.38901204557753 0.5499043915487751
1.8868760114338283 12.732880801989866 67.0314820679137 127.48476410332094 0.5622097471691413
1.9048012825749854 12.697075759950643 61.277090989938806 133.93355275982555 0.5750425266186671
1.9219453241514275 12.659272523276199 56.09201780370088 140.7608769959613 0.5884384040468996
1.9382610583635607 12.619393998321314 51.40949431345057 147.99448767937332 0.602435941995251
1.953761131109154 12.577565261365141 47.1766685789147 155.66297428226542 0.6170712498574176
1.9683808000029637 12.533648341741912 43.352233525042216 163.79986115022993 0.6323915420732936
1.982100448440129 12.48766170247399 39.89250793322293 172.43879545118992 0.6484379996304119
1.9948939497405325 12.439597432991995 36.75701303207906 181.61925349617337 0.665264467503546
2.0067262108087696 12.389433142730057 33.91506713345141 191.38310862336616 0.6829249796790229
2.0175854343370934 12.337190504363033 31.337881295481182 201.77636546032397 0.7014787309727396
2.027425496939976 12.282819602294117 29.00014775140353 212.84905690892325 0.7209887352278342
2.036240675334224 12.226367940755166 26.877850550886386 224.656402279721 0.7415245180752159
2.043991654667914 12.167788384114058 24.950614088425038 237.25976044190276 0.7631639330603553
2.0506556994671294 12.10709867676138 23.194509211808164 250.72579814836786 0.7859890157472064
2.056229052255871 12.04434528511816 21.599693664378858 265.12757056206885 0.8100878821736226
2.0606874449748283 11.979533513255818 20.148068237032188 280.5469867567481 0.83556088938554
2.063999682983699 11.912651603554908 18.826578162642477 297.07340539988195 0.8625139256514422
2.066166696199947 11.843767863145626 17.623490442687167 314.8072640227587 0.8910678186541774
2.0671662586573434 11.772890974632798 16.528319619995955 333.8580141876339 0.9213487481575952
