M[M_sun], R[km], Lambda[1], P_c[MeV/fm^3], rho_c[fm^-3]
0.24162668629717493 15.618656898711224 2160425.4255784233 3.5677272577965504 0.1711233750220791
0.25364422040242396 15.277289026937547 1723214.9172244023 3.7848239383813174 0.17388822705413065
0.2660402436895668 14.981252048053395 1382904.4157779969 4.011410593827309 0.17666677120317686
0.2788158380407975 14.723476690346097 1116443.2340373 4.247743181718144 0.17945768781447483
0.2919705589621671 14.498383840728719 905842.392569494 4.4944469164436995 0.18226754367585843
0.30550606695073695 14.301226025091557 738623.8411115273 4.751677164297125 0.18509204037509935
0.3194218410912574 14.128124233014825 605090.1638140129 5.020116633079811 0.18793780596157325
0.3337210950613523 13.975917515391785 497705.02242473606 5.2999887626869535 0.19080145140783536
0.34840224502403805 13.842017150797734 411000.3963239 5.592022920143586 0.19368928851530332
0.3634657193866759 13.72395688559952 340618.2550226068 5.896385445525075 0.19659636290411783
0.3789189943293394 13.619983073592099 283310.0985761663 6.21394082199155 0.19953036373869257
0.3947507483569987 13.528461319178883 236404.24781886477 6.544946739701684 0.2024874742107797
0.4109764739618091 13.44786039026599 197863.39064814142 6.89010507759105 0.20547139667901407
0.4275855821635138 13.377037440849142 166080.64789241288 7.250121197295968 0.20848520933468942
0.44458013027025045 13.31493512822434 139803.59283202805 7.625254555036147 0.21152446650792164
0.46196185763826436 13.260562731652797 117981.79442236816 8.016453204919742 0.21459531534073237
0.4797269942625027 13.213140826983825 99805.06679690185 8.424422626373275 0.2176994104623601
0.49788397732782186 13.17197781450594 84640.4905072723 8.849604446262811 0.2208342306977463
0.5164225925602187 13.136398897982694 71935.65821994314 9.292870462353664 0.22400316250997301
0.5353416340407318 13.105842337781514 61275.58044363561 9.755106249716997 0.22720913587675945
0.5546490520389744 13.07980912056399 52298.58045695162 10.23712143197829 0.2304535017912635
0.5743305353861567 13.057839179182603 44728.68249783211 10.739387977252985 0.233732966933507
0.5943885106825458 13.039539407787165 38327.20916587482 11.2631490286305 0.23705369973072846
0.6148257296723545 13.024515427078832 32900.863147242686 11.809342989119989 0.24041732519138953
0.6356304708425496 13.012441191961498 28291.367180072513 12.378948914607445 0.24382547635672733
0.6568005333070968 13.003026167160293 24369.827587385127 12.972657048064045 0.24727611763943128
0.6783326273047179 12.99597551481458 21026.918142895986 13.591791751473117 0.25077400721150206
0.7002195727552611 12.991063001488914 18171.31945557117 14.237551942075678 0.2543217956179834
0.7224558170627728 12.988005672041167 15729.510152215578 14.911127373788196 0.2579214676057994
0.7450436449789006 12.986651956152706 13633.21903157332 15.613548285480947 0.26157292526541326
0.7679640469546959 12.986761150388968 11835.63139461785 16.3460797999917 0.2652780529568826
0.7912098281010235 12.988130511946526 10288.361611209131 17.110338554643963 0.2690415468412341
0.8147847547647181 12.990666600572752 8955.798716899835 17.907779681709 0.2728658396674187
0.8386669587209368 12.994133269761438 7807.0531186228145 18.739766353678938 0.27675199311565263
0.8628484994531682 12.99839479466833 6814.368341323934 19.607647395643834 0.28070052696014414
0.8873292003436388 13.003361224403667 5955.211160371867 20.513506637922788 0.284717782770271
0.9120850064164459 13.008843228354323 5211.00186535341 21.459138315912863 0.28880677410768474
0.937104965785117 13.014738500494701 4564.995769235864 22.446023694578464 0.29296739936606214
0.962388986318327 13.020953149856386 4004.2576355369724 23.476194003351594 0.2972035046201804
0.9879100395269114 13.02734142837312 3516.4430196746002 24.552068914348993 0.30152116756214464
1.013651861123941 13.033788999448065 3091.634756778534 25.675587071950034 0.3059219923124927
1.0396159426503555 13.040243998300525 2721.31552618608 26.848717163390937 0.3104072936663732
1.065767118468179 13.046574712516406 2398.2459260068736 28.07455255363551 0.31498578012214584
1.0921004967099772 13.052704218364669 2115.725607824774 29.35514293454463 0.31965786047828626
1.1185983403767978 13.058540153796637 1868.5498671390276 30.6932547652415 0.3244282930356077
1.1452290270302257 13.063994212957203 1652.0324621450736 32.09227728839832 0.3293050635151661
1.1719929684081607 13.069006871005081 1461.9985854796787 33.554161656841146 0.334285934751142
1.198848814586586 13.073466484266131 1295.4466179379249 35.083445611448454 0.3393844419676658
1.225794961039309 13.07733614325377 1149.0049281536403 36.682146416995344 0.34459730979328157
1.25279075837653 13.08049823585403 1020.1261463033192 38.35532285760779 0.3499390152678606
1.2798335254605204 13.082939045603169 906.6563968472138 40.10522010144673 0.355406169094582
1.3068768759444465 13.084526855513301 806.6970604421554 41.93730005647615 0.3610132760481787
1.3339143216279639 13.085233024141697 718.555335071046 43.85505328766821 0.36676230421768763
1.3609224703122818 13.085031920207376 640.5911865424605 45.86316461405038 0.37266098702075506
1.3878532668880883 13.083773774815262 571.7760765435761 47.966969176802664 0.37871929231311185
1.4147100225695746 13.081483134239624 510.77934135169687 50.171224855943194 0.3849428775246951
1.441433391327195 13.078029113548274 456.85234254093336 52.48114929262339 0.39133870259361464
1.4680277629729885 13.073432395976333 408.99207934723995 54.903159686204695 0.3979184640740949
1.4944373626954046 13.06756589571417 366.5083998135303 57.44344575005148 0.40469122273025654
1.5206493219569268 13.060421069583477 328.8184742415554 60.10863529279654 0.41166674939233144
1.546633034635071 13.051932754842067 295.2769801945884 62.905833656188456 0.41885558342130935
1.572349047000245 13.04205387001845 265.448717895336 65.8426669288468 0.42626909594678747
1.5977733481298486 13.030724276661141 238.90518123452202 68.92732931924172 0.4339195584367143
1.622859604971329 13.017903342024756 215.21482506526473 72.16863511887153 0.4418202172261536
1.6476125841900975 13.00356395606691 194.08577617796493 75.57607574063698 0.4499853747079786
1.6719605337156114 12.987630650533225 175.22234297590632 79.15957545572041 0.45842919628432727
1.6958971427489649 12.970079398554832 158.35007577299106 82.92935237350106 0.4671650644227412
1.7193790276596697 12.950869061992336 143.27138937096265 86.89813099824791 0.4762144742911964
1.7423598814688557 12.929922293017157 129.7709327169586 91.07748152634544 0.48559173751629425
1.764844856268382 12.90728112571123 117.67463952729679 95.4815085651045 0.49531883460619536
1.786770567142932 12.882844948353812 106.81196930142701 100.12386626097317 0.5054132322694173
1.8081090698402589 12.856588966081402 97.0820270112337 105.02108736416868 0.5159006600286903
1.8288190706126972 12.82845418831571 88.32506843719273 110.18971312961789 0.526803655513857
1.848897798412273 12.798490128835487 80.4570431692795 115.64738916470321 0.5381456454650672
1.8682758321242061 12.766549950353667 73.38380641367945 121.41429807546615 0.5499558646393321
1.886954436704186 12.732731122347644 67.00365074813492 127.51187595648283 0.5622641604421079
1.9048780176975824 12.69691481432358 61.25275336075432 133.96254611923277 0.5750997685124951
1.922019508766191 12.659098379237362 56.070391208449266 140.7920179956928 0.5884990785567003
1.9383333374830034 12.61921169490228 51.389142740665875 148.0279627995309 0.6025003330543652
1.953830178738466 12.577368432061958 47.15885447222486 155.69887808742135 0.6171392911622096
1.9684475459679014 12.533440531459984 43.33855627055917 163.83841120794102 0.6324635539014712
1.9821614962793301 12.48744032635729 39.8779973812386 172.48034669695983 0.6485147194626069
1.9949523685416612 12.439365550253246 36.74382952781956 181.66395655167437 0.6653458947389841
2.00678793960552 12.389206589756661 33.90108655127543 191.4312537721075 0.6830115307903295
2.0176355598079216 12.336933031412949 31.32586989388272 201.8282729180994 0.7015708615900424
2.027472119388379 12.282548148771852 28.989986362308162 212.90494940413106 0.7210865158042585
2.03628223995673 12.226084896213232 26.868579551366654 224.7167971225196 0.7416289119987906
2.0440272376009037 12.167491081031486 24.941087916074178 237.3249518499139 0.7632750903995991
2.050687721318588 12.106784852324969 23.18650269134026 250.79629429548305 0.7861076924641192
2.056260037376602 12.04404127424194 21.592605561678454 265.2039645774173 0.8102150062535611
2.0607080990505895 11.97919515296093 20.14106031908768 280.62960621022114 0.8356964045187452
2.0640138324797648 11.912297476975958 18.820046053815496 297.163041234196 0.8626591517640797
2.0661750126866982 11.843399197919304 17.617902647364254 314.90463598033426 0.8912236920066657
2.0671682743339965 11.772508716675427 16.522750665511804 333.96376445740185 0.9215157722614218
