M[M_sun], R[km], Lambda[1], P_c[MeV/fm^3], rho_c[fm^-3]
0.24162668629717493 15.618656898711224 2160425.4255784233 3.5677272577965504 0.1711233750220791
0.2536446688745912 15.277277170725336 1723168.1729822978 3.784832704912011 0.17388833632470663
0.2660403983300783 14.981273605230207 1382993.4604910107 4.011429022905078 0.1766669939077056
0.2788165246442277 14.72348303331778 1116384.5186734144 4.247771896910353 0.1794580208674316
0.2919723493917904 14.498385448009843 905888.2308381109 4.494486671344636 0.182267986355907
0.30550861997979156 14.301190090761228 738614.8792496551 4.751729308868499 0.1850926036359896
0.31942556148913703 14.128114913199147 605064.4175299907 5.020181551520765 0.18793847951545437
0.33372597069616927 13.975863807905446 497652.08963711135 5.300068164236054 0.1908022508496838
0.3484069581663097 13.841977380681291 410975.62969152204 5.592117003138095 0.19369019879415653
0.3634706345958943 13.723935591596051 340641.49446421413 5.896496323803084 0.19659740429636924
0.378925192947891 13.619954316811587 283277.94094775384 6.214069837464538 0.19953154020446146
0.3947578051009831 13.528411144978955 236387.85411017717 6.545093758509383 0.20248876336711052
0.4109843960522609 13.447834955322136 197835.43978985495 6.890272938092964 0.2054728262494883
0.4275919262951152 13.377036037072136 166060.76341277882 7.25031147482355 0.20848678345191116
0.4445896894582886 13.314883786878902 139788.73394948617 7.625466723765873 0.2115261555074343
0.46197235269860154 13.260527239275827 117967.8001518244 8.016690965801912 0.21459715461337736
0.47973830785045757 13.213117822052384 99808.47820859018 8.42468783360797 0.2177014044500121
0.49789667977695723 13.171948624960953 84631.29143067013 8.84989612205887 0.22083634255513326
0.5164360925485864 13.136370160230172 71928.84956655806 9.293193327222708 0.22400543549877938
0.5353560307251197 13.105815225965133 61266.140623645275 9.755462492977358 0.22721157490669042
0.5546641116695931 13.07979856338674 52298.31312871489 10.237513375989808 0.23045611198548235
0.5743480214370112 13.057816072312571 44320.6615338928 10.73981391905447 0.23373570161181279
0.5944062347150182 13.039516432152196 38323.08076903497 11.263615374181459 0.23705661346617
0.614844884279783 13.024485638430027 32896.19429535201 11.809852493636592 0.24042042382894
0.635650179000779 13.012420002383783 28287.281217231313 12.379504505208288 0.2438287660499014
0.6568220152238895 13.003004458528444 24366.119834223195 12.9732561733714 0.24727954199400523
0.678355258557977 12.995979832849637 21024.119531259497 13.592442919780066 0.2507776327421767
0.7002444465729235 12.99106172453229 18169.020145987193 14.238258645189243 0.25432562951686516
0.722480916680648 12.988000024172365 15612.06183704137 14.911893327885208 0.25792551749383896
0.7450697076411296 12.98663923918108 13631.257487449788 15.61436997165589 0.26157712518009363
0.7679913771710003 12.986752837416686 11833.677170672601 16.346968346395748 0.26528248213785166
0.7912388302179335 12.988145405188904 10286.80597702506 17.11129842116322 0.26904621434707915
0.814812935943243 12.990679297433342 8954.240587255 17.9088156239335 0.2728707551392005
0.8386979125498306 12.994143753841074 7805.974212626159 18.740873776622813 0.2767570811510837
0.8628800025156577 12.998413643782436 6812.687002947321 19.608840699594047 0.2807058805623913
0.887363573268104 13.003357227589476 5953.906095687397 20.5147915668185 0.2847234135279234
0.9121206181899373 13.008851440873434 5209.923575501802 21.460521007049458 0.28881269439072227
0.9371416423587744 13.014748951216886 4564.1191137024825 22.44749838789467 0.2929735244025346
0.9624271958076841 13.02095588505186 4003.6262586094635 23.477779206684794 0.29720994260192635
0.9879482917734991 13.027351369938298 3515.73393402375 24.55377208988504 0.30152793347001394
1.0136931505949325 13.033803264639763 3091.320470399266 25.67740162656411 0.30592899502821186
1.0396580200245413 13.040261975162013 2720.7451191317155 26.850665282229702 0.31041465330854917
1.065811509533289 13.046581429926377 2397.5353613944244 28.07664335673419 0.3149935149119587
1.0921440983761268 13.052713258494501 2115.096413677633 29.357369011272176 0.3196658729876874
1.1186443905338135 13.058549836958171 1867.8985810646147 30.695642694986663 0.3244367166125177
1.1452768591584004 13.064004801898564 1651.6360359808723 32.09481927694579 0.3293137975374394
1.1720418438647013 13.069013995849762 1461.6499698566438 33.556887524034224 0.33429512120463134
1.198898575321817 13.073471075973348 1295.0603275051183 35.086368224130666 0.3393941062554838
1.225845598417229 13.07733906672948 1148.736321323441 36.685257293370064 0.3446073449989131
1.2528418655985942 13.080504767710002 1019.7447884250315 38.35863462352932 0.34994944370125997
1.2798867447969449 13.08294347176596 906.4444979554087 40.10877040208902 0.35541715253869044
1.3069314354218005 13.084519026497254 806.5546885872657 41.94108039899429 0.3610247045963304
1.3339693301771742 13.085242672729168 718.3723187622074 43.85910605998329 0.36677435115294754
1.3609787078328477 13.085036322006658 640.427321792237 45.86748132357499 0.372673539425672
1.3879115978082304 13.083770877578306 571.631731675989 47.971568263193596 0.37873238279759786
1.4147615290243083 13.081462133680073 510.667789663836 50.17615675464037 0.384956697248351
1.4414919414486689 13.07802525027376 456.73548574433244 52.48640617370243 0.3913531360194746
1.4680882928425663 13.073421781382683 408.90030647400783 54.90876482881559 0.3979335521099406
1.4944976301550277 13.067551456044745 366.41563526486095 57.449424319097304 0.40470700944643945
1.5207106280050484 13.060402466941351 328.7344092777324 60.1150145077814 0.4116832822815087
1.5466943959197148 13.051911655516921 295.1964602700819 62.91264297691432 0.41887291368392165
1.5724107123596303 13.042027134345878 265.3802389376777 65.84993825983597 0.4262872788050427
1.5978249204359458 13.030689009683307 238.8406943192116 68.93509723498943 0.4339386534801626
1.6229224202660923 13.017867881670592 215.16176719711515 72.17693711229198 0.4418402887923088
1.6476748685538483 13.003526342138628 194.03502581758167 75.58495249736026 0.45000649230185913
1.6720239329691657 12.987590241653834 175.1798649684652 79.16902480044337 0.4584512414974584
1.695961033575553 12.970029707532868 158.31647442262744 82.93946650944096 0.4671883066776739
1.7194407276176091 12.950815187932896 143.23372473402455 86.90896199595983 0.47623900117206164
1.7424165839135741 12.929840408153098 129.74785982145573 91.08903389393856 0.4856174372819153
1.7649046346355746 12.907215060011099 117.64020360089518 95.49389360337408 0.4953460101456035
1.786832186911938 12.882775915027176 106.79450295222495 100.1370947543175 0.5054417787841524
1.808168604910246 12.856511595350359 97.05313696711634 105.03522791625828 0.5159306875206924
1.8288772998719574 12.828372009531193 88.30330749906548 110.2048405708767 0.5268352829695124
1.848956298357414 12.79839658335655 80.43494222800969 115.66364699800269 0.5381792285385169
1.8683309831360473 12.766454171263119 73.36133531094498 121.43171588330108 0.5499913209131696
1.8870091757197733 12.732628009527579 66.98789488009815 127.53048693676246 0.5623014113988122
1.904930590152974 12.696804861344063 61.23657734541624 133.98251783866283 0.575139198887814
1.922069865525217 12.658981347428956 56.05649184133966 140.8134692034532 0.5885408736668996
1.9383822942170617 12.619086745090316 51.374904719759186 148.0510219709463 0.602544688517848
1.9538775016301941 12.577235913761431 47.149556705726965 155.72361037020016 0.6171861613138119
1.968491321772081 12.533296847845506 43.32637063437794 163.86496649599775 0.632513159400251
1.982204276572594 12.487289492332769 39.86633211096857 172.50896953073283 0.6485675683956128
1.9949900730085126 12.439203686213096 36.731810867628624 181.69475070172973 0.6654019867102949
2.0018733526052723 12.395259126725389 34.63895757803468 192.8389266847619 1.502162243058891
