M[M_sun], R[km], Lambda[1], P_c[MeV/fm^3], rho_c[fm^-3]
0.24162668629717493 15.618656898711224 2160425.4255784233 3.5677272577965504 0.1711233750220791
0.25364401828287636 15.277280829801198 1723197.035652147 3.784819430750708 0.17388817086868966
0.2660398444042683 14.981250288272888 1382969.9690408409 4.011401117870241 0.17666665669182802
0.27881487282911427 14.72352790725407 1116453.823248797 4.247728416829842 0.17945751656402073
0.29196910826875294 14.49841998172127 905894.317463211 4.494426475163252 0.18226731605745647
0.30550434136032817 14.301247479598409 738660.2380786365 4.751650352526741 0.18509175075680817
0.31942045466810676 14.128145296391704 605099.3118396722 5.020083253297839 0.1879374596334519
0.3337192989179095 13.975939864949051 497673.65440414543 5.2999479360709465 0.19080104035155576
0.34839981753770066 13.842036602675927 411011.49366805487 5.59197454473982 0.19368882046996425
0.3634620545611041 13.724007184953606 340659.89414900524 5.896328434485383 0.19659582744436824
0.3789157278185765 13.620011193202112 283315.3797564726 6.213874485375709 0.19952975882863058
0.3947478091860189 13.528468252796188 236414.7895960593 6.544871146364418 0.20248681135933347
0.4109722643955639 13.44790615771986 197870.92242920285 6.890018768173929 0.20547066163179953
0.4275799056972751 13.377093891900534 166085.68420257283 7.250023361853005 0.20848439996714285
0.44457509671037077 13.314935580077929 139799.19497471332 7.6251454639561755 0.21152359807277973
0.46195642504539786 13.260584144731617 117979.30201885253 8.016330955351583 0.21459436964148812
0.4797202161218821 13.213166279251558 99812.5467240184 8.424286264999841 0.2176983852154616
0.4978773092415518 13.171993651377171 84643.98466591926 8.849454475854534 0.22083314484791294
0.5164153433286744 13.136414789259172 71939.91041326147 9.292704455867973 0.22400199381396446
0.5353342549866111 13.105847658689086 61277.4803997011 9.754923081547494 0.22720788181051446
0.5546406710424953 13.079806921701982 52300.47999459704 10.23691990812024 0.2304521597209836
0.5743229395178299 13.05784199740352 44731.715998227904 10.739168973319437 0.2337315608604147
0.5943787210918152 13.039529430428285 38329.67968541934 11.262909251043611 0.2370522015960265
0.6148155744199572 13.024506829061652 32903.696693981954 11.809081021338608 0.24041573199019514
0.6356194548182015 13.012454479928811 28292.25371377375 12.37866325171396 0.24382378492553797
0.656789873934379 13.003015256245234 24371.60711352688 12.972349001870962 0.24727435697371192
0.6783203267056235 12.99598023567772 21028.553548570693 13.59145694755077 0.25077214311296175
0.70020887837549 12.991059108144391 18173.26668890803 14.237188585195856 0.2543198243891768
0.7224428634328303 12.987992601408092 15730.45433189196 14.91073355337319 0.2579193853288136
0.7450294713144248 12.986644079590905 13634.482765088109 15.613125810770933 0.2615707658549342
0.7679506936592201 12.986760912306893 11837.052596122783 16.345622949655073 0.2652757756725366
0.7911946944297432 12.988133525217107 10290.331927244742 17.10984503575975 0.26903914702601966
0.8147675918504961 12.990673856123095 8956.938268329835 17.907247049334824 0.27286331236488826
0.838650701055437 12.994131346710397 7807.766212614811 18.73919697027986 0.27674937709354075
0.8628309188519915 12.998407897763999 6814.86348249432 19.607033857666448 0.28069777440217775
0.8873104896840288 13.003350716461988 5955.6692893220325 20.512845992316223 0.28471488771878833
0.912066048420037 13.008844852158823 5211.30904108332 21.458427407403658 0.2888037302033182
0.9370843150880207 13.014736875099862 4565.349644631271 22.445265484596455 0.2929642501934562
0.9623647033160628 13.020930662062533 4004.626769771186 23.47537897666098 0.2972001945546218
0.9878894368041886 13.02733258716378 3516.7139900736806 24.551193234559715 0.30151768890204655
1.0136312915071748 13.03378561080996 3091.9933161843283 25.674654128757382 0.3059183919050375
1.0395946405479557 13.040237443977594 2721.6216434531275 26.847715551088104 0.310403509755453
1.0657451727226994 13.046567065843481 2398.465999060058 28.073477583551046 0.31498180334037057
1.0920764002026395 13.052699952222515 2115.9178795456414 29.353998416631807 0.3196537409165377
1.118574233978045 13.058535112218122 1868.7217226123798 30.69202703477877 0.32442396213684543
1.145204393975276 13.063988340860359 1652.2104415902893 32.09097035251772 0.3293005730122084
1.171967231407808 13.069001816568445 1462.1669102990395 33.55276018496917 0.33428121164643565
1.198822715907429 13.073461494048297 1295.5409680636058 35.081942988744885 0.33937947320174705
1.225768948994499 13.077324718150116 1144.024180513465 36.6805470040406 0.34459215033467333
1.2527632578962975 13.080497055597421 1020.2387701472892 38.3536201634251 0.3499336536471107
1.2798053199953596 13.082937795701552 906.7561350845223 40.103394772664174 0.3554005221371317
1.3068482359367841 13.08451814567227 806.7931487554685 41.93535645930485 0.36100740025947614
1.3338859091852495 13.085231177432787 718.6303423700911 43.852969630640196 0.36675611051141227
1.360893466827931 13.085032609944522 640.6780327149878 45.860945263211306 0.37265453344999105
1.3878237165088994 13.083776298564587 571.8353597674819 47.964604652435234 0.3787125621134771
1.4146808366165065 13.081487202497556 510.84887698021487 50.16868922965164 0.38493577242039434
1.4414034702607643 13.078034784819247 456.90707972644014 52.47844658973117 0.3913312819840879
1.467997860316413 13.07343951855593 409.0488441512791 54.90027793916061 0.3979107069293232
1.494406385611178 13.067573292532934 366.55781371643985 57.440372021902974 0.4046831063944692
1.5206177386056594 13.060431836993933 328.8550207551293 60.10535559039534 0.411658249450495
1.5466014647657333 13.051945270958592 295.31195654726827 62.90233283473481 0.41884667355238214
1.5723174588763482 13.042065401313963 265.479103550509 65.83892858680989 0.42625974776232606
1.5977413718608582 13.030740327054156 238.93641700672185 68.9233356825719 0.4339097413032381
1.6228293526550552 13.017921455381032 215.25401365699705 72.16436691329132 0.44180989806949705
1.6475797867263136 13.003586380322295 194.1108344114501 75.57151205064493 0.4499745177976393
1.6719298288019542 12.987651635939324 175.2476619821454 79.15471739935931 0.4584178624944166
1.6958667441677688 12.97010641681149 158.37523174372356 82.92415255171133 0.4671531152474127
1.71934687844905 12.950896209889807 143.28798642591417 86.89256264312452 0.4762018647065248
1.7423329377589603 12.929958058512675 129.78694208610364 91.07154232012483 0.4855785249685966
1.7648127568155816 12.907314810058143 117.68906527294207 95.47514129192346 0.4953048633870932
1.7867394245064774 12.882881163896169 106.82980079463364 100.11706537662401 0.5053985562560398
1.8080784482071621 12.856628511813543 97.091822049326 105.0138176018644 0.5158852226731991
1.8287891369626164 12.828496732484837 88.33686529226041 110.18193602178314 0.5267873956501457
1.848869510303412 12.798535621493038 80.47015359986796 115.63903094280691 0.5381283802628299
1.8682566417475468 12.766629508518946 73.38643125363852 121.40534353201663 0.549937636470343
1.8869261694326658 12.732784752868751 67.01281962590615 127.50227481605499 0.5622448910298782
1.9048504727515567 12.696972525983497 61.261313730537985 133.9522786621395 0.5750794973641759
1.9219932394184556 12.659159053173898 56.07899877083136 140.78098996970803 0.5884775917683356
1.9383084653711464 12.619288458675484 51.396616920061184 148.01610816211794 0.6024775300694963
1.9538061570718455 12.577436568872713 47.165433713292245 155.6861633487164 0.6171151954596005
1.9684233208440856 12.533514096654061 43.342066286535484 163.82475931550448 0.6324380520529447
1.982140037917903 12.4875185020273 39.88253426375622 172.4656319476731 0.6484875502869263
1.9949294223905945 12.439448764442595 36.74746221246542 181.64812560240478 0.6653170584453809
2.006767605440825 12.389292920164923 33.90614619925699 191.41420381668726 0.682980879880987
2.0176172719421874 12.337024626673442 31.330623467523434 201.8098905492009 0.7015382346985188
2.0274557492153713 12.28264441517304 28.99341697508108 212.88515574120353 0.721051887975184
2.0362683127212393 12.22618466484882 26.8724846912477 224.69540895349968 0.7415919420394596
2.044015916081016 12.167596138073357 24.944606600499803 237.3018649749424 0.7632357251569761
2.0506764173175966 12.106896404940592 23.18964610013917 250.7713419142471 0.7860657071106236
2.056252178900725 12.04415602631668 21.59494181678329 265.1769102704627 0.8101699863149666
2.060700490199076 11.979313613769397 20.14315234669343 280.60034714213555 0.8356484128370963
2.0640090070276087 11.912424045343135 18.82261988532848 297.131297277596 0.8626077208664702
2.0661717006473905 11.84352986865372 17.619532083965126 314.87015222457586 0.8911684902961293
2.0671691018026235 11.77264496136468 16.524632248966586 333.9263134596552 0.9214566214020455
