M[M_sun], R[km], Lambda[1], P_c[MeV/fm^3], rho_c[fm^-3]
0.24162668629717493 15.618656898711224 2160425.4255784233 3.5677272577965504 0.1711233750220791
0.25363902762269774 15.277444817963353 1723306.9907737053 3.7847488994698493 0.17388729173029918
0.26603135938155115 14.98146700289386 1383127.8015024422 4.011252848846944 0.17666486494818387
0.27880299582233303 14.72373006644977 1116576.1296986158 4.247497395750926 0.17945483706764667
0.2919524953066152 14.498666445209665 906193.9326971471 4.494106641782817 0.18226375463853586
0.30548321724397764 14.301515198958276 738900.3140926963 4.751230849254793 0.1850872193208371
0.319394142527386 14.128445765305269 605278.6966672646 5.019560991999939 0.18793204097091185
0.33368670567435355 13.976297059226582 497898.5757358061 5.2993091696939105 0.1907946090340441
0.34836229079068143 13.842345306957851 411205.683533753 5.591217680533674 0.19368149760056363
0.363417457140377 13.724341628069253 340838.77203089936 5.895436471626413 0.1965874499404373
0.37886457533523277 13.620347305807092 283471.7724504363 6.212836632939963 0.19952029486407225
0.3946912617630864 13.52877571364289 236552.31674526478 6.543688483989351 0.20247644100800274
0.41090969814632616 13.448187135629462 198006.22435874536 6.888668468880026 0.20545916191638156
0.42751133858670104 13.377347277814104 166217.68967105626 7.248492758359725 0.20847173767670302
0.44449874697109776 13.31520461646958 139915.05256121847 7.623438788607603 0.21151001183961646
0.4618731739241297 13.260817773660817 118077.76273311328 8.014418445309701 0.21457957483011622
0.4796301366991298 13.21337508611003 99908.58948060642 8.422153011348422 0.21768234613023682
0.4977791472500325 13.172189329345786 84717.6926370298 8.84710834580035 0.2208161578638964
0.5163081201193847 13.136604000095474 72011.6401583936 9.290107489202557 0.22398371100673792
0.5352184215423705 13.106031839052664 61338.07112414642 9.752057675645254 0.22718826372496
0.5545162625046994 13.07996621988438 52358.47076402972 10.233767390990032 0.23043116518669732
0.5741874227718262 13.057971740161475 44777.3245767766 10.735743043422495 0.23370956532925607
0.5942390615927384 13.039666057623409 38369.43847603501 11.259158398175044 0.23702876619942714
0.6146644719328364 13.024626694722484 32940.55125066327 11.804983094328936 0.24039080975673607
0.6354569452207909 13.012513984365974 28095.741176046 12.374194717739734 0.24379732640429808
0.6566190636267514 13.003089866269873 24401.589748962055 12.967530380679914 0.2472468157109525
0.6781410516746674 12.996031728544777 21054.18777726829 13.58621982909162 0.2507429842404892
0.7000193681142217 12.991100682743346 18196.578895508144 14.231504898066275 0.2542889901091063
0.722242810322865 12.988016096641179 15751.148565301086 14.904573422912925 0.2578868143969914
0.7448202109278146 12.986658714235041 13653.161796815679 15.606517534544519 0.2615369887303077
0.7677288462510755 12.98674938858341 11851.886052380542 16.33847705962098 0.26524015520296773
0.7909635172515687 12.98811052818218 10234.746050514368 17.102125680169014 0.269001610413775
0.8145282912274621 12.990631072812446 8970.307514252594 17.89891600001079 0.2728237821315443
0.838396759308414 12.994102130599051 7818.417368684891 18.730291173985865 0.27670845956755263
0.8625679775806765 12.998351551266193 6824.844311788099 19.597437547989422 0.28065472181273277
0.8870315690315108 13.003284985503392 5964.830721244755 20.50251299835412 0.2846696069370903
0.9117794204497505 13.008784570888684 5219.184939175775 21.447308397250563 0.2887561218217633
0.936788643710887 13.014666897384327 4572.434135990053 22.433406768115873 0.29291499583652514
0.9620552030057189 13.020866647627232 4011.200127196503 23.4626317779475 0.2971484243930846
0.9875700169710818 13.027255454244633 3522.3748203980554 24.53749757515754 0.3014632825488765
1.013306153725246 13.033715073281048 3097.3165929860666 25.660063012189124 0.3058620819761102
1.0392517745265768 13.040161663470446 2726.0870908309325 26.83205065213573 0.31034433058798216
1.0653962922714295 13.04649280394476 2402.3719453098192 28.05666560235838 0.31491960851152917
1.0917137930848493 13.052615545156636 2119.4055637957654 29.336098924373275 0.31958931373475125
1.1182013701717322 13.058458040659456 1871.9078301063182 30.67282639850702 0.32435623064822666
1.1448216052090834 13.063913352873055 1654.9436326377547 32.070480275280126 0.3292300165943697
1.1715739503908758 13.068938334387438 1464.7485534427847 33.53084289571016 0.3342073481218657
1.1984240423765258 13.073411411356478 1297.84504369349 35.058444134560254 0.33930176886151225
1.225356174964726 13.077272797542616 1151.2112616048903 36.65553475837255 0.34451146470196065
1.2523424287947742 13.080447699002006 1022.106036675065 38.32680994521536 0.3498487331069006
1.279373747390691 13.082899231342873 908.4775299035266 40.074850267242965 0.3553122149734616
1.3064090427515467 13.084505031078706 808.3518686013108 41.904962813428575 0.36091551566337504
1.333435886239691 13.08523195648176 719.9816016665162 43.82038620927454 0.3666592557322089
1.360436538379464 13.085046624020963 641.9786911447997 45.82624031798543 0.3725536161835847
1.387360831758398 13.08380463267269 572.9465118827442 47.92763000390305 0.37860732032807826
1.414210017429311 13.081537814419974 511.86052305413244 50.129039599984715 0.3848246697885881
1.4409342420370725 13.07812156383321 457.80151023902204 52.43618490014198 0.3912152472185627
1.4675150159017556 13.073532742017449 409.84925360923194 54.85521713300514 0.3977894113431619
1.49391873759565 13.067694745608337 367.305119122794 57.39230989431404 0.4045561958977304
1.5201269817663488 13.060578404475288 329.53325551652676 60.05407343238115 0.41152534246472455
1.546106613433408 13.052121817712571 295.9218648834539 62.84759394201926 0.41870735871848613
1.5718192772351696 13.04227281715329 266.02778652578144 65.78047661835602 0.42611358141964145
1.5972359708813482 13.030970461147026 239.42344781426243 68.86089285190054 0.4337562447150374
1.6223280287813489 13.018196929943786 215.70237141902214 72.09763199362456 0.4416485543671937
1.6470791375018026 13.003891376929703 194.5197542428426 75.50015817256198 0.4498047686126467
1.6714333311610003 12.988001821181768 175.6212674922555 79.07867270931891 0.45824028643237463
1.6953686461208795 12.970495247562056 158.72144900430763 82.84285493981484 0.46696629357205166
1.718832869225603 12.951290419071075 143.60270530354993 86.80550449930816 0.4760047208442024
1.7418484858594236 12.930453740096475 130.07203827756217 90.97868739975176 0.4853719569494341
1.764328128598418 12.907846421000814 117.9451757643677 95.37559552541691 0.49508643774788824
1.7862575882344902 12.883450061601923 107.0665803343935 100.01074210007391 0.5051691152379495
1.807600601827243 12.85723935970432 97.30089842993732 104.90016572491297 0.5156438826742692
1.828331412163426 12.829190237939514 88.53258419789704 110.05995870111308 0.5265317277382152
1.8484091320414169 12.799253573170793 80.64415428377413 115.50836707031911 0.5378584737909062
1.8678081648348615 12.767407592691383 73.54822079022104 121.26535970568777 0.5496526806982869
1.8864889441495662 12.733620935063195 67.15629037644408 127.35218549900772 0.5619436629681479
1.9044248270560171 12.697862564147272 61.393692339751 133.79177567795114 0.5747626146376538
1.921564095289921 12.660055043044343 56.20252289948749 140.60860077671578 0.5881417120640898
1.9379182694246253 12.62032117257402 51.509951852027214 147.83080095294804 0.6021210824330495
1.953421728320153 12.578503370105423 47.26809335990914 155.4874148289866 0.6167385471197052
1.9680616742875132 12.534661744195247 43.43903078092722 163.610878237698 0.6320377807575933
1.9817995344635284 12.4887346846024 39.96766068255382 172.23562953356395 0.6480628759772175
1.9946072181150438 12.440728235347834 36.825991076643234 181.4006809948384 0.664866334661685
2.0064637136383796 12.390633247752314 33.980422025751 191.1477110237025 0.682501802590938
2.0173467120602826 12.338470790451016 31.39859419596637 201.52257803038455 0.7010282833186627
2.0272021025180877 12.284146913103958 29.054579268094173 212.57578443731725 0.720510651064115
2.036027854560558 12.227726625135308 26.92771522922146 224.36113070099802 0.7410141341219739
2.04381335920403 12.169252666094735 24.994216610883495 236.94104530770662 0.7626204944788799
2.050505015105777 12.108631622750432 23.238109181121978 250.38064694201307 0.7854071688308917
2.056103080473155 12.045943071186294 21.638590552238874 264.7541047831077 0.8094664134195269
2.060588833333839 11.981200424971622 20.184280055520556 280.1425609814882 0.8348966671052978
2.0639352747235393 11.914409400269513 18.859554214628528 296.6352259410342 0.8618039964146249
2.0661254891641363 11.845577391777114 17.65341840881483 314.33127965802 0.8903058613051499
2.0671544912679907 11.774777888289062 16.555616162989153 333.3410875949891 0.9205323038963176
