M[M_sun], R[km], Lambda[1], P_c[MeV/fm^3], rho_c[fm^-3]
0.24162668629717493 15.618656898711224 2160425.4255784233 3.5677272577965504 0.1711233750220791
0.25363894367029305 15.277423895775097 1723348.9718193554 3.784748448729782 0.17388728611204168
0.26603167891720564 14.981428622978669 1383256.5407523264 4.011251901325511 0.17666485349794653
0.278802886314621 14.72373467175386 1116695.118310904 4.247495919416849 0.17945481994439616
0.29195246173619643 14.498687776154949 906127.2770748963 4.494104597921696 0.18226373187966793
0.3054830033770509 14.301501531400238 738873.107463685 4.751228168497906 0.1850871903635464
0.31939460329604363 14.128443444089894 605286.0909627444 5.019557654627258 0.18793200634438215
0.3336871395357504 13.976244905580726 497898.76977190253 5.299305087876864 0.1907945679369194
0.3483615802200534 13.842353204955106 411197.3321190902 5.59121284410887 0.1936814508068232
0.36341832750029707 13.724318496136314 340847.35338784877 5.8954307719790044 0.19658739640814268
0.378864209012867 13.620350708458718 283466.68213891925 6.212830001137031 0.19952023439001473
0.39469050482139384 13.52876905825595 236546.93773246073 6.543680926944137 0.20247637474292526
0.4109093490252189 13.448188778230493 198006.65218545645 6.888659840760205 0.2054590884356925
0.4275097251119557 13.377354389260743 166222.10917466535 7.2484829782496 0.20847165676835838
0.4444980887991356 13.31519757333047 139914.33102920133 7.623427883563913 0.21150992502845675
0.46187168783751364 13.260812516840595 118074.95784787607 8.014406225196735 0.21457948029766288
0.4796287734483062 13.213391896324206 99904.5130013519 8.422139380935299 0.2176822436485851
0.4977782754418404 13.172193441822365 84719.79918613749 8.847093355365503 0.2208160493267432
0.5163073989549936 13.136599900513296 72011.58355494551 9.290090896252199 0.22398359419133296
0.5352172973221854 13.1060159293276 61336.15412139959 9.752039367746757 0.22718813837939597
0.5545171962251128 13.079961319407545 52360.22844074721 10.233747248882084 0.23043103104811585
0.574186629348181 13.057985200834624 44777.619213367376 10.735721154632937 0.2337094247964468
0.5942389008638216 13.039658213240227 38035.44306457032 11.259134433669942 0.23702861646876558
0.6146622146110509 13.02462385715862 32939.508855735934 11.804956912630022 0.24039065052832348
0.6354560487072893 13.012526070726691 28327.393341751456 12.374166168546411 0.24379715736240598
0.656617772578967 13.003089871363455 24402.17515005959 12.96749959508844 0.24724663975313585
0.6781409703225999 12.9960239705829 21054.535424808248 13.586186370141654 0.25074279795001997
0.700017305222119 12.991102746403298 18196.029478571272 14.231468586476522 0.25428879311695973
0.7222413370506838 12.988028094965577 15751.793892913834 14.90453406788787 0.25788660631213894
0.7448186576299823 12.986660472181143 13653.098466926935 15.606475316852592 0.26153677294147065
0.7677274655658071 12.986746525998896 11851.993289671693 16.338431407831138 0.26523992764024523
0.7909621978795308 12.988127123226642 10234.989516002337 17.10207636532134 0.2690013706123702
0.8145255191144473 12.99063463948473 8970.1264285405 17.89886277797225 0.27282352959677697
0.8383950266894101 12.994098747185973 7818.541247544277 18.73023428075552 0.2767081981725965
0.8625662912882349 12.99835123788588 6824.908294231099 19.59737624421479 0.28065444678135826
0.8870294450104207 13.00328891007704 5928.550171478517 20.502446989189398 0.28466931767469567
0.9117786272399053 13.008775818227926 5219.349318949165 21.447237367668446 0.28875581769366193
0.9367877891387018 13.014667643808835 4572.646037203509 22.433331013897707 0.2929146811966308
0.9620545925146414 13.020856891923161 4011.311382250172 23.462550348983257 0.2971480936858659
0.9875680914344164 13.027255813182325 3522.355743503716 24.537410088447725 0.30146293500571025
1.0133040614089526 13.033718475937718 3097.372881151225 25.659969806246732 0.30586172227642805
1.0392495168668938 13.040168088142329 2726.1292857597696 26.83195058819943 0.3103439525644493
1.0653940821111596 13.046494970053804 2402.3982130748464 28.05655821238291 0.3149192112293132
1.0917106361070945 13.052618642199203 2119.351774502841 29.335984588793774 0.3195889021968674
1.118198729885035 13.058457322245317 1871.9219437988386 30.67270375316027 0.32435579800881875
1.1448193013120516 13.063914393656189 1654.966759157348 32.07034874518636 0.32922956171213896
1.1715715985949025 13.068937578882775 1464.754749988785 33.53070290065193 0.33420687632408536
1.1984218313192907 13.073407662359715 1297.8493864223785 35.05829403924176 0.3393012725369849
1.225353188393323 13.077277857098132 1151.238967421451 36.65537499812171 0.3445109493401218
1.2523391774457182 13.080445506429324 1022.1375863738938 38.32663868321819 0.34984819058643796
1.27937116711642 13.08290373397596 908.4725681830722 40.07466794968744 0.3553116509438532
1.3064062081407042 13.084502605572625 808.3623688322094 41.904768687230536 0.3609149287904684
1.3334339630670995 13.085229252394017 720.0142783430133 43.82017809959924 0.36665863712262753
1.360433469419254 13.085046794802876 641.9718364931139 45.82601866061627 0.37255297163406503
1.3873578031151612 13.083806441504267 572.9568198095882 47.9273938527875 0.37860664816577216
1.4142074828893263 13.081532822601433 511.8685776627881 50.128786367711236 0.38482396020385107
1.44093058341551 13.078122522397264 457.81683614818587 52.43591498843456 0.3912145061421413
1.4675123565128154 13.073534036381536 409.8622653849454 54.854929347663685 0.39778863667677977
1.4939167026117974 13.06769130057615 367.3104743090177 57.3920029444536 0.40455538538098434
1.5201237935020282 13.060580011114753 329.5270359908984 60.05374592177853 0.41152449366177457
1.5461033100742232 13.052123272971784 295.9232187767866 62.847244359599614 0.4187064690034351
1.5718165658232524 13.042273645445789 266.0391490412545 65.7801033277185 0.42611264796044945
1.597232643977506 13.030971842069958 239.4280581829015 68.86049407977798 0.4337552644558207
1.6223239468803297 13.018198640676415 215.7021942616228 72.09720581715631 0.4416475240087312
1.647075907416608 13.003893339891189 194.52100163331872 75.49970250524184 0.4498036845908906
1.671430452734978 12.9880017244388 175.61962510125244 79.07818528546828 0.45823914489475087
1.6953642669721458 12.970499594375314 158.72241550254566 82.84233578531352 0.46696510055651963
1.7188294099161778 12.951294341280114 143.60159028937048 86.80494856720091 0.47600346193150334
1.7418453817232158 12.930458395733515 130.076248255894 90.97809445854253 0.4853706378734974
1.764325405919975 12.907849363008491 117.94593740140158 95.37495986862656 0.4950850429749549
1.7862538008258506 12.883454029371583 107.06726359021339 100.0100631743887 0.5051676501457751
1.8075981801872356 12.857243732753073 97.30312761579299 104.89944001293343 0.5156423416233594
1.8283275958949423 12.829195315992733 88.5313361420666 110.05917929924384 0.5265300932090136
1.8484073574771982 12.799256314758969 80.6471675005096 115.50753275690381 0.5378567503872896
1.8678052334210735 12.767412240347014 73.54698834344956 121.26446589666627 0.5496508612306635
1.8864861099737333 12.733625965621233 67.1579456449901 127.35122718110166 0.561941739631757
1.9044221348723223 12.697868482121011 61.39488142614992 133.79075088400523 0.5747605913762089
1.9215614570243644 12.660061152233679 56.20308743153539 140.6075001097177 0.5881395675462151
1.9379157742012019 12.620327491636571 51.50958932554056 147.82961782844237 0.6021188066341987
1.9534203935319685 12.578506751078212 47.27080662468879 155.48614590716113 0.6167361423858251
1.968059347414111 12.534668037060896 43.43577841547579 163.60951185352337 0.6320352222933671
1.9817970033406025 12.488742281187626 39.96904910811917 172.23416112356395 0.6480601647187051
1.9946051704764494 12.440736842182679 36.82748599035272 181.39910125744515 0.6648634571481189
2.006461761480276 12.390641551086938 33.98025856272473 191.14600971144733 0.6824987441214927
2.0173452800024507 12.338479074148863 31.398948615303965 201.52074383982267 0.7010250278113435
2.0272004550698264 12.284156235032919 29.055671058265848 212.57380488464565 0.720507180897334
2.0360261017639525 12.227736685100407 26.928211848182766 224.35899676952982 0.7410104455706295
2.043812969172939 12.16926275921663 24.994041135527475 236.93874199136212 0.7626165671129264
2.0505035332483184 12.10864293298541 23.23790600464823 250.37815262621294 0.7854029639782651
2.0561022131336264 12.045954615959374 21.638909056861703 264.75140589877026 0.8094619223191875
2.0605879580870807 11.981212405337851 20.184194058623042 280.13963702942715 0.8348918625951005
2.0639346174749313 11.91441933893076 18.85949027329125 296.6320595262831 0.8617988662553665
2.066124985577757 11.84559070736673 17.653408106237595 314.327840130425 0.8903003552979734
2.0671544622953184 11.77479139195443 16.55603585431756 333.33735229530055 0.9205264042888331
