M[M_sun], R[km], Lambda[1], P_c[MeV/fm^3], rho_c[fm^-3]
0.24162668629717493 15.618656898711224 2160425.4255784233 3.5677272577965504 0.1711233750220791
0.2536439904186324 15.277298673775654 1723259.014116362 3.784819805196004 0.17388817553596964
0.2660399875614386 14.981275658860692 1382933.718765486 4.011401905029873 0.1766666662041876
0.27881485835115416 14.723523516354739 1116478.2614309678 4.2477296433355445 0.17945753078963858
0.2919693848706714 14.498404013597963 905914.3499202064 4.494428173200396 0.18226733496549416
0.30550448968771216 14.301244826134017 738658.7019761666 4.751652579752602 0.1850917748150982
0.31942118411166975 14.128141630757797 605106.3222552813 5.020086026119646 0.18793748840254834
0.333719724214164 13.975932522383394 497667.8735270784 5.299951327490629 0.1908010744975246
0.3484000189559457 13.842034896103868 411010.4666819862 5.59197856322585 0.19368885934992205
0.36346325823025843 13.72397663131554 340654.4023126202 5.8963331703198545 0.1965958719243278
0.3789159193050408 13.620009877652802 283306.4019220768 6.213879995870086 0.19952980907770423
0.3947484329101299 13.528458004793675 236414.66274507524 6.5448774257983064 0.20248686642148556
0.41097264261998445 13.447880223703738 197869.3529985656 6.890025937772822 0.2054707226911123
0.42758074396053847 13.377063909156805 166087.1368904885 7.250031488896707 0.20848446720009264
0.4445757453934195 13.314926311375823 139804.12699461274 7.625154525983277 0.21152367021234234
0.4619568586106384 13.260574316998705 117980.6073705722 8.016341110427117 0.21459444819920742
0.47972140372607014 13.213156004612387 99810.6381279055 8.42429759231282 0.2176984703810199
0.49787794797595164 13.171991590805787 84643.71943145813 8.849466933640164 0.22083323504760372
0.5164161151257244 13.136413545725159 71938.58896031365 9.292718245734086 0.2240020908954816
0.5353345583997323 13.105849831852671 61279.062762770234 9.754938296994439 0.22720798598351827
0.5546407827267927 13.079832082868183 52300.33817897104 10.236936648329932 0.23045227120424977
0.5743236652640448 13.057841597511409 44730.80344713072 10.739187165556029 0.23373167766020886
0.5943781938135883 13.039537125014666 37995.137711412906 11.262929168894805 0.2370523260431212
0.6148169558766864 13.024505054652431 32901.80591602071 11.809102782471417 0.24041586433419027
0.6356206715124134 13.012462204303954 28293.913207086418 12.378686981136356 0.24382392542920875
0.6567907207207265 13.00301564509813 24371.29464661694 12.972374590613565 0.24727450322847147
0.6783213572376708 12.995979765369558 21028.226357880878 13.59148475898317 0.25077229795956624
0.7002096687144654 12.991066547186856 18172.977401000662 14.23721876844073 0.2543199881347533
0.7224446209063703 12.987988751481785 15730.46256220292 14.910766267134814 0.25791955829880286
0.7450318772740361 12.986651691506228 13634.839995893517 15.613160904760573 0.2615709452321305
0.7679518220067493 12.986759358738892 11837.054379175592 16.3456608991234 0.2652759648411181
0.791195535006083 12.98813745999278 10289.291220361842 17.109886031170372 0.2690393463728193
0.814768875322514 12.990667114860088 8956.497580313566 17.907291293778904 0.27286352230161176
0.8386518529294213 12.994126822589068 7807.868308902873 18.739244267514888 0.27674959439986346
0.8628324253276838 12.998403202837842 6814.90567524766 19.607084822677 0.28069800305003817
0.887311883528084 13.003353147360516 5955.702512517295 20.512900870399466 0.28471512820305805
0.9120678349426328 13.008846495925743 5211.348133333805 21.458486460654267 0.28880398305223626
0.9370877343259268 13.014737098211214 4565.435684124742 22.4453284670189 0.2929645117865823
0.96236633699661 13.020939706720704 4004.5784026998163 23.47544667864627 0.2972004695125003
0.9878910415807007 13.027334626840014 3516.65230263806 24.5512659747792 0.30151797786440715
1.0136314424902435 13.033794730665944 3091.999968081286 25.674731625642018 0.30591869098044033
1.0395962964007497 13.040238049511414 2721.588396067577 26.84779875205976 0.31040382407374195
1.0657468885530392 13.046566005834524 2398.3975179266927 28.073566878075138 0.31498213367964345
1.0920783816762087 13.052696788251717 2115.9052353763373 29.354093488231282 0.31965408311592153
1.11857609442994 13.05853295581076 1868.6846348074662 30.692129018518507 0.32442432189109577
1.1452069489032757 13.063995315660623 1652.2269891567792 32.091078915542525 0.32930094602406856
1.1719708326631577 13.068999247546271 1462.1324789910489 33.55287660071604 0.33428160397950557
1.198824919529595 13.073462252168163 1295.5562864612034 35.082067806674544 0.3393798859408022
1.225770702664293 13.077328196111473 1149.1533395167603 36.68067986193976 0.34459257891369005
1.25276549714173 13.080493220071771 1020.2369162070518 38.35376160046653 0.34993409901879513
1.2798072063479715 13.082936377101838 906.7614671299988 40.10354639643261 0.355400991210417
1.3068517328020832 13.084522543113817 806.7873447254393 41.935517907120534 0.3610078883406822
1.3338876028769782 13.085231759399932 715.6795697559057 43.853142712604374 0.36675662500052125
1.3608950525925205 13.085034232713856 640.6650833536836 45.86112961665891 0.3726550695247742
1.3878262847146416 13.083776034423838 571.8276935556554 47.964801064794614 0.37871312116645517
1.4146830037735239 13.081485217713093 510.8660352728281 50.16889985464945 0.3849363626148496
1.4414060839032234 13.078034523341378 456.90394771160896 52.478671093005545 0.3913318983859652
1.4680003573606653 13.073437165599401 409.03532759385166 54.90051731478785 0.3979113512854609
1.4944087953063294 13.067573619680422 366.55552879717993 57.44062734448083 0.4046837805867451
1.5206209227310155 13.060429424075426 328.8610969491186 60.10562802225241 0.41165895550691606
1.5466040344152747 13.051944169834657 295.308417801873 62.90262363385948 0.418847413659274
1.572319688935562 13.042066706256318 265.4770981915717 65.83923911557778 0.4262605242777369
1.597744024780006 13.030739525917081 238.9368795353649 68.92366741736402 0.4339105567716951
1.6228318446550059 13.017918652466085 215.2515993893304 72.16472145510141 0.4418107552382559
1.6475826036974757 13.003584287918033 194.1111127570785 75.57189113679074 0.4499754196345965
1.671932600660754 12.987650122680172 175.24661782011913 79.15512093697828 0.4584188039430649
1.6958691964861972 12.970104358731344 158.37013637247054 82.92458447793221 0.46715410781261035
1.7193495343338652 12.950894065536977 143.28657413008727 86.89302518137893 0.4762029121280979
1.7423352444738818 12.929955348088738 129.78411538619594 91.07203566294118 0.48557962247477
1.7648149659120824 12.907311264551529 117.68639694235699 95.47567019182961 0.49530602391158485
1.786742467660877 12.882875808811034 106.82886269048313 100.11763029414746 0.5053997753235472
1.8080807993945347 12.85662629225646 97.08709079686722 105.01442146637471 0.5158865049807526
1.8287916756818725 12.82849437255608 88.33420387752366 110.18258202851322 0.5267887462783755
1.8488726028477906 12.798531367641338 80.46946364712772 115.63972521916702 0.5381298143982136
1.8682582760880253 12.76662666916287 73.3828217597003 121.40608734119232 0.549939150593249
1.8869280260429178 12.732780291292908 67.01060379320494 127.50307233405613 0.5622464916421429
1.9048519054482056 12.696968620639568 61.259795814931245 133.953131526954 0.5750811811841319
1.921995509641226 12.659154852216169 56.078677692679875 140.7819060101405 0.5884793765634506
1.9383095863737931 12.619282569111615 51.39583074110227 148.01709286381137 0.6024794241921957
1.9538076931251105 12.577431218318686 47.16527730574079 155.687219493435 0.6171171969595638
1.968424982450597 12.533508363655717 43.341371347939635 163.82589330339138 0.6324401703517415
1.9821418594586293 12.487511778793536 39.88246071852271 172.46685421984932 0.6484898070788592
1.9949304605343599 12.439442765894901 36.74600419261401 181.6494405896728 0.6653194537129229
2.0067700970079456 12.389285079410515 33.905295659227825 191.41562005830542 0.6829834258755293
2.017619439816992 12.337016184866613 31.33054412944252 201.81141746496166 0.7015409448233764
2.0274570210806067 12.282636334540532 28.99309403282395 212.8867998830808 0.7210547643030325
2.036268650091766 12.226176801186556 26.87164209713005 224.69718553929457 0.7415950129103005
2.0440162767447227 12.167587225344837 24.942530013645886 237.3037826596596 0.7632389949855806
2.0506768823349444 12.10688716586997 23.189056020469522 250.7734145525009 0.7860691945713566
2.056253186537359 12.04414698276113 21.59507161701697 265.17915749940886 0.8101737258344942
2.060701499487075 11.979303130304077 20.142784089456175 280.6027775034602 0.8356523991953304
2.0640084276405406 11.912414689614558 18.82213021344137 297.1339340387961 0.8626119928920722
2.0661731961410164 11.843518379825499 17.619942721166733 314.873016558626 0.8911730755315724
2.067168429001024 11.77263383458476 16.524387990070736 333.9294242580749 0.9214615346596606
