M[M_sun], R[km], Lambda[1], P_c[MeV/fm^3], rho_c[fm^-3]
0.24162668629717493 15.618656898711224 2160425.4255784233 3.5677272577965504 0.1711233750220791
0.25364505647006397 15.277246257148033 1723191.814134055 3.7848471030081416 0.17388851579002904
0.2660425956921306 14.981231458654975 1382906.7232627824 4.011459290840545 0.1766673596778428
0.27881952325008386 14.723429624450254 1116340.1984804622 4.247819058968131 0.1794585678762301
0.2919762269115978 14.498308704398532 905813.9505135779 4.494551965373816 0.18226871342007586
0.30551273729836637 14.301150917707576 738548.008241725 4.751814952228097 0.18509352874772605
0.31943113045663984 14.128031806054778 605014.858745336 5.0202881753748905 0.18793958577909395
0.33373112518783027 13.975827133665016 489643.53576357657 5.300198576077005 0.1908035638805298
0.3484147068943166 13.841911869127552 410930.26883881324 5.592271528873163 0.19369169387315188
0.3634803090627939 13.723849251258835 340607.7376088682 5.896678435513619 0.19659911472809352
0.37893491985599115 13.619896184285263 283241.60439595504 6.214281739389538 0.19953347249487094
0.3947693252883256 13.528346742524999 236354.12855586736 6.545335230940139 0.20249088075411498
0.41099720673688067 13.447770077265691 197825.65375475143 6.890548643220703 0.2054751742700513
0.4276085634915658 13.37696628434527 166038.1328720733 7.2506240003421185 0.20848936889543285
0.44460574486531923 13.314824087120773 139759.4379241857 7.625815206163461 0.21152892965139256
0.4619872481533542 13.260504826995033 117945.27626677825 8.017081484204954 0.21460017558894548
0.4797563091901035 13.213082748039298 99779.44245565242 8.425123433829823 0.21770467955472247
0.4979173180737983 13.171934621418822 84617.92455926425 8.850375198201284 0.2208398112710978
0.5164588046623825 13.136323592170367 71918.12197172373 9.293723633229426 0.2240091688861274
0.5353797898279473 13.105781164091447 61254.99575172376 9.75604762519136 0.227215581031556
0.5546893214155206 13.079764064952853 52285.511153290114 10.238152682450442 0.23046034182982977
0.5743754763944737 13.057800129157592 44714.262321870345 10.740513536411974 0.2337401933719623
0.5944353906740997 13.039479690036654 38313.885517159506 11.264381358235848 0.23706139934840328
0.61487470309526 13.024472246041666 32888.96438620624 11.810689370393668 0.24042551343592106
0.6356825143695466 13.012423061225238 28280.61083621108 12.380417083079765 0.24383416949119438
0.6568565559801575 13.003000452613163 24360.006131913346 12.974240261593504 0.24728516663873842
0.6783915427141157 12.995961293034298 21018.702118524765 13.593512494655416 0.2507835878485264
0.7002837744532847 12.991054149653962 18164.083673829613 14.23941944281864 0.2543319269006574
0.722521887725282 12.987999159933764 15722.06807503237 14.913151452975429 0.2579321696754448
0.7451127308848045 12.9866515453507 13627.809550561757 15.615719644036199 0.26158402381002865
0.7680368017568541 12.986751050824148 11830.912227060091 16.34842784628596 0.26528975737874916
0.7912858234900841 12.988152404415988 10215.870714088605 17.112875075078765 0.2690538810811706
0.8148643742142377 12.99067776467439 8951.96411875565 17.91051724419477 0.2728788292056686
0.8387501023066436 12.99414707364284 7803.784111226998 18.742692815259975 0.2767654386924256
0.8629343762191405 12.998428044228797 6810.613914126186 19.610800812444722 0.2807146743525738
0.8874193575566002 13.00338340626404 5952.2233903714705 20.516902189946755 0.2847326626057287
0.9121784770455037 13.008869754271988 5208.323577957846 21.4627922227667 0.288822419078709
0.9372029816573076 13.01475906942819 4563.1658234822735 22.449920734153633 0.29298358544981956
0.9624896880629789 13.020975075254844 4002.2551812476568 23.480383087568676 0.2972205177358842
0.9880143535200582 13.027355561616634 3514.922896905656 24.55656976438704 0.30153904730269193
1.0137600468005883 13.033815252863759 3090.300628555023 25.680382263949035 0.3059404978819186
1.0397277599838675 13.040275247557243 2719.8422360503405 26.85386532812934 0.3104267425057272
1.0658831787431617 13.046605715700172 2396.774540968394 28.080077793886712 0.3150062203883936
1.0922190621657935 13.052731335393075 2114.4937050743297 29.361025665760675 0.31967903469864867
1.118719374365306 13.058568622173517 1867.0818592267372 30.699565231995976 0.3244505536159921
1.1453553122109523 13.064029051386802 1650.905389779123 32.098994892254936 0.3293281445403601
1.1721214639727353 13.069029140014912 1461.1218804282496 33.5613652068595 0.3343102114574209
1.1989809822346376 13.073482809818946 1294.5740209007804 35.091169113116194 0.339409981493835
1.2259302632756843 13.077355184468471 1148.2719767704298 36.69036745447494 0.34462382958760146
1.2529292371954335 13.080516276571014 1019.474471830871 38.36407479931938 0.349966574293292
1.279974432028195 13.082950657232796 906.092226182199 40.11460243896302 0.3554351949124209
1.3070277873713352 13.084549818546316 806.2372020950735 41.94729034448676 0.36104347820235677
1.3340605395482101 13.085240152416375 718.0752879870777 43.86576355307208 0.3667941406654093
1.3610710101418333 13.085033058759583 640.1196459144879 45.87457241203419 0.37269415934765976
1.388013266167499 13.083779181542049 571.3951928528056 47.97912324169724 0.3787538867052193
1.4148583837452668 13.081452356060973 510.47215662965056 50.184258484919 0.38497939918942087
1.4415906368062978 13.078007588364416 456.54839695166726 52.49504179194051 0.3913768461916698
1.4681857976583261 13.073405383724355 408.71614253666877 54.91797258120515 0.39795833772339506
1.4945974986044295 13.067526811294709 366.26761732067047 57.459245550247445 0.4047329429076984
1.5208104693862488 13.060372987858416 328.6108315568926 60.12549393816991 0.4117104416203404
1.5467948982496678 13.05187712105509 295.0755735209251 62.923829008029436 0.41890138302243857
1.5725129135791887 13.04198561056536 265.271911351377 65.86188331009028 0.4263171488736655
1.5979264370928667 13.0306406193025 238.73826307723132 68.94785810986568 0.4339700221855031
1.6230352676839395 13.017825705371576 215.063934169522 72.19057541260551 0.44187326184265036
1.6477771450522825 13.003462529936932 193.94615755769937 75.5995350700046 0.45004118389659764
1.6721258081319752 12.987516911626152 175.10586421477245 79.18454807010349 0.4584874571079777
1.6960623250340354 12.969954891145935 158.24160066032778 82.95608196909697 0.4672264889555714
1.719541554087773 12.950727837643711 143.1708857747929 86.9267551997885 0.47627929402431074
1.7425233844555306 12.929777364686595 129.68220627747738 91.10801224739637 0.4856596571326781
1.7650039915561255 12.907110434324277 117.58438771413509 95.51423998142035 0.4953906546421625
1.7869147201379612 12.882631793345348 106.7430296703201 100.15882687466105 0.5054886757570324
1.8082658573837151 12.856387827410348 97.01371919608997 105.05845849934691 0.5159800177125743
1.82896772472868 12.828229281671636 88.26657787600055 110.22969256909049 0.526887241886953
1.8490498901297785 12.798250552544395 80.4069382714176 115.690356203794 0.5382344005410433
1.868421725094805 12.766294715747199 73.32786757729554 121.46033090186994 0.5500495706047414
1.8870977459608411 12.732457259214689 66.95720955714368 127.56105964184995 0.5623626002474892
1.9050167266757816 12.696623616592294 61.209332146172336 134.01532890760078 0.5752039781256439
1.9221542229369364 12.658786162883361 56.02995628701491 140.84871108854585 0.5886095382608716
1.9384641096947877 12.61887831435919 51.35328214189081 148.0889057781167 0.6026175599057773
1.953953781301572 12.577014583228006 47.1286767055621 155.7642431433729 0.6172631644863722
1.9685635896759321 12.533059953234275 43.306153051234865 163.90859453694804 0.6325946569433205
1.9822745127220587 12.487042569696579 39.849556694187434 172.55599467327664 0.6486543951796973
1.9950564669083286 12.4389392504222 36.71870242831948 181.74534345763 0.6654941421166756
2.0068864619935214 12.38875908791108 33.877325464619226 191.5189082450368 0.6831691082875718
2.0177257046253185 12.336463854545475 31.303422143124568 201.92277811439013 0.7017385989912897
2.027555609577975 12.282059306059095 28.969487708780523 213.00671092599953 0.721264541498569
2.0363579675767345 12.22556608442454 26.85016792971189 224.82675710634246 0.7418189804486043
2.0440933401891423 12.16694917728513 24.924450266129572 237.44364610635247 0.763477475010267
2.050743480364081 12.1062174198021 23.17098485974089 250.9245805698415 0.7863235494008429
2.0563070258889935 12.043444894489898 21.578484371809655 265.3429223950179 0.8104460229189485
2.0607445849285955 11.978570616453819 20.12809731366887 280.7800368934339 0.8359431458516489
2.0640398047356596 11.91164869880548 18.808393644769392 297.3262491060103 0.8629235777601874
2.066187692288914 11.842719997266737 17.607726694348415 315.0819319541059 0.89150750798924
2.067171773017509 11.771806632218807 16.512347046315817 334.1563181764318 0.921819895479547
