M[M_sun], R[km], Lambda[1], P_c[MeV/fm^3], rho_c[fm^-3]
0.24162668629717493 15.618656898711224 2160425.4255784233 3.5677272577965504 0.1711233750220791
0.2536421262662162 15.277337565907695 1723187.6926853824 3.7848056092941427 0.17388799859090126
0.26603832340799805 14.981303946427 1383152.5597484591 4.011372062455054 0.1766663055742828
0.2788120802695327 14.723598683691685 1116479.4743979527 4.247683144512446 0.17945699147336286
0.2919651598012788 14.498502414754574 905954.3424880828 4.4943637980116025 0.18226661813282624
0.3055000635451402 14.301290132194643 738693.9659884314 4.751568142418029 0.18509086273073372
0.31941602956733617 14.128197390126507 605146.6710100573 5.019980904704019 0.18793639772728807
0.3337116849230135 13.976026159217792 497707.1002114073 5.299822754504968 0.19079977998090014
0.34839276379687234 13.842084782340383 411055.1429961559 5.591826217708609 0.1936873853651339
0.3634534383123307 13.724064409349822 340680.398486648 5.896153629704731 0.19659418564087572
0.3789058554776842 13.620062165796549 279425.0181219345 6.213671087548099 0.1995279040853497
0.3947363568411678 13.528536091614496 236438.33248492237 6.544639366722895 0.20248477896499625
0.41096010299638763 13.447940766139947 197896.5290459347 6.889754132351923 0.20546840788208923
0.42756667833419054 13.377116528079112 166113.5802266548 7.249723386653371 0.20848191834919336
0.44456058435214724 13.314997522301095 139830.76185468142 7.624810978528776 0.21152093535370423
0.4619402847582696 13.26061825589317 118001.39813172606 8.01595612564476 0.21459147003066906
0.47970264703056337 13.213225490771753 99831.00391565013 8.4238681682884 0.21769524171268004
0.49785806487394385 13.172033780121401 84660.55333685805 8.84899465376615 0.2208298155395262
0.5163941311948006 13.136453657906575 71952.48308400693 9.29219546728164 0.22399841050258493
0.5353115474867038 13.105880700005464 61290.79030599532 9.754361475559808 0.2272040367586474
0.5546162567987349 13.079839385223556 52311.98412243886 10.236302024144061 0.23044804485473958
0.5742964217730608 13.057869206638934 44740.368650032215 10.738497496078976 0.23372724976853332
0.5943520845025397 13.039544798334283 38337.43079802849 11.26217408283589 0.23704760825176083
0.6147860012973564 13.024527063572942 32909.84750496845 11.808277819364877 0.24041084718208194
0.6355865030930931 13.01244062837273 28069.89440474529 12.377787402248766 0.2438185989558639
0.6567562778759057 13.003029263858988 24376.717579555014 12.971404526938874 0.24726895874230026
0.6782862086573548 12.995996748530686 21033.855210153135 13.590430435893417 0.25076642777107255
0.7001720847414241 12.991072438718593 18178.14083550655 14.236074533115621 0.25431378060227017
0.7224040218498166 12.987998481145016 15734.451160589952 14.909526103561712 0.25791300108650866
0.7449894690955037 12.98664092275926 13638.411716459468 15.611830510220884 0.2615641451377292
0.7679072677957455 12.986760248539982 11839.372895291925 16.34422225800857 0.2652687935759843
0.7911500545260257 12.988125362739575 10293.425958263048 17.10833192361562 0.26903178927404553
0.8147228146924351 12.99064782258147 8959.440598690993 17.905614021267272 0.2728555637634748
0.8386014550926013 12.994122345198727 7809.525298497745 18.737451269256642 0.276741356500589
0.8627800899014741 12.998388993799908 6816.972097095217 19.605152786366634 0.28068933522158507
0.8872521090105385 13.003333182064004 5957.239945030568 20.510820497701847 0.28470601168733023
0.9120124227002896 13.00882210206111 5213.027731138399 21.45624781652783 0.28879439782636906
0.9370284302392063 13.014716837337735 4566.9861864570485 22.44294087656505 0.29295459509512484
0.9623040128362326 13.02091557916925 4006.0288360885224 23.472880180778876 0.29719004620208
0.9878269327762854 13.02731116947224 3517.8627277228093 24.548508489939955 0.3015070236861803
1.0135667465067628 13.03377153695376 3093.3571582884088 25.671793827312033 0.3059073534508969
1.039527681301661 13.040230409646462 2722.55426758562 26.844644726980075 0.3103919087349348
1.0656758490742917 13.046555057114718 2399.1450901870626 28.070181863283388 0.3149696110380115
1.0920053012220632 13.052684809140189 2116.5248125659555 29.350489480336236 0.3196411109003715
1.1185019153719407 13.058521617864017 1869.345409114173 30.68826299182711 0.32441068423142955
1.1451296020968138 13.063974525358992 1652.7373901736569 32.08696348740462 0.3292868058183401
1.1718903589849161 13.068993044300761 1462.7291721983554 33.54846350063692 0.3342667313772293
1.198743669694771 13.073453132000958 1295.9355749863278 35.07733620725765 0.33936423982427005
1.225687051210361 13.077317983478512 1149.5547544340923 36.67564349323834 0.3445763323678724
1.2526805627683377 13.080483741514353 1020.5891856547051 38.34836660551436 0.34991701988103807
1.2797193028546803 13.082933337233762 907.0981149163287 40.09779867834684 0.3553832096908482
1.3067620522247618 13.084517642136234 807.10057002908 41.92939779403326 0.3609893863116263
1.3337972223370966 13.085230000068139 718.8498226352668 43.84658159282728 0.3667371219593824
1.3608034770667752 13.08503530052008 640.9045720454998 45.854141237104315 0.37263474826632903
1.3877331022168367 13.083779801370913 572.0732347431942 47.957355578196825 0.3786919289081425
1.4145880952569736 13.081497841025755 511.0596506525432 50.160915625118555 0.3849139899238237
1.4413100024604637 13.078047918624833 457.059349159562 52.470160794458764 0.3913085322946891
1.467902321501675 13.07345676072371 409.2015700013769 54.89144326742979 0.39788692558190486
1.4943108564651482 13.067595985178306 366.6970194817561 57.43094881654411 0.40465822394059214
1.5205216653472229 13.060458080941046 328.99757795695933 60.09530095675955 0.41163219104926335
1.546504054094877 13.051979533816338 295.42679477515037 62.89160034812352 0.4188193585206859
1.572219437618222 13.04210636682565 265.58892468757927 65.82746797040322 0.42623108908017415
1.5976435078849636 13.03078742940764 239.03677197341264 68.9110924525444 0.43387964506932986
1.6227238260146588 13.017948087388989 215.33763097458836 72.15128198738965 0.44177826290158373
1.6474822652665115 13.003645638403542 194.19248167108157 75.55752131604454 0.4499412341715818
1.6718308855540895 12.987721682965105 175.31682922420362 79.13982428226062 0.4583831170226137
1.695768967165066 12.970181992973991 158.44106468517768 82.908211760211 0.4671164833549721
1.719233438154071 12.950947614081489 143.35030290576913 86.87549212619327 0.47616320838452963
1.7422363419001603 12.930055129057163 129.84211913600976 91.05333497199054 0.4855380203208817
1.764716964448486 12.907416857586275 117.73897617213191 95.4556217323737 0.4952620331149351
1.7866454852899032 12.882993246050013 106.8748767289542 100.09621660997063 0.5053535655221
1.8079854039574914 12.856748868480977 97.13230209732754 104.99153152690397 0.5158378981463073
1.8286981002119502 12.82862770740232 88.3752773865309 110.15808530173618 0.5267375147660714
1.8487789330230309 12.798674588348135 80.50261977031657 115.61340831532306 0.5380754527561373
1.8681677710730802 12.766783569511556 73.418820420709 121.37789295672124 0.5498817571585551
1.886841400483087 12.732948107888518 67.04217748260906 127.47284219064812 0.5621858199855336
1.9047669753070162 12.697146548481436 61.28913915631135 133.92080353958517 0.5750173556993148
1.9219127103812976 12.6593484392075 56.102897588639024 140.74718345736767 0.5884117238263297
1.938230737425326 12.619474208418682 51.41787108880465 147.97976783304136 0.6024076276384734
1.9537418509542404 12.577684503432577 47.18536259462284 155.64718654980132 0.6170413305240238
1.968352114793109 12.533739376182897 43.36014077895756 163.78290987457646 0.632359876949498
1.982073712689565 12.487759645754 39.900117885401514 172.42052458276046 0.6484042644695523
1.9948683119427362 12.439700934197116 36.76438114647603 181.59959681132983 0.6652286625795482
2.006703792620094 12.389545275450999 33.92199192059066 191.36193849729838 0.6828869218894934
2.017563906497614 12.337304466439516 31.344392961715762 201.75354110945034 0.7014382200013755
2.027406708820348 12.282938241593806 29.005135447089692 212.82448040818767 0.7209457401101627
2.0362234165400106 12.22649285049986 26.882715032253 224.6298461980454 0.741478615255829
2.0439750713227482 12.167919761528578 24.953262364641656 237.23109542591538 0.7631150565748837
2.0506430232539885 12.107236050211446 23.198763632310506 250.69475491851762 0.7859366838786565
2.0562177111827515 12.04448931247103 21.603193079501292 265.0939800929351 0.8100319856814189
2.06067949982741 11.979682403022892 20.151281440940192 280.5106591652058 0.8355013036802378
2.063998958360781 11.912822712760688 18.83049291709231 297.03399296793515 0.862450070449725
2.066163187739279 11.84392992342348 17.626640237289443 314.7644503343722 0.890999282359875
2.06716568654456 11.773061611105547 16.5301682882378 333.81151691906473 0.9212753094360658
