M[M_sun], R[km], Lambda[1], P_c[MeV/fm^3], rho_c[fm^-3]
0.24162668629717493 15.618656898711224 2160425.4255784233 3.5677272577965504 0.1711233750220791
0.2536416222001159 15.277349951074612 1723236.6770073979 3.784792297262396 0.17388783266284746
0.2660362138364421 14.981346881311895 1383153.9010451743 4.011344078093181 0.17666596739978482
0.27881049196342444 14.723597266928042 1116495.2665688216 4.2476395412570245 0.17945648574130868
0.2919633748834089 14.498497140429128 905991.4062421868 4.494303431877823 0.18226594594191636
0.30549601294204304 14.3013435227805 738771.0913600946 4.751488963926404 0.18509000745190973
0.31941022174272665 14.128276729105368 605198.5990528121 5.019882330815662 0.18793537498515034
0.3337060327746787 13.97608486942392 497762.70489503694 5.299702190314977 0.19079856609955909
0.3483853603926268 13.842159238892922 411106.61171185144 5.591683362414215 0.19368600320086252
0.3634453746766936 13.724113279555974 340711.03789966716 5.895985274195205 0.1965926044103024
0.3788971868956049 13.620113379733864 283371.67930723896 6.213475194806561 0.1995261177794171
0.3947260245255786 13.528570856325365 236466.5175174774 6.544416140351216 0.2024828215712807
0.4109483674153556 13.44801196590666 197924.03463014454 6.889499263425022 0.20546623731135613
0.4275527311061389 13.377204534589405 166129.4878985081 7.249434483909005 0.20847952833082864
0.44454608261671175 13.315030613127263 139844.5030570371 7.624488840662027 0.21151837092915093
0.46192404412588106 13.260669104731086 118016.24174052467 8.015595134399625 0.21458867747153904
0.47968542067182274 13.21325433947118 99845.63260913429 8.423465509190931 0.21769221427917415
0.49783906868983885 13.172078411084192 84674.38001917562 8.848551811644905 0.2208266091733565
0.5163743747502273 13.1364804525403 71964.38342970453 9.291705276364498 0.2239949595279684
0.5352897543674646 13.10591015071832 61299.02579910872 9.753820612806392 0.22720033372594217
0.55459280120867 13.079889847436222 52322.30171034508 10.235706964617957 0.23044408199042918
0.5742704387430966 13.057915880842964 44749.93707647088 10.737850825393004 0.23372309794241586
0.5943216001224956 13.039600801971797 38344.80996253809 11.261466077148654 0.2370431846194147
0.6147580772419474 13.024561259341604 32917.37710698033 11.807504296868636 0.24040614287471102
0.6355553855379946 13.01248297204161 28308.155615409254 12.376943920275544 0.24381360463651158
0.6567242690055233 13.003052879365132 24382.84585175469 12.970494958841735 0.247263760024043
0.6782514596537474 12.996008346009008 21038.17420642265 13.589441867246897 0.25076092368570213
0.7001355916287285 12.991078773504391 18182.12195717336 14.235001664350362 0.25430796023685726
0.7223658012372116 12.988007407901602 15737.270109044292 14.908363294641688 0.2579068528774244
0.7449488982456052 12.986646453843196 13641.576500567133 15.610583102886991 0.2615577692188763
0.7678654291926876 12.986758040186135 11842.26850376946 16.34287336209132 0.26526206966815163
0.7911059125416958 12.988115640165898 10294.803934358688 17.10687477056025 0.2690247036321707
0.8146761089241903 12.990651985602176 8961.918475408389 17.904041393824983 0.27284810175870944
0.8385538801167962 12.994113485507626 7811.749583089276 18.73577014214537 0.27673363259135125
0.8627287818636558 12.998386596979316 6818.7191569222 19.60334130413073 0.28068120824323467
0.8872009296745302 13.003323702704764 5959.239677661228 20.50886994341545 0.284697464056009
0.9119583395948324 13.00881599367256 5214.490016738972 21.45414887642205 0.28878541077266184
0.936971639697942 13.014712212243614 4568.204278712298 22.440702293209323 0.2929452972943212
0.9622449346679467 13.020911122146636 4007.143369609778 23.47047386613293 0.29718027344331704
0.9877660622876322 13.027304293633694 3518.9064603772354 24.545923119997838 0.30149675323873304
1.0135043022326342 13.033761094305369 3094.2989706444932 25.66903940855437 0.30589672361844
1.0394628189616046 13.040214498977152 2723.383592296463 26.841687591938413 0.3103807372112373
1.065612478385695 13.046545170628068 2399.8725553958584 28.067008172614056 0.3149578701761992
1.0919368543685812 13.052664174203711 2117.3014202568975 29.347110480701435 0.31962894857640256
1.1184308057234207 13.058508004212873 1869.959392794919 30.684638348879005 0.3243978980685591
1.145058342611184 13.063963547299137 1653.1988530974534 32.083105029559924 0.3292735485372285
1.1718163009460578 13.068979489160514 1463.215184053731 33.544325977415575 0.33425278749737686
1.1986664397344309 13.07344090679211 1296.3769039729575 35.07290009484863 0.3393495708031662
1.2256094216337938 13.07730695721147 1149.9038133168212 36.670921662889654 0.34456110047409116
1.2526001262152546 13.080474363622498 1020.9563459869746 38.3433047412627 0.34990098500475975
1.2796396120744022 13.08292477249791 907.4223133912816 40.092409973281185 0.3553665388376251
1.3066793379785058 13.084515235224293 807.3971725808415 41.92365997808078 0.36097204002472666
1.3337129864213073 13.085236164051265 719.1809834755064 43.84043034961027 0.36671883728335275
1.3607178846399945 13.085038166916723 641.1542460912387 45.84758945317318 0.37261569656864985
1.387645387337946 13.083787594712266 572.2567648995228 47.95037527506216 0.37867206071213033
1.4144991767675916 13.081503783717844 511.23255463641266 50.15343027921339 0.38489301515969526
1.44122718912882 13.078080705786027 457.2434262385278 52.46218228620761 0.39128662630032013
1.4678134342911353 13.073472090174528 409.36049356083515 54.882936276956 0.3978640262934983
1.4942188927162965 13.067617077150274 366.84039805800126 57.421875163411734 0.4046342644971793
1.5204284038516247 13.060488370130562 329.1072093018839 60.08561934389942 0.4116070993988246
1.546411168758328 13.05201255741319 295.54998187289016 62.88126608021082 0.41879305698723734
1.5721262079661185 13.042144803824153 265.6988023773112 65.8164326438443 0.4262034938876406
1.5975487170151024 13.030832046358542 239.130742908786 68.89930361388045 0.4338506658175197
1.6226356341588446 13.018031195623806 215.41770382461414 72.13868275653469 0.441747801989029
1.6473873878753944 13.003705174378686 194.26953360380318 75.54404997033096 0.4499091861593774
1.6717368092432423 12.987786707610375 175.38490269376842 79.12548411878171 0.4583496615852795
1.6956744705629072 12.970258751322714 158.50399007310804 82.89286290597613 0.4670812117326435
1.719147550483601 12.951055908538168 143.4173887173823 86.85905559095546 0.4761259877191452
1.7421448277670792 12.930144555426153 129.90279763663136 91.03580391335434 0.48549902016836693
1.7646288303454072 12.907523479465787 117.7790830519091 95.43682731557905 0.4952207939678983
1.7865542871020503 12.88310036024521 106.91720328947105 100.07614247167386 0.5053102464025474
1.8078951755417803 12.85686408686915 97.1699178294234 104.97007360022269 0.515792332194022
1.8286100764703674 12.828752890720285 88.41038701889141 110.13503931313521 0.5266891836767634
1.8486919215197872 12.798810222545931 80.53640379952083 115.58873812561441 0.5380244926572273
1.8680832091319057 12.766928209515175 73.44913004798522 121.35146292606512 0.5498279553016651
1.8867585034357393 12.733106050168294 67.06759524397128 127.44450397351552 0.562128945409863
1.9046858740923471 12.697315097570904 61.31270722031629 133.89049894275814 0.5749575250156845
1.9218340974747083 12.65952852260564 56.12463913006562 140.7146343883887 0.5883483058621732
1.9381551980214058 12.619665310152097 51.43804216034044 147.94477943282178 0.6023403257098696
1.9536604608646442 12.577860012499935 47.20660455920398 155.60965999823443 0.6169702139523437
1.9682833424001198 12.533955772884878 43.37745067971654 163.7425142700023 0.6322842605440215
1.982009700019558 12.487989012952887 39.91426651547876 172.37709618368643 0.6483240786790251
1.9948086788832262 12.439940964065105 36.778102049303584 181.55287466729783 0.6651435575463546
2.006647209942741 12.38979998469191 33.93457280155283 191.31161929925932 0.6827964624636905
2.017511061604987 12.337574620971468 31.35480618311989 201.699290278406 0.701341930127675
2.0273593739034728 12.28322524489713 29.016826422657434 212.76606521553563 0.7208435462254879
2.036181001332661 12.226790987969096 26.89373044560298 224.56672615624916 0.7413695107609091
2.043937319052272 12.16823205255118 24.96326391708418 237.16296312055707 0.7629988847355075
2.050609586815789 12.107563275479613 23.20742773181515 250.62097042061188 0.7858122998933542
2.056190225676385 12.044830324865798 21.61129583694822 265.0141417142367 0.8098991299807528
2.0606581215076045 11.98003933035237 20.158504250740883 280.42428718802006 0.8353595872913552
2.063984622662489 11.913193044432493 18.83693066196205 296.940318001185 0.8622983002188047
2.066154103144473 11.844316924152704 17.633039980084032 314.6626919876517 0.8908363872611019
2.067162700369457 11.773461596387257 16.53581414078021 333.7010042756418 0.9211007635434669
