M[M_sun], R[km], Lambda[1], P_c[MeV/fm^3], rho_c[fm^-3]
0.24162668629717493 15.618656898711224 2160425.4255784233 3.5677272577965504 0.1711233750220791
0.2536446312270665 15.277278093377246 1723185.9773459646 3.7848318138047983 0.17388832521748512
0.2660404710893092 14.981250085421369 1382969.2645986138 4.011427149608909 0.17666697127002692
0.27881768492095255 14.723455969700845 1116413.9968257658 4.247768978037433 0.17945798701290436
0.29197201870982786 14.498384648724326 905854.6134432527 4.494482630289832 0.18226794135782387
0.3055078641752494 14.301202904764597 738595.5579964942 4.751724008405854 0.18509254638087694
0.3194250926443401 14.12811035458867 605057.1766080165 5.020174952593582 0.18793841104903788
0.3337246401279784 13.975925750416813 497657.9670521084 5.3000600930970645 0.19080216958670662
0.3484064790491755 13.8419814241009 410978.1460090097 5.592107439623186 0.19369010626451894
0.36347062706140726 13.723923015787703 340635.36697326275 5.8964850530363195 0.19659729843894264
0.37892475217453053 13.619955962144317 283287.58743110683 6.214056723036096 0.19953142061666487
0.39475729718339364 13.52842307987006 236384.89047689244 6.545078814022989 0.20248863232415387
0.4109835858590333 13.447833242840558 197849.32737444725 6.890255875022574 0.20547268093322063
0.42759255803436086 13.377016173142902 166064.7673166178 7.250292133030683 0.20848662344221564
0.44458873884920763 13.314883714379627 139789.9428656293 7.625445156697768 0.2115259838197046
0.4619712638619633 13.260534624430766 117965.82582383347 8.016666797246579 0.21459696765006245
0.47973695852619447 13.213131679984519 99804.6735108503 8.424660875077953 0.2177012017595537
0.4978949559629703 13.17195923490091 84631.12246259823 8.849866472945063 0.2208361278828812
0.5164347353427072 13.136372350194511 71929.6390286428 9.293160507669683 0.22400520444708
0.5353545931492684 13.105837142236457 61264.22302684259 9.755426280430536 0.22721132697642646
0.5546624175349163 13.079802336484494 52297.70089115966 10.237473534369906 0.23045584665583607
0.5743463991891355 13.05785644540741 44723.62363269489 10.739770621468539 0.2337354236278992
0.5944038636020954 13.039506603974571 38322.94581389735 11.263567969438707 0.23705631728047943
0.6148427050535038 13.024484037993318 32896.14068938002 11.80980070165465 0.24042010884727677
0.6356476622497975 13.012443849301363 28287.12853326142 12.379448028429527 0.2438284316467036
0.656819872983928 13.003005118118386 24366.60773128814 12.973195271148647 0.2472791939018741
0.6783530297475878 12.995976189088655 21024.302276551294 13.592376727206508 0.2507772641996612
0.7002420934861958 12.991060321118468 18168.80211340205 14.238186807302162 0.25432523979282173
0.7224775799934464 12.987999952997553 15726.38190039411 14.911815466912769 0.25792510581352773
0.7450670802181697 12.986639220248268 13631.595833668467 15.614286445306147 0.2615766982487989
0.7679887858522295 12.986756481966104 11834.266227480373 16.346878023433895 0.2652820319005406
0.7912355169109992 12.98814959910197 10287.114459710696 17.11120084821299 0.2690457398828632
0.8148118538517333 12.99067062441775 8954.413356435361 17.908710317557738 0.2728702554679773
0.838694106756671 12.994140258017062 7806.004658165705 18.740761203921384 0.2767565639377673
0.8628777191165544 12.99840222507642 6812.797866480995 19.608719396692237 0.2807053363527726
0.8873604548718448 13.00336387615733 5954.238447640928 20.514660949804483 0.2847228411439155
0.9121164832679511 13.008858496509177 5210.178850523503 21.460380452022928 0.2888120925748016
0.9371381101741646 13.014751309135029 4564.232213387422 22.447348480395824 0.2929729017721288
0.9624233223237019 13.020955251775133 4003.6723532321794 23.47761806526881 0.29720928815875625
0.9879451809815677 13.027340066245936 3515.786251529073 24.553598955963537 0.3015272456911343
1.013689113131586 13.033799679286641 3091.4456373710364 25.677217170367083 0.3059282831762233
1.0396544928758595 13.040256610175474 2720.8126550994316 26.850467248477056 0.3104139051726916
1.065807091357546 13.046588683840291 2397.6643004866983 28.076430818300203 0.3149927286398726
1.092140069775969 13.052714385459865 2115.179797461945 29.35714272149626 0.3196650584834367
1.1186394771527892 13.058548362775966 1867.931949799175 30.695399951867074 0.32443586032043403
1.14527193024077 13.064002633111487 1651.7053133320394 32.09456087281936 0.32931290968631277
1.1720364623746335 13.069013498756693 1461.7202841325284 33.55661042747035 0.33429418736064126
1.1988935591776781 13.073478141517224 1295.0999508458833 35.08607112709954 0.339393123836145
1.2258410353688762 13.077335860387686 1148.7660003164792 36.684941058111626 0.34460632487292153
1.2528369334327099 13.080499064824469 1019.9019572243456 38.358297966515586 0.3499483836005978
1.27988038474377 13.082944398859565 906.445475285292 40.108409496351165 0.3554160360169083
1.3069260599865045 13.084520886503293 806.5961914933112 41.94069610790091 0.36102354282613525
1.3339632891929925 13.085238563790597 718.4046640614841 43.85869407440528 0.36677312651874644
1.3609736102634524 13.085030656329515 640.4525613847768 45.867042506858766 0.3726722634062699
1.387905837208222 13.083767283887049 571.6450250203517 47.971100740770716 0.3787310520778628
1.4147570788859756 13.081459260040763 510.6845211869365 50.17565539924404 0.38495529239528004
1.44148651446903 13.078023456369975 456.75727958414427 52.485871781319084 0.3913516687782094
1.4680825953505063 13.07342287405396 408.90720506565356 54.90819503288153 0.3979320183217616
1.4944918094016144 13.067552453703751 366.4237723521775 57.44881656133779 0.4047054046311092
1.5207046835333382 13.06040237640816 328.7479132261021 60.114366021044084 0.41168160161086403
1.546688183685848 13.051914306477745 295.2134516164637 62.91195076629095 0.418871151952852
1.57240441551852 13.042030661107916 265.3882379580837 65.84919908187877 0.4262854303995663
1.5978184540556815 13.030691078635723 238.84595487396317 68.93430757481077 0.4339367123422936
1.622916506157285 13.017870222762284 215.16775317568684 72.17609315830533 0.44183824838135966
1.6476690824062612 13.003528546254124 194.0425928985256 75.58405011339323 0.4500043455517866
1.6720167540633704 12.987593666789246 175.17973304435054 79.16806420766781 0.4584490004455029
1.6959547245326962 12.970035078689332 158.32110092214603 82.93843833427103 0.46718594393412793
1.7194344588314323 12.950820585134927 143.23760645972126 86.90786094477541 0.4762365078328564
1.742413257205194 12.929864696849686 129.74271794507104 91.08785950846675 0.48561482470651623
1.764898352388349 12.907223896888647 117.64449443789184 95.49263456844199 0.4953432475418336
1.7868243335326186 12.882783713986143 106.79547793420743 100.13574997358873 0.5054388768056813
1.8081625796811112 12.856520720874862 97.05571115661263 105.03379041528116 0.5159276349843543
1.828871390603743 12.828379552887228 88.30471670403078 110.2033027421489 0.5268320677787169
1.8489507366190117 12.79840530504381 80.44156977718885 115.66199425243937 0.5381758145365017
1.8683248718793544 12.766463365915346 73.36563747541189 121.4299452134754 0.5499877164782826
1.887002883428128 12.732637963272513 66.98876074698047 127.52859513294064 0.5622976251032441
1.9049252312342757 12.696816249940962 61.23847900107332 133.98048753480975 0.5751351904376042
1.922064596251712 12.658993441688134 56.05776712566762 140.81128849218592 0.5885366248120684
1.9383771247774384 12.619098825227212 51.377346314812755 148.0486777908248 0.6025401793707541
1.9538718151326644 12.577250098523232 47.150339339544765 155.7210960980773 0.6171813965164569
1.9684860544297795 12.533311479181275 43.32708198247029 163.86226689287878 0.6325081165191896
1.9822012391441228 12.487304315196816 39.86497784291398 172.50605973512722 0.6485621957761775
1.9949872738848566 12.439222801792168 36.73482329041768 181.69162016381034 0.6653962843920674
2.0068212582534777 12.389054705280106 33.89345834601662 191.46104762253793 0.6830650915525718
2.0176665560661635 12.33677322802402 31.31934713464603 201.860395198839 0.7016278754697536
2.0275006436366216 12.282383143614922 28.982771801689335 212.93953796586007 0.7211470264236355
2.03630800695232 12.225906879134845 26.86140585757151 224.754172154059 0.7416935156305797
2.0440494376028036 12.167307255367431 24.935511397849556 237.36529545225144 0.763343879947611
2.050706801675944 12.106592344105724 23.18169587026481 250.83989797613413 0.7861810608504277
2.0562773153951124 12.043837409371882 21.588208976890225 265.25124151963286 0.8102936778321402
2.0607199055733765 11.978981255602276 20.135841827486928 280.6807361294867 0.8357802694867252
2.064023028425001 11.912079097328126 18.816614349998684 297.21851370516504 0.8627490271066688
2.066180069902419 11.843169481797233 17.613879370292306 314.96489650724584 0.8913201572579178
2.067170201672604 11.77226839617784 16.519673153790635 334.02921053735025 0.9216191391169043
