M[M_sun], R[km], Lambda[1], P_c[MeV/fm^3], rho_c[fm^-3]
0.24162668629717493 15.618656898711224 2160425.4255784233 3.5677272577965504 0.1711233750220791
0.2536451127863206 15.277247098420679 1723166.9489735032 3.784842853587885 0.17388846282305553
0.26604214809007576 14.981236954696652 1382986.537319017 4.011450357616212 0.17666725172509876
0.2788192318391751 14.723463540480124 1116351.5302717567 4.247805139617192 0.17945840643273522
0.2919744824723093 14.49832709375991 905813.444549689 4.494532694540919 0.18226849883487903
0.30551179048185556 14.301138364811345 738554.618488594 4.751789675462542 0.18509325571041663
0.31942952839595407 14.12805035006561 605030.3110804268 5.020256706375976 0.1879392592760843
0.33372884123245616 13.975897259128491 497624.9735068618 5.300160086215806 0.19080317635149374
0.34841242728528116 13.841930985521941 410944.64249985217 5.592225921941546 0.19369125261354245
0.3634775915858114 13.723864034436788 340614.4763275717 5.8966246867274315 0.1965986099081192
0.37893261232038006 13.619894388900805 283246.51807307603 6.214219198157116 0.1995329021941358
0.39476569379533777 13.528379176404677 236363.13057036093 6.545263962087353 0.20249025582255556
0.41099340734264117 13.4477974897776 197829.57762624274 6.890467270696405 0.2054744812674877
0.4276034238971 13.376973681208886 166038.7528942665 7.2505317603714365 0.20848860581779446
0.4446014863973217 13.314867245740865 139774.1408490917 7.625712353588609 0.21152811087876275
0.4619831346417499 13.260480356622415 117947.27438510119 8.016966224755238 0.21459928396391867
0.47975086568664327 13.213098527779032 99792.92014929572 8.424994868508154 0.21770371292323457
0.4979112240648866 13.171916380963896 84621.15348298883 8.85023380096608 0.22083878749470054
0.5164521584501044 13.13634145243502 71921.41461019787 9.293567115470088 0.2240080669913439
0.5353720525592369 13.105815848003166 61259.80000825692 9.755874925411467 0.22721439863744755
0.5546814015954036 13.079782610531618 52288.01139157008 10.237964522557087 0.230459100212261
0.5743665160986832 13.057803697039587 44716.77141037511 10.740307046115207 0.23373886764029436
0.5944264632261728 13.039489797771337 38316.727740830705 11.264155279616036 0.23705998680509552
0.6148644181319062 13.024483075817143 32891.22717728072 11.810442367545393 0.24042401124648838
0.6356733094528395 13.012427983091026 28281.642337959653 12.380147736739458 0.24383257467152714
0.6568463294315714 13.003015234582291 24362.18847142137 12.973949808664605 0.24728350652890266
0.678380668420001 12.995962756132297 21020.479069884303 13.593196809902944 0.2507818302004016
0.7002713434335014 12.991050862199321 18165.071228588484 14.23907683315094 0.25433006822648907
0.7225088380958866 12.988002198093014 15724.082582519293 14.912780116497997 0.25793020627951224
0.7450999286116653 12.986645632511804 13628.769991895968 15.615321286791017 0.2615819876720321
0.7680233425907202 12.9867585822569 11831.413680275611 16.34799707265059 0.26528761008021856
0.7912720011710317 12.988144057600444 10285.93904206372 17.11240972251239 0.26905161822922197
0.8148477789713294 12.990672481576725 8952.082572693296 17.910015006758854 0.2728764461249468
0.8387349747381327 12.994143054826182 7804.464116216251 18.74215592079885 0.2767629719401734
0.8629166606465151 12.998426373218845 6811.0381485086045 19.610222278597075 0.28071207883606164
0.8874028381076573 13.003378525819986 5952.752485057799 20.516279231483427 0.2847299327051512
0.9121616047935622 13.008873547790792 5208.853459624903 21.46212186370043 0.28881954879531446
0.9371846812886262 13.014759275509245 4563.015520590839 22.449205767318166 0.2929806158846254
0.9624717774909768 13.02096917251208 4002.548842023048 23.479614538678856 0.2972173964304845
0.9879954200788831 13.027355970238617 3514.859830544484 24.555744014945656 0.301535766992163
1.0137401244786164 13.033816842206017 3090.6969939829573 25.67950251080195 0.30593710274509317
1.0397080193127846 13.040271601042017 2720.05379836827 26.852920813649607 0.3104231743001011
1.065861971257931 13.046598657918095 2397.0162548449907 28.07906409558064 0.31500247027756967
1.092195968404677 13.052730169717742 2114.721717493151 29.359946376964125 0.3196751499216678
1.118697960127923 13.058561087658811 1867.4367135769419 30.69840746399974 0.3244464695143639
1.1453306665263698 13.064015985790922 1651.1972061956092 32.09776242446117 0.3293239099024139
1.1720975715355066 13.069030539281874 1461.2900760972086 33.56004357898738 0.33430575743522634
1.1989565816776655 13.07348220039263 1294.7268781736211 35.08975208555168 0.3394052957678362
1.2259055439074067 13.077348107519823 1148.418483612633 36.688859140142426 0.34461896399904685
1.2529039758205267 13.080511556188254 1019.5829039916167 38.36246907553846 0.34996151802304104
1.27994827132908 13.082947431887417 906.1858907458393 40.11288105017978 0.35542986951060446
1.307001765964114 13.08454764591755 806.3222327408479 41.945457409099305 0.36103793696099196
1.3340345271106442 13.08524170882777 718.1284264362585 43.86379851523945 0.366788299556728
1.3610445705087741 13.085032496405915 640.2541764638698 45.8724793901076 0.37268807312421276
1.3879839248786499 13.083782480145585 571.4439340419581 47.976893293349825 0.3787475395523796
1.4131320218603012 13.080920212690776 513.8945035251977 50.28361806666695 0.6594786799527542
1.4197588171515951 13.062751861579004 493.6415954611208 53.47351891381617 1.2311684742806
