M[M_sun], R[km], Lambda[1], P_c[MeV/fm^3], rho_c[fm^-3]
0.24162668629717493 15.618656898711224 2160425.4255784233 3.5677272577965504 0.1711233750220791
0.2536443976547558 15.277285315120324 1723240.351083353 3.784827555087555 0.17388827213462915
0.2660408301331857 14.981246630980795 1383015.7697047833 4.011418196891573 0.17666686308172147
0.2788166000551653 14.723464978738301 1116379.5954500511 4.247755028390614 0.17945782521802292
0.2919708947708106 14.498395547072048 905827.7000044733 4.494463317617647 0.18226772630673685
0.30550708590583464 14.301196170317736 738627.3735761825 4.751698676900029 0.1850922727522681
0.3194236787199987 14.128120383666563 605090.8916472798 5.020143415607473 0.18793808384063485
0.33372278757019513 13.975896255082834 497649.6601938884 5.300021520286229 0.19080178122250538
0.3484041893901589 13.8420007454068 410990.17560728255 5.592061734631296 0.1936896640561494
0.36346717710120163 13.723965786019605 340656.08749850787 5.896431188964709 0.19659679253618323
0.37892165239388637 13.619974504714321 283280.1822997111 6.213994047983737 0.19953084909565302
0.39475436340703496 13.52841972446018 236406.82340164337 6.545007393013286 0.20248800605838382
0.41097972581907244 13.447868482235876 197857.3687325039 6.890174329184029 0.20547198645464018
0.4275876598286015 13.37704462127518 166069.8418403393 7.250199697065436 0.20848585874316447
0.44458421401684245 13.31490088111456 138172.1578625443 7.625342086043752 0.21152516331102444
0.46196614420733556 13.260551945165107 117977.61899518265 8.01655129398419 0.2145960741389475
0.47973180572403124 13.213132772317326 99805.39260154426 8.424532038433323 0.2177002330880964
0.49788984094115574 13.17198279178333 84635.64349649606 8.849724777921336 0.2208351019503678
0.5164280599665442 13.136399838196533 71935.21017846197 9.293003661041478 0.2240041002370392
0.5353475638452762 13.105827692894627 61270.371060455946 9.755253218621235 0.22721014210367305
0.554654938787318 13.07979100835768 52300.69366856091 10.237283129170457 0.23045457863148505
0.5743379993990065 13.057841972701269 44727.860190481595 10.73956370017023 0.23373409512906787
0.5943957562026236 13.039513285749113 38323.18380112377 11.263341420018593 0.23705490179560285
0.614833628339538 13.024493667648281 32898.93873989114 11.80955318561884 0.24041860353680766
0.6356390184910548 13.012420503655363 28289.29854226984 12.379178123772604 0.2438268335212022
0.6568095058383068 13.003008517951494 24368.806649183418 12.972904217325263 0.24727753035757188
0.6783421166268379 12.995972179395997 21025.779118272963 13.59206039086818 0.25077550292368095
0.7002299149476774 12.991053666417423 18170.768935177068 14.237843492113205 0.2543233772911661
0.7224656452827813 12.98800745879376 15728.23668583335 14.911443367536858 0.2579231383838634
0.7450545297197351 12.986654244611577 13632.759847123538 15.613887271227926 0.2615746579356937
0.767975606470275 12.986763117427737 11835.144900653384 16.346446368559175 0.2652798802092529
0.7912219509396347 12.988134110393476 10288.022361430554 17.110734545904833 0.2690434724126418
0.8147973393912471 12.990668866661107 8955.240711858112 17.908207057523295 0.2728678675350987
0.8386814541807138 12.994124915151353 7806.800387110979 18.740223218413085 0.2767540921727179
0.8628613349964691 12.998407367758304 6813.4115911394465 19.608139689984487 0.28070273557437686
0.8873431914542232 13.003359666937307 5954.63105109172 20.51403673145469 0.2847201057223201
0.9120997053303483 13.0088504669834 5210.561734130992 21.459708740491934 0.2888092165005448
0.9371202015927373 13.014744915590583 4564.651357704637 22.446632073941007 0.29296992622757545
0.9624048006829556 13.02095628631355 4004.0663434080443 23.47684797267544 0.2972061605839178
0.9879263012873719 13.02733609840043 3516.201573267263 24.552771552046362 0.30152395880815847
1.0136686048284276 13.033795672992202 3091.675715565715 25.67633565809595 0.3059248812505993
1.0396338144042452 13.040255830437507 2721.0782275527276 26.849520850158925 0.3104103298502632
1.0657855392588047 13.046584637637947 2397.888358168802 28.075415103347137 0.31498897106859447
1.092118026723228 13.052709551702627 2115.5147574080725 29.356061290034468 0.31966116599417654
1.1186179124911682 13.058538486920623 1868.3328828656831 30.694239891426584 0.32443176813206015
1.145248364606221 13.063997319635316 1651.8582822807384 32.09332596987956 0.32930866668144465
1.172012150776682 13.069012268768157 1461.8236002773992 33.55528619530461 0.33428972456170863
1.1988699745049902 13.073472440725032 1295.2038538282739 35.0846513148719 0.3393884289020202
1.2258155589715698 13.07733477802395 1148.8938302314484 36.68342978634236 0.3446014497441337
1.2528120935695544 13.08050022005092 1020.0342766261522 38.35668910144942 0.3499433174387408
1.2798554378651406 13.08293938794908 906.5874401838581 40.106684749601385 0.35541070022666515
1.3068992103728136 13.084527159793673 806.6136660124649 41.93885960536498 0.36101799080074026
1.333937231119087 13.085237770376011 718.5013763171938 43.85672522359576 0.36676727407592585
1.360945348423136 13.085030526714586 640.516072132566 45.86494543355414 0.37266616540196595
1.3878766143567662 13.083772803721809 571.7067706325803 47.968866486788706 0.37872469266979714
1.4147345039167971 13.081481399880083 510.743121211589 50.17325946247749 0.38494857871642246
1.4414580617404396 13.078026785520766 456.8039347870806 52.483317965627634 0.39134465695715276
1.468052721278821 13.07343053210085 408.9320649898956 54.90547202898194 0.3979246884849855
1.4944623339097867 13.067560645078961 366.4705204889067 57.44591214381748 0.40469773536866227
1.5206747703191434 13.060413871658488 328.786843488502 60.111266966331215 0.41167356985017817
1.5466583715536502 13.051924837647796 295.24509649735114 62.90864276243902 0.4188627328200509
1.5723744182477872 13.042042500064294 265.42067619823905 65.84566662925351 0.42627659706692417
1.5977997185932646 13.030712355754032 238.88711867224274 68.93053387665755 0.433927435860347
1.6228856183919618 13.01788803246894 215.19385531787458 72.1720600000481 0.44182849749399145
1.6476379580584273 13.003548855291 194.06357788819068 75.57973772937508 0.44999408649240363
1.6719866350616057 12.987615143681401 175.195103838237 79.16347365472632 0.45843829073800973
1.6959240971119802 12.970059692690825 158.33912559967382 82.93352481869714 0.46717465268964964
1.7194037028293432 12.950847382977427 143.25413633264967 86.90259916989335 0.47622459250159105
1.742386640552414 12.929909456412588 129.76557599912186 91.08224728422232 0.4856023395733579
1.7648684830632362 12.90725569128118 117.65871625468051 95.48661782309613 0.4953300454590709
1.7867962330311438 12.882817864295061 106.80962329907058 100.12932346796808 0.5054250086853581
1.8081337459005944 12.856557003751297 97.07140563607621 105.02692082061121 0.5159130473856735
1.8288430517116518 12.828420203795812 88.31337494491807 110.19595370456398 0.5268167028960279
1.8489221788848553 12.798450977959364 80.45099092110661 115.65409605565556 0.5381594995874045
1.8682987496517567 12.766511052396256 73.37484930771048 121.42148348586672 0.5499704915017485
1.8869767988171806 12.732687749298204 66.99720571449338 127.51955453600067 0.5622795310642467
1.9048999606498243 12.696870113653999 61.245586099123706 133.97078508246554 0.575116034784092
1.922039167651767 12.659050623713803 56.063981259235106 140.80086728331793 0.588516320334208
1.9383541555126307 12.619160301726883 51.38315310323066 148.03747540961058 0.6025186310331353
1.9538492300869268 12.577313664171504 47.15529165547571 155.70908089463933 0.6171586265032031
1.9684637945306953 12.53338224597867 43.3301004379193 163.8493660457693 0.6324840176295755
1.9821790208879273 12.487377512734533 39.873609628844505 172.49215444133765 0.6485365211715685
1.9949695149654796 12.439298339990145 36.73907949565216 181.6766600095797 0.665369034263702
2.0068034955248244 12.389136199057123 33.896661260111884 191.44493544486104 0.6830361264975255
2.01764933328819 12.33685927216526 31.322490952578516 201.84302381471187 0.7015970429764736
2.027485184201939 12.282472560688454 28.986190052916516 212.92083282540793 0.7211143028995075
2.0362940546479664 12.226004268578803 26.865693075534814 224.7339600971133 0.7416585786089682
2.044038136835468 12.167405939524999 24.93869774422759 237.3434779978883 0.7633066791837364
2.0506955527773796 12.106697263910483 23.183352108109876 250.816317475134 0.786141383848833
2.056268136669417 12.043947158313928 21.59032616843454 265.22567451873107 0.8102511328572283
2.0607133727563407 11.979095350494159 20.138681434546935 280.6530854380027 0.8357349159170493
2.0640184961372956 11.912197768080569 18.818826574860655 297.1885145559798 0.8627004231097077
2.066175417988241 11.843294257347612 17.615029989231203 314.9323079669021 0.8912679894145
2.067168894672274 11.772401159643639 16.52153558500745 333.99381763547893 0.9215632388555636
