M[M_sun], R[km], Lambda[1], P_c[MeV/fm^3], rho_c[fm^-3]
0.24162668629717493 15.618656898711224 2160425.4255784233 3.5677272577965504 0.1711233750220791
0.25364111934221806 15.277361761643045 1723200.266050252 3.784784909372832 0.1738877405763681
0.26603730954005034 14.98128882434456 1383142.931224931 4.011328547438147 0.1766657797209843
0.2788084453457504 14.723647168167227 1116543.1472106397 4.247615342578393 0.1794562050731032
0.29196108097856643 14.498541129396932 888863.7501442394 4.4942699303577545 0.1822655728947151
0.30549374844862304 14.301376880634425 738762.379071456 4.75144502223532 0.18508953279778206
0.3194075746134714 14.128305187921674 605216.0703993068 5.019827625451945 0.18793480739588744
0.33370252947933887 13.976116399029236 497794.5123852768 5.299635281276878 0.1907978924365676
0.34838209286680993 13.842135252944598 411091.8416572419 5.591604082835791 0.19368523614913222
0.3634410004148073 13.72415075137704 340734.1975436498 5.895891843239155 0.19659172688699109
0.378892040461113 13.620166177430637 283385.079383494 6.213366482106349 0.19952512645048975
0.39472006421597955 13.528616617051325 236480.38492551458 6.544292258966873 0.20248173529889557
0.41094177646960517 13.44804213808218 197937.34425007776 6.889357822219561 0.20546503273869693
0.42754649546746826 13.377212250923948 166139.31361917814 7.24927415595744 0.20847820197877387
0.44453847424961374 13.315053824326636 139862.9274284348 7.624310069267474 0.21151694779390065
0.4619152468843176 13.260698004337627 118033.30159961293 8.015394801876274 0.21458712773750904
0.47967555755117874 13.213284510816253 99854.67605168495 8.423242053789673 0.21769053420694162
0.497828810729695 13.172096873341063 84683.49596321656 8.848306057422498 0.22082482980778356
0.5163637242606289 13.136501539228524 71973.92109519782 9.291433246932916 0.22399304442381102
0.5352777518874984 13.105942987099521 61309.31264374849 9.753520464234228 0.22719827874993925
0.5545803544184201 13.079880916745575 52328.65630110698 10.235376740951024 0.23044188282962808
0.5742574189837247 13.057910140215373 44754.45124091148 10.73749196152313 0.23372079392520917
0.594309699628185 13.03958534898909 38351.36078109484 11.26107317726759 0.23704072977384777
0.6147417612552969 13.02457933079103 32920.68290572772 11.807075040555745 0.24040353228013028
0.6355382669912082 13.01247261385432 28309.18752157043 12.376475842372347 0.243810833112514
0.6567046179999055 13.00307824605014 24385.34625834315 12.96999020879359 0.24726087507975028
0.6782330523302275 12.996003178138377 21041.130549201145 13.588893278896789 0.2507578692927443
0.7001159625956439 12.991071594689213 18184.13580384916 14.234406297091907 0.2543047303404232
0.7223452997013564 12.988001082409104 15739.298965821008 14.907718018963841 0.25790344106167706
0.7449261845937307 12.986662444865567 13643.409647888582 15.609890883000288 0.2615542310499831
0.7678426115590982 12.986749577720415 11843.479689136064 16.3421248258809 0.26525833840288204
0.7910808917651375 12.98813039022645 10296.362962916452 17.10606616236951 0.26902077164435684
0.8146488177680686 12.990654090846729 8962.858322923166 17.903168709047463 0.27284396093184005
0.8385258771475409 12.994114335083967 7812.821285057151 18.734837251051548 0.27672934643946595
0.8627023877519561 12.99838069720557 6819.6292836074235 19.60233607965836 0.28067669843498905
0.887172795162087 13.003314765098315 5960.2939049863835 20.507787548891873 0.2846927208353788
0.9119263487868529 13.008810128363725 5184.4404028855015 21.45298414403176 0.288780423725858
0.9369406213592614 13.014697684080128 4568.899443609367 22.439460074083552 0.2929401378232851
0.9622142530456866 13.02090159877051 4007.68315679443 23.46913857518962 0.2971748504300427
0.9877328843188382 13.027291908924463 3519.5741799877123 24.54448847409951 0.30149105407163734
1.0134696729923003 13.033752707111503 3094.536596631862 25.667510960060525 0.3058908250413397
1.0394274267742354 13.040201548851254 2723.862477291201 26.840046660202077 0.3103745380666193
1.065575520207521 13.04653545589799 2400.252181121694 28.065247078953508 0.3149513551249666
1.0918987581804087 13.052662810849391 2117.568506753848 29.345235465514193 0.3196221996729937
1.1183917843805842 13.058496619074264 1870.308444056265 30.68262703267898 0.3243908030203335
1.1450175533119962 13.063958778818892 1653.5819376947143 32.080963975465004 0.32926619208624375
1.1717754128663331 13.068972371533132 1463.5002631728196 33.54203007847577 0.3342450500812326
1.198625437188265 13.073427919479752 1296.6472205874709 35.07043851861969 0.3393414310379119
1.225566451119479 13.077305430560402 1150.096906877741 36.668301550990876 0.3445526483986903
1.2525566129069274 13.080468416277949 1021.1364030852801 38.34049595728349 0.3498920873928603
1.2795944826814183 13.08291992522452 907.580120175778 40.08941983732923 0.35535728835592967
1.306632956412048 13.08451398425552 807.5729160003601 41.92047613402757 0.3609624147818035
1.3336647954597385 13.085233184974793 719.2597677410623 43.83701711302145 0.3667086913790148
1.3606702985148802 13.085040646586533 641.2716069643113 45.843953973948516 0.37260512508890703
1.387596539969294 13.083791894248177 572.3765232514685 47.94650203009385 0.3786610362066399
1.4144490057458186 13.081513704151764 511.3371332985537 50.14927681188555 0.3848813766865211
1.4411775440502417 13.078089356160028 457.33980904012776 52.457755188067765 0.39127447114751845
1.467761287908601 13.073485079149416 409.44543778024877 54.87821595203409 0.39785132002774043
1.4941680823985197 13.06762972059545 366.91537107922085 57.41684042876955 0.4046209700238291
1.5203780251370427 13.060500994831685 329.19250840606776 60.080247287577464 0.41159317674344525
1.546359072047146 13.052032750847424 295.617602141414 62.87553190500539 0.4187784630554524
1.572073783782016 13.042166800815613 265.7515684674201 65.81030949533483 0.42618818220101967
1.5974965145770406 13.030856896876946 239.1801091333392 68.89276239093928 0.43383458622289955
1.622583247731825 13.018058063028302 215.47208520581873 72.13169190233099 0.44173090033836215
1.6473353906638648 13.003735463706773 194.31456908602502 75.53657524159601 0.44989140395685545
1.6716878964855024 12.987821910710876 175.42991843961198 79.11752734413494 0.45833109852106
1.6956231338491377 12.970297346291714 158.53840878252893 82.88434648593982 0.4670616410242039
1.7190873796301591 12.95107267074279 143.44643255950365 86.84993570313445 0.4761053356603008
1.7420926865364008 12.930194196132035 129.93031374908512 91.02607676099156 0.4854773808347958
1.764578103755766 12.907579039189711 117.80692341710572 95.4263992334719 0.4951979124272776
1.7865034047877473 12.883158757264097 106.94063123997596 100.06500438102792 0.5052862108861458
1.8078451631514634 12.856929697778998 97.19342402665883 104.95816776732073 0.515767050132899
1.8285701075013079 12.82884582681075 88.43279974275767 110.1222524145667 0.5266623675246171
1.8486447841922917 12.79888580510072 80.55749223458673 115.57505011167248 0.5379962179437937
1.868036368259727 12.767010481448372 73.4662222963876 121.33679854878595 0.5497981040034193
1.886712587459575 12.733193885872613 67.08251114378692 127.42878093690008 0.5620973894008322
1.9046424192869382 12.697407304472762 61.32626745382502 133.8736849617853 0.5749243289965493
1.9217913775850262 12.65962856605293 56.13656239608173 140.69657519221687 0.5883131196804653
1.9381201953460112 12.619801964993355 51.450265762801166 147.9253669241107 0.6023029847835314
1.9536211769519283 12.577949900086487 47.19957446362026 155.5888393548913 0.6169307567490327
1.9682465177587096 12.534075536054868 43.38812866675993 163.7200939696273 0.6322422800106421
1.9819742309086705 12.488114975696107 39.92307147969472 172.35300131110205 0.6482795901312769
1.9947744071131566 12.440076511566945 36.78647733438814 181.5269525044269 0.665096339967254
2.006616416294182 12.389943532209257 33.943167415965796 191.28370159197777 0.682746274466488
2.0174824516877616 12.337723474364955 31.36295794305004 201.66919142794444 0.7012885076371125
2.0273321128828896 12.283383456546229 29.02368321032202 212.7336561188959 0.7207868484498913
2.0361570639595117 12.226956117167548 26.89961789793452 224.53170700055196 0.7413089793165987
2.0439162930672823 12.168407912445831 24.969248301799833 237.12516337593658 0.7629344326985859
2.0505926251059297 12.107744018386796 23.212184880625905 250.58003511988045 0.7857432922292914
2.056175924126518 12.045019981077493 21.615880641243766 264.96984803693357 0.8098254227283119
2.060646180327948 11.980237440826484 20.162416848410817 280.3762984779946 0.8352807343410135
2.063976340398965 11.91339967451234 18.84081709647675 296.8883485959671 0.8622141004704158
2.066149474436421 11.844531632870462 17.63651303627243 314.6062384645381 0.8907460162741504
2.0671620457969038 11.773689586363165 16.540299834064687 333.63969448534704 0.9210039296270879
