M[M_sun], R[km], Lambda[1], P_c[MeV/fm^3], rho_c[fm^-3]
0.24162668629717493 15.618656898711224 2160425.4255784233 3.5677272577965504 0.1711233750220791
0.2536421012395673 15.277363997157373 1723238.5884701363 3.784804492816859 0.17388798467455052
0.26603813494929573 14.981272884750606 1383068.543572514 4.011369715407197 0.17666627721159459
0.27881171206551275 14.723603315053914 1116418.623406336 4.247679487500224 0.1794569490575321
0.2919657342217744 14.498460944385856 905923.3169389385 4.494358735083111 0.18226656175594244
0.3054991666549709 14.301299100828237 738719.2835317694 4.751561501676097 0.18509079099804682
0.3194152284516758 14.128210936317469 605153.6919994276 5.019972637242872 0.18793631194918772
0.33371189142184954 13.976026903577408 497722.703947494 5.29981264268028 0.1907996781716041
0.348392096362501 13.842095557314229 411052.79845135886 5.591814236285614 0.19368726944157047
0.36345358038657455 13.72404383647118 340687.80629436224 5.896139509522679 0.19659405302113772
0.3789051817548489 13.620066905596746 283335.2965401476 6.213654657750889 0.1995277542653819
0.3947363503181665 13.528505471527625 236445.0361428043 6.544620644380743 0.20248461479534824
0.41095930418991305 13.447934734893165 197904.2907870717 6.889732756056348 0.2054682258325859
0.42756447528684344 13.3771398000662 166104.9857357293 7.249699155834214 0.2084817178938363
0.44455907725585053 13.314985183778099 139829.9577015729 7.624783960168463 0.21152072027018337
0.46193946006241393 13.26061665248956 118001.62261496512 8.015925848512428 0.21459123581257245
0.47970206074847066 13.213213106157001 99832.52843234385 8.423834396314888 0.21769498779465157
0.49785645114979704 13.172039496754092 84658.75518065628 8.84895751148286 0.2208295466135255
0.5163924724569164 13.136456346155622 71954.1919809737 9.292154353655832 0.22399812106009612
0.5353108764743487 13.105877768531546 61292.67807518872 9.754316111863469 0.22720372617476986
0.5546139003653103 13.07987621234132 52312.73530107967 10.236252114713992 0.23044771247740503
0.5742943581750898 13.05787310292286 44740.95044157308 10.738443257775982 0.23372690154182718
0.5943492011110978 13.039552155851355 38335.83856533321 11.262114700059943 0.2370472372271021
0.6147837594068143 13.024527119387468 32911.25608201108 11.808212941353688 0.24041045261552735
0.6355833444343398 13.012446159345394 28304.181563250073 12.377716656358768 0.24381818006419967
0.6567536955283174 13.003044368336903 24377.32740748503 12.97132823804361 0.24726852270625868
0.6782836250505714 12.995999616465589 21036.429165620993 13.59034752076747 0.2507659661218656
0.7001691281926993 12.991068874911914 18041.79497457408 14.235984547237196 0.2543132924244879
0.7224000545246597 12.988011690690396 15734.681695373636 14.90942857384988 0.2579124854101581
0.7449862437755801 12.98665006567773 13638.643874416632 15.611725884716627 0.2615636103615523
0.767902951889668 12.986756723195011 11839.426884435537 16.344109119997665 0.26526822961137597
0.791146102657635 12.98813114711898 10293.438220904043 17.108209705354565 0.2690311949680286
0.8147170628027882 12.99066182136513 8958.836757181962 17.905482117374707 0.27285493788893617
0.8385981485079793 12.994120661173433 7809.904133204064 18.737310264749446 0.2767407086578362
0.8627759862134298 12.99839453453069 6817.157536632419 19.605000848032606 0.2806886535701028
0.8872479420933737 13.003332114084303 5957.1754018533675 20.510656894362377 0.2847052947521296
0.9120056891690967 13.008827207561037 5213.1473169353485 21.45607176693891 0.28879364403301094
0.9370231758254575 13.01471427250769 4566.978571867054 22.44275311403585 0.2929538152364743
0.9622990954370578 13.020927889856253 4006.234944387309 23.472678349288994 0.29718922650442964
0.9878217532366468 13.027324468214836 3517.9764037260748 24.548291639618984 0.3015061622427988
1.0135607536710798 13.033776163101292 3093.390393577262 25.671562797492385 0.30590646186232906
1.0395221021564252 13.040220706438125 2722.576652804179 26.84439669361587 0.31039097170954805
1.0656703037947368 13.046547600743226 2399.2917680575783 28.06991566550665 0.3149686262566837
1.0919988716603228 13.052682565260305 2116.5734917453087 29.350206061514054 0.3196400907666317
1.11849594724454 13.058515954056153 1869.3870252592656 30.68795896866293 0.3244096117700177
1.1451235610404762 13.06397500145484 1652.8053521402123 32.086639852069524 0.3292856938392055
1.1718839865258321 13.068987038307238 1462.8016437226781 33.54811645744074 0.33426556180587647
1.1987374770207209 13.073443021315878 1295.9994332599429 35.076964118489 0.3393630094275856
1.2256803689161413 13.077316184969305 1149.57321692759 36.67524743855225 0.34457505475676303
1.252673668085703 13.080487905608276 1020.6378820819459 38.34794202875042 0.34991567491492637
1.279712265726214 13.08292953744939 907.114493708207 40.0973466861644 0.35538181137803654
1.3067554943829711 13.084522471061305 807.1264823770221 41.928916518353795 0.36098793134233437
1.333789561035362 13.085229367789946 718.8817685810552 43.84606563858049 0.3667355882765291
1.3607967013822304 13.08503566970029 640.9408389166557 45.85359168524765 0.3726331502441808
1.3877260423144484 13.083780159642886 572.0790660519741 47.95677008179323 0.3786902623963755
1.4145801239604194 13.081496538983796 511.06635592713934 50.16028776505658 0.3849122305907385
1.441302398855878 13.07805406615133 457.07338751858316 52.46949156731015 0.3913066948476767
1.4678949189839625 13.073458968817462 409.20882621360363 54.89072971040772 0.3978850048147319
1.4943034754904103 13.0675975609288 366.72147913508655 57.43018772689558 0.40465621424459647
1.5205136899752538 13.06046122831908 329.0017980338963 60.09448887028298 0.4116300863803109
1.5464962076372128 13.051982426716442 295.4353488130994 62.890733515542586 0.41881715236285116
1.5722119330114848 13.042109949834755 265.5916820546703 65.82654233135939 0.4262287744057968
1.597635102883582 13.030791586963844 239.04897772278102 68.91010360693956 0.43387721429505255
1.6227157243717787 13.0179516921438 215.33968581824072 72.1502251637783 0.44177570783993103
1.6474732385799682 13.00365025365357 194.19295840344034 75.55639133673724 0.44993854597758837
1.671823955798208 12.987724987267965 175.32690798345197 79.13862142389081 0.4583803107677985
1.6957611318026593 12.970188616423968 158.44708754250513 82.90692428925531 0.46711352475046564
1.719225660663784 12.950955575147281 143.35969011824776 86.87411341637777 0.4761600862851357
1.7422287674413268 12.930061473274048 129.84629545792436 91.05186444938921 0.4855347489493737
1.7647098206056668 12.90742303303132 117.74228819299532 95.45404523378437 0.4952585739250151
1.7866377846342427 12.883001490597623 106.87790594374232 100.09453276277972 0.5053499318529137
1.8079779374553036 12.856758137046308 97.1383876666328 104.98973160116037 0.5158340760002179
1.8286903772108616 12.828637942046752 88.37675162887264 110.15615216114509 0.5267334606639814
1.8487720339900697 12.798686073319196 80.50719482363967 115.6113389282961 0.5380711781166302
1.8681606148636851 12.7667960596133 73.42171315588809 121.37567594457275 0.5498772441342652
1.8868344715966199 12.732961172993383 67.0452498854898 127.47046510876991 0.5621810492011711
1.9047601725129877 12.69716051655779 61.288956656997044 133.91826150634873 0.5750123369364117
1.9219062180484183 12.659363659532135 56.10459780380398 140.74445314347724 0.5884064041365852
1.9382235417835425 12.619491992654288 51.418822704856645 147.97683289167753 0.6024019821327377
1.9537260129656444 12.577672353673048 47.19079014257683 155.6440386910787 0.6170353650166392
1.9683464285035526 12.533757717978606 43.36162354232593 163.77953002668858 0.6323535633655549
1.9820689342117137 12.48778020618761 39.89938091231768 172.4168816332814 0.6483975381616511
1.9948628959467423 12.439720813791514 36.76393272557815 181.59567755676653 0.6652215236030176
2.0066991435358754 12.389567931640205 33.923014446340844 191.3577174924316 0.682879333738421
2.017559296809086 12.337327295352697 31.34468889610883 201.74899028560992 0.7014301427379604
2.0274019656843842 12.282962854417997 29.00654798098125 212.8195802414572 0.7209371675616354
2.0362203262398366 12.226517670273273 26.883477813609606 224.6245513448457 0.7414694629760208
2.0439719140249424 12.167946230458982 24.95425774438926 237.2253800964739 0.7631053114131668
2.050639632685641 12.107263863325425 23.19893632920237 250.68856542613437 0.7859262497935643
2.0562152683036112 12.044518005882193 21.603822170217036 265.0872827384984 0.8100208408945281
2.0606774926842046 11.97971567140754 20.15131299874951 280.50341609116964 0.8354894233530078
2.0639971340410486 11.91285350512041 18.83074571195501 297.0261348497509 0.8624373388902401
2.0661622758634524 11.84396284306825 17.627072546490048 314.7559140882038 0.8909856175087097
2.0671655107520883 11.773095604010269 16.530767452509565 333.8022462579012 0.9212606671672932
