M[M_sun], R[km], Lambda[1], P_c[MeV/fm^3], rho_c[fm^-3]
0.24162668629717493 15.618656898711224 2160425.4255784233 3.5677272577965504 0.1711233750220791
0.25364505211864613 15.277236768861794 1723211.3378459923 3.7848400777186466 0.1738884282231846
0.2660418759349683 14.98124100956188 1382995.2395066414 4.011444522130795 0.17666718120670136
0.2788180705789667 14.723459052710114 1116464.4083386154 4.247796047036141 0.17945830097249726
0.29197403272901923 14.498359329329261 905844.8411634134 4.494520106210233 0.18226835866089525
0.3055107173233908 14.30113645922184 738589.5552963236 4.75177316388334 0.18509307735384842
0.31942828171676885 14.12806051341139 605027.7167336255 5.020236149859389 0.18793904599429062
0.33372852340703757 13.975861549315258 497636.49492436124 5.30013494348715 0.1908029232059355
0.3484109429704599 13.841943566034475 410954.8808309873 5.592196130163661 0.19369096436989597
0.36347385937327603 13.723923319824403 340640.54794610833 5.896589576494707 0.19659828014538333
0.37893051291608765 13.619919278905703 283271.3428064653 6.214178344497496 0.19953252965795107
0.39476435041677277 13.528364011881923 236371.07833120364 6.545217407355707 0.20248984760045138
0.410990883361174 13.447792879085101 197833.1127581149 6.8904141160367125 0.20547402858010028
0.42759949784195905 13.37701007800534 166053.36009064477 7.250471506881496 0.20848810735611384
0.44459778041957515 13.314878583675112 139778.26349747894 7.625645167745944 0.21152757603625477
0.46197920613168336 13.260502166220501 117948.21710255706 8.01689093452119 0.21459870153308874
0.4797475647834033 13.21312258783453 99791.20939490778 8.424910886654965 0.21770308149710305
0.4979062269645328 13.171937149282856 84622.66759283653 8.850141437101094 0.22083811874085402
0.5164475301628018 13.136345994331768 71924.15605346083 9.29346487465193 0.2240073472096101
0.5353679538989856 13.105798985403137 61260.40584346601 9.75576211426998 0.2272136262726585
0.554676616513574 13.079786375372889 52290.987665927954 10.237841612661562 0.2304582891622389
0.5743617254428268 13.057817888331815 44717.83632770703 10.740172162573769 0.23373800164617664
0.5944204064877225 13.039509193791545 38317.80567171673 11.264007600757756 0.23705906410491653
0.6148573492024051 13.024509112093503 32891.332894919295 11.810281020760426 0.2404230299888346
0.6356668688161098 13.012412351708743 28283.41759083339 12.379971794969778 0.24383153290725346
0.6568395429989068 13.00299815165367 24362.766618079557 12.973760079875444 0.24728242211694576
0.6783734771709541 12.9959658445727 21021.353091101642 13.59299059948375 0.25078068207603466
0.7002642614375583 12.99104530084525 18166.739990180642 14.238853035184135 0.25432885411159667
0.7225016869960781 12.988002743224772 15724.093636822256 14.912537553998385 0.25792892376014215
0.7450916018293205 12.986640402217457 13629.270626648662 15.615061074161122 0.26158065763767396
0.7680158223878288 12.986751808163573 11832.715895145018 16.347715685481603 0.26528620743575554
0.7912632212481239 12.988140890582086 10217.800691300341 17.112105748252507 0.26905014010533046
0.814840077035134 12.990671289543787 8953.086634388712 17.909686939192053 0.2728748894678003
0.8387247953856128 12.994144373009707 7804.8612521611385 18.741805215160888 0.2767613606292269
0.8629092167924439 12.998414094735068 6811.711298038463 19.609844374052813 0.28071038341670346
0.887392336519347 13.003370542442307 5953.143263263169 20.515872308755874 0.28472814950666464
0.9121512110099803 13.008858509331118 5209.142364806231 21.46168397891478 0.2888176738994681
0.9371729721317037 13.014762993557934 4563.368784039775 22.44873874474783 0.29297867613875056
0.9624604484205024 13.020958609492544 4003.012594997424 23.479112516413334 0.2972153575688989
0.9879826347464102 13.027360193338895 3495.8413864684235 24.55520462944055 0.3015336242696095
1.0137284702660225 13.03380442555447 3074.098541626353 25.678927850217928 0.30593488501922605
1.0396952275866862 13.040267644716693 2720.3042177560046 26.852303851249843 0.3104208435272509
1.065847102695208 13.046600625962496 2397.127495012248 28.07840194267499 0.3150000206860455
1.0921825595184853 13.052731697475132 2114.7261656567152 29.359241380684395 0.3196726123679307
1.1186835036891243 13.058555724273411 1867.5718754441668 30.697651205656744 0.3244438017640547
1.145317615828639 13.064018624147725 1651.3760754908667 32.096957372713504 0.3293211438239033
1.1720822452025252 13.069024831648134 1461.3701192493256 33.55918028865354 0.33430284805779237
1.198941163228969 13.073478496529168 1294.8240217961281 35.088826481062355 0.33940223504472194
1.225888821071026 13.077349618865167 1148.525698302949 36.68787390799299 0.3446157857926434
1.2528866809153707 13.08051057478435 1019.6477001558446 38.36142021652826 0.34995821526656845
1.279931971077316 13.082946558557689 906.2549635500541 40.11175664020971 0.3554263909617982
1.3069838425459082 13.084547793073641 806.3900081461724 41.94426013822422 0.3610343174297509
1.3340167962097818 13.0852387045189 718.2515653522877 43.862514956915064 0.3667844841575804
1.3610263542059602 13.085032134352925 640.3113292912662 45.871112234347166 0.3726840976209755
1.3879595980677275 13.083765731354337 571.5318131757421 47.97543669926972 0.37874339361542886
1.4148114136132535 13.081460004756012 510.5949123570285 50.18030514270027 0.3849683214888567
1.4415424941876196 13.078015489104596 456.6524817270046 52.4908279272164 0.39136527649793607
1.468137229057634 13.073412928144128 408.7972320924062 54.913479530474554 0.3979462432388859
1.4945496875061475 13.067538304194548 366.35102981702465 57.45445313799619 0.4047202882989681
1.520761460786971 13.060387171996968 328.6804376967511 60.12038034147176 0.41169718880981304
1.5467454998708767 13.051893053136407 295.1330955848217 62.91837060763389 0.4188874909594698
1.5724629277816626 13.042005285939375 265.3236188324402 65.85605452649251 0.42630257328274324
1.5978766535162021 13.030665016089744 238.7870364268934 68.94163122267112 0.43395471528911167
1.622975136184605 13.017842479199594 215.12453677728215 72.1839203612919 0.4418571720560241
1.6477275194926375 13.003492233382106 193.98641535302536 75.59241923395098 0.4500242554912594
1.6720756804555397 12.987550502595836 175.14741362832947 79.17697319422547 0.4584697850092165
1.6960125485419524 12.96998864522488 158.27068490342887 82.94797412598476 0.4672078571557134
1.719491330174705 12.950771260414891 143.19846039244857 86.91807263958295 0.4762596322973461
1.7424737596393591 12.929819855759606 129.7146037761741 91.09875135652696 0.4856390550593051
1.7649558624236865 12.907160556568591 117.60955384516505 95.50431151768926 0.4953688693758182
1.786881510068863 12.882720048846956 106.76281839136067 100.14822219218235 0.5054657913123145
1.8082182044630133 12.85644795014022 97.0337172524351 105.0471225910494 0.5159559458875436
1.8289314383315813 12.828312741161945 88.28548114649841 110.21756543461699 0.5268618872746809
1.8490038720619664 12.798321172689983 80.41703991630875 115.67732277631183 0.5382074779773552
1.868378968000364 12.766371762990138 73.3458435755896 121.44636746238852 0.5500211461589869
1.8870526609840879 12.732542067344218 66.96880235951252 127.54614087661348 0.5623327415200429
1.9049746704624055 12.696711864398052 61.22427101383317 133.99931784519896 0.575172367317072
1.9221143911958625 12.658880260150825 56.04415776029092 140.83151381164203 0.588576031425669
1.9384237693979127 12.6189782435022 51.36275132687814 148.0704192660566 0.6025820001800684
1.9539165372801537 12.577119466181813 47.138873605876746 155.7444151589148 0.6172255884710148
1.9685303159174006 12.53317885680121 43.31816593091914 163.88730488345058 0.6325548876936579
1.9822403358271907 12.48716407990187 39.85668671923192 172.53304725183398 0.6486120252750225
1.9950241624537153 12.439069776925013 36.725500812006715 181.72065505775544 0.66544917185398
2.0068592798000955 12.388893393498213 33.8853344131413 191.49231848705054 0.6831213075607436
2.017698752125584 12.336605147447319 31.31131976883677 201.89411007719872 0.7016877160531435
2.0275305139762088 12.282210823103997 28.97575335059527 212.97584155807584 0.7212105373862421
2.0363340297288173 12.225723476828142 26.855467125929447 224.79340057127422 0.7417613228836324
2.0440727674349413 12.16711455811062 24.92958988224903 237.4076398469796 0.7634160810304449
2.050726778403023 12.106389140978537 23.17540473320191 250.8856643526835 0.7862580682301828
2.0562937525335188 12.043624539541739 21.583147789824 265.30080751786437 0.8103760691001032
2.0607339630835653 11.978758675277922 20.13252618645304 280.73440259602324 0.8358682949826057
2.0640331064294637 11.911846278936142 18.812560538710166 297.27673847779255 0.8628433616711051
2.0661857270692567 11.842928986623905 17.610404234508117 315.02814726072216 0.8914214092737676
2.0671714077821037 11.772021637271639 16.514778341560714 334.0979045475071 0.9217276358187082
