M[M_sun], R[km], Lambda[1], P_c[MeV/fm^3], rho_c[fm^-3]
0.24162668629717493 15.618656898711224 2160425.4255784233 3.5677272577965504 0.1711233750220791
0.25364100343171203 15.277365847273481 1723256.8738851368 3.7847809905705376 0.17388769173038798
0.2660350782478117 14.9813579306295 1383082.8675073048 4.011320309437697 0.1766656801696106
0.278808073686725 14.723649929994401 1116530.721622155 4.247602506782527 0.17945605619721428
0.2919601973456982 14.498549132684552 906038.3648146937 4.494252160056271 0.1822653750182838
0.3054928843343253 14.30139231426384 738775.4846394596 4.751421714172978 0.18508928102622466
0.3194057612279054 14.128314432258623 605270.1277693798 5.019798608052809 0.18793450632917172
0.3337011050328465 13.976158008855725 497811.01763832435 5.29959979074535 0.19079753510580458
0.3483784607565669 13.8421677898424 411118.5890698126 5.591562030681355 0.1936848292829699
0.36343692264778305 13.72419385232581 340752.4425632092 5.89584228488503 0.1965912614244415
0.3788892835086997 13.62016209363855 283395.5689675761 6.213308818004257 0.1995246006233108
0.39471697418902557 13.528621981688026 236494.6156115731 6.5442265491068055 0.20248115911219244
0.4109382809082301 13.44805847634238 197945.23680078128 6.889282798321224 0.20546439380369613
0.4275412387074323 13.37723000974323 166150.06848605763 7.249189114222367 0.20847749845029395
0.44453421610283955 13.315063493956929 139864.9650413994 7.62421524485258 0.2115161929305862
0.4619105612570578 13.260712468630189 118039.09709530672 8.01528854114294 0.2145863057248286
0.47967113254145577 13.213283446149024 99856.29043580004 8.423123528394587 0.21768964306166602
0.4978229107192445 13.172110476151751 84686.25348096232 8.848175704477685 0.22082388599676758
0.5163555999381472 13.136528219148799 71976.98784109786 9.291288957352494 0.22399202861616943
0.5352701089732631 13.105945995252755 61308.172687404716 9.753361260013044 0.2271971887535693
0.5545729035874339 13.079924852785979 52331.671245387915 10.235201584670179 0.23044071635712635
0.5742505996912232 13.057913004473635 44757.46611154311 10.73730161428132 0.23371957183695455
0.5943020869984367 13.039585599006156 38352.06587353813 11.260864777140812 0.2370394276860844
0.614733708357125 13.02455704868804 32923.57210972229 11.806847356822951 0.24040214758315298
0.6355296542579777 13.012472482879042 28312.33588521475 12.376227567548414 0.24380936305885875
0.6566959708474159 13.00307691387768 24193.564935998336 12.969722482968876 0.24725934486872236
0.6782229613288246 12.996025417558531 21042.500337828184 13.588602301193768 0.25075624920685147
0.7001054919694796 12.991083971113367 18185.158167178266 14.234090507863705 0.2543030171684481
0.7223338477556196 12.988012147671805 15740.331533549823 14.907375758375233 0.257901631400929
0.7449152472201539 12.986661357510695 13644.147183973817 15.609523723276576 0.26155235437302216
0.7678301925786516 12.986757696463755 11844.969839998677 16.341727796168357 0.2652563593093435
0.7910687356706079 12.988128995327678 10297.767704850332 17.105637270748648 0.26901868608963947
0.814635787764611 12.990655212715273 8963.466215544939 17.90270583156573 0.2728417646112865
0.8385119126628449 12.994105242948601 7813.269592676788 18.734342440481157 0.27672707304091687
0.8626880742308796 12.998375006968061 6820.298301545912 19.601802904019046 0.2806743064121517
0.8871568395150952 13.003319024263785 5960.677233871283 20.507213442937662 0.2846902050140709
0.9119093244777859 13.00882114578021 5215.769769321246 21.452366366893205 0.2887777785830509
0.9369261903852837 13.014686829319267 4542.954345549272 22.438801198741842 0.2929374012302223
0.9621961278153351 13.020898790461734 4008.2798966202245 23.468430335675677 0.2971719740589381
0.9877157340514015 13.027291141419838 3519.8371783934786 24.543727538028833 0.30148803123386186
1.013452252942063 13.033740206261982 3094.761021240988 25.666700272308344 0.30588769644117436
1.0394085583057104 13.040198739132626 2724.0520652924797 26.8391763130604 0.310371250051841
1.0655566094085063 13.046527078157126 2400.471097818533 28.06431299991069 0.3149478995604185
1.091878709459378 13.05265145623847 2117.9031664822614 29.344240964337413 0.31961862007938413
1.1183710135769642 13.058493141335662 1870.4675586390008 30.681560239991516 0.324387039840002
1.1449966673436829 13.063954197466458 1653.7906386239604 32.07982837217592 0.3292622902651949
1.1717533658035475 13.068967225284112 1463.6411893351385 33.54081234871918 0.3342409462063997
1.1986028239660333 13.07343292791714 1296.7506858196377 35.06913291730275 0.3393371137683061
1.225543713369732 13.077299570895994 1150.2164143592956 36.666911865808785 0.34454816548941153
1.252533779300264 13.080471861104217 1021.2713119613785 38.33900620505198 0.34988736818437705
1.2795707684262028 13.08291612787624 907.717586393922 40.087833900383814 0.3553523819968478
1.3066094894930989 13.08450696815015 807.6780455281921 41.91878745918341 0.3609573096619165
1.3336415029503315 13.085232159758498 719.3889594003471 43.835206774799424 0.36670331011758095
1.3606452180243063 13.085038223262925 641.327722786108 45.842025764374846 0.3725995181173943
1.3875711692754569 13.083790901018261 572.4485607440822 47.944447716413315 0.3786551889667582
1.414423719127827 13.081512002769896 511.39414767592075 50.14707387714767 0.38487520382061713
1.4411510613050633 13.078093062565951 457.39919220002434 52.45540712813569 0.391268024254687
1.4677350170950318 13.073490090284901 409.4944443739333 54.8757123741801 0.39784458084641616
1.4941397111575352 13.067640759990685 366.9592947555568 57.414170098648555 0.4046139188810871
1.520350404027975 13.060511082335998 329.22309310811266 60.07739805389599 0.411585792439137
1.5463312075469293 13.052040637546515 295.64040916689754 62.87249061667493 0.4187707227348582
1.5720458306213436 13.042176975779107 265.7820287832752 65.80706191027488 0.4261800612147924
1.5974681501761712 13.030873022137397 239.20615552950375 68.8892930755899 0.433826057972918
1.622554936160298 13.018071905291503 215.4972218042667 72.12798412082287 0.4417219361079587
1.6473073040184232 13.003753490760877 194.33162408333104 75.53261083339177 0.44988197272368735
1.6716571849247268 12.987841794682451 175.44595561476928 79.1133072788535 0.4583212531570391
1.6955951023206093 12.970319153089976 158.55761277231218 82.87982960985039 0.46705126125610563
1.7190595333698728 12.951096750777392 143.4686360024456 86.8450987757469 0.4760943823995815
1.74206544910234 12.930222929137463 129.94592167686733 91.02091776854988 0.48546590397556993
1.7645506081873166 12.907606185702281 117.8208711790609 95.42086850255907 0.4951857767687027
1.7864774391430758 12.883190746848491 106.95414770997955 100.05909709665067 0.50527346322274
1.8078204132379867 12.856961606675348 97.2073940372729 104.95185331156546 0.5157536413728672
1.8285445253954489 12.828882216916487 88.44256211777018 110.11547068936018 0.5266481451724198
1.8486192750578332 12.798926312289106 80.56683090769478 115.56779048388736 0.5379812220578947
1.8680113972051131 12.767052991662094 73.47395632665297 121.32902111265633 0.5497822719935719
1.8866883824646157 12.733240318201842 67.09204673816392 127.4204420490996 0.5620806533195538
1.9046183271475718 12.697457614982742 61.33443093759461 133.86476750035047 0.5749067231588297
1.921752388697539 12.659631715311606 56.14300755018023 140.6869973450137 0.5882944583918424
1.9380986977183292 12.619857590848651 51.457410822213895 147.91507136552548 0.6022831807643567
1.9535956685244162 12.578019662030815 47.22326875559784 155.5777970113757 0.6169098304027165
1.9682267660430155 12.534137027484855 43.39257097002548 163.70820327530342 0.6322200154699527
1.9819557294723364 12.488186568842016 39.92750011576059 172.34022253707315 0.6482559955222348
1.9947542601147703 12.440145288788582 36.78977447190159 181.51320466307675 0.6650712980836102
2.0066001696295257 12.390018310196172 33.947101121275246 191.2688954572319 0.6827196573004825
2.017467245121877 12.337802946276788 31.36689414110461 201.65322857625517 0.7012601751499695
2.0273185638341755 12.283466521887576 29.02656199185221 212.7164680857078 0.720756779014156
2.036143652998861 12.227043898469855 26.90184385380415 224.51313479661823 0.7412768768199577
2.043905732155284 12.168497622977023 24.970070965395287 237.10511656881403 0.7629002510509109
2.0505825354655243 12.107841218475924 23.21412439035738 250.55832547420758 0.7857066946739114
2.0561677737313095 12.045120551130266 21.618893200689037 264.9463573919516 0.8097863329302842
2.0606398210970647 11.980342270006453 20.165414858260945 280.35084830899035 0.835238915735937
2.0639720455978066 11.913509133094813 18.84319212844379 296.8607874185582 0.8621694464245708
2.0661465144768587 11.844645521477801 17.638182537713156 314.5762993240796 0.8906980895988521
2.067161445046242 11.77380803401062 16.54204109802771 333.60718003694194 0.9209525756530679
