M[M_sun], R[km], Lambda[1], P_c[MeV/fm^3], rho_c[fm^-3]
0.24162668629717493 15.618656898711224 2160425.4255784233 3.5677272577965504 0.1711233750220791
0.25364481217619295 15.277247394644224 1723135.4823105026 3.7848353144972555 0.1738883688519278
0.26604103038428895 14.981250174387895 1382987.0970332085 4.011434508809798 0.1766670602016266
0.27881723396974484 14.723474109538515 1116429.279572332 4.247780444767988 0.1794581200096988
0.29197280115826735 14.49837695691305 905785.1569583602 4.4944985054954545 0.18226811813192292
0.3055091748368836 14.301169208593558 738624.8943340074 4.7517448311805515 0.18509277130658452
0.31942779613263056 14.128058749041992 605042.1629248955 5.020200876374953 0.1879386800182753
0.3337273540608436 13.975883447967178 497657.37165149377 5.300091800453742 0.19080248882717632
0.3484083683811526 13.841965413877245 410968.18955931824 5.592145009773728 0.19369046976606064
0.3634714657284844 13.723945169207498 340634.5469617025 5.896529330124464 0.19659771429872452
0.3789259417659635 13.619954563925951 283269.44448217936 6.2141082429524 0.19953189041626754
0.39476070087623616 13.528387711822319 236384.43993941255 6.545137523329439 0.20248914712545904
0.4109866252513977 13.447810290784751 197835.15962296052 6.89032290719987 0.20547325180737144
0.42759591435251443 13.377011371720151 166059.84483613985 7.250368117189349 0.2084872520396872
0.4445915233272849 13.314884322120324 139775.6377345951 7.6255298828742175 0.21152665829454792
0.4619754303155051 13.260522778436613 117960.29626481132 8.01676174339972 0.21459770213531765
0.47974167281881336 13.213105003338868 99793.88939871268 8.424766781689296 0.21770199802921628
0.4978995076423639 13.171949493492422 84625.87425334493 8.849982949560594 0.22083697122334428
0.5164400687878993 13.136366784534864 71928.37194328998 9.293289439416927 0.22400611213461857
0.5353601496854647 13.10581528536321 61264.88119190751 9.755568541626651 0.2272123009718783
0.5546680710064219 13.07979844130111 52294.90340549071 10.237630052464906 0.23045688900529088
0.5743528600275749 13.05781318056468 44721.22456692744 10.739940716411734 0.23373651569012333
0.5944115868587639 13.03951751587165 38322.82046108103 11.263754199459447 0.2370574808490191
0.6148496256010326 13.024483969883978 32894.41965184106 11.810004167073002 0.2404213462564949
0.635656303356264 13.012415115276044 28285.872703745383 12.379669898218667 0.2438297453541885
0.6568281897198593 13.003002232023807 24365.312703319643 12.973434526436728 0.24728056138698953
0.6783612770230822 12.995985877084525 21022.805701916 13.592636765822204 0.25077871202500485
0.7002522435047293 12.991057871094249 18032.319993287558 14.238469023740024 0.2543267708307707
0.72248767073656 12.987992279142503 15725.160315949355 14.912121345275066 0.2579267231077309
0.7450775442235167 12.986653262708428 13630.719325460921 15.614614580325222 0.2615783754573559
0.7679998729074679 12.986762059052602 11833.480746323206 16.3472328592312 0.2652838006679943
0.791247077449172 12.988147793406291 10217.363281325963 17.111584165910266 0.26904760382702275
0.8148238886582134 12.99066362432625 8953.894785117429 17.909124016374232 0.27287221843928067
0.8387078331720008 12.994137751186452 7805.483685378137 18.741203448834376 0.2767585958243189
0.862889250464063 12.998422955900734 6812.270894054194 19.60919593863098 0.28070747429591253
0.8873722930928061 13.003364744550451 5953.569983180268 20.515174082713873 0.28472508977188693
0.9121270995001026 13.0088692128481 5209.389061171368 21.460932626946953 0.2888144568279236
0.9371529553941627 13.014759621566121 4563.96647890635 22.44793739700619 0.29297534779645
0.9624385941736106 13.020958821479661 3980.895466060356 23.478251114964518 0.2972118591616679
0.987960809592412 13.027352783919572 3515.4672635610114 24.55427911892605 0.3015299476556959
1.013704951212701 13.033802130964236 3090.843407091865 25.677941813553563 0.3059310797138383
1.0396710827595446 13.040260904186816 2720.601207734197 26.851245231942546 0.310416844254133
1.0658252369112955 13.046590316723888 2397.4814082845983 28.077265784345737 0.31499581754234607
1.0921588019851056 13.052721258657273 2115.0412774862925 29.35803171057189 0.3196682582982669
1.118656820413597 13.058554944701878 1867.7541024197558 30.69635357903003 0.32443922430204486
1.1452905806012195 13.064010490784485 1651.5538427803544 32.09557602531113 0.32931639765028603
1.1720560744189379 13.069013799014346 1461.541713261918 33.55769901455403 0.33429785601135126
1.1989141185954868 13.073476809537706 1295.0098771317128 35.0872382875082 0.3393969833191986
1.2258611347758464 13.07733928275365 1148.653332749328 36.68618340445921 0.34461033248992773
1.2528583434550724 13.08049801473877 1019.8316355504155 38.359620541271376 0.3499525482617131
1.2799026168606875 13.082940941391286 906.4107283642137 40.10982733416633 0.35542042233343946
1.3069472098201436 13.084522367473662 806.5144923427148 41.942205816946775 0.36102810690530085
1.333985151396126 13.085242512458665 718.286293511121 43.8603125835724 0.3667779375650224
1.3609957809177868 13.085029277378576 640.3924949811212 45.868766424401 0.37267727632430625
1.3879289296260242 13.083770709239786 571.5869306702344 47.97293743114379 0.3787362798915611
1.4147788464205395 13.081460559341682 510.64400222034175 50.17762500552329 0.3849608114491296
1.4415110091929766 13.078019342425668 456.7204737904162 52.48797117638246 0.3913574329304781
1.4681060916282116 13.073416781031467 408.86766482658095 54.910433514062156 0.3979380439105178
1.4945163707741966 13.067545853928182 366.3924470148508 57.451204179136084 0.40471170925755845
1.5207286441764156 13.060398211788058 328.72719713537924 60.11691364656821 0.41168820424309316
1.5467128705929143 13.051904431478711 295.17734154207835 62.914670165426784 0.4188780730398545
1.572429115531977 13.04202008847432 265.3591780790368 65.85210299693972 0.42629269199665454
1.5978430745524066 13.030680069335311 238.81264003781092 68.93740981450844 0.43394433824913115
1.6229407140914707 13.017857937980242 215.15775877225443 72.1794086969832 0.4418462642939896
1.6476929743632893 13.003513490094564 194.01943550549285 75.58759520058746 0.45001277923020905
1.6720417526713682 12.987576915284329 175.16442230999655 79.17183797443899 0.45845780460020535
1.6959779764334384 12.970017928150254 158.2991508228143 82.94247760613355 0.46719522616910375
1.7194590668679324 12.950799373174869 143.22265768642464 86.91218651851024 0.47624630312914307
1.7424345907710121 12.929821858381562 129.7323971306772 91.0924731844239 0.48562508843728786
1.7649224258287528 12.907195260960505 117.63226632919195 95.49758080005729 0.4953541006784375
1.7868489693411143 12.88275760550343 106.78192202392735 100.1410330679417 0.5054502774940945
1.8081861484321802 12.856489379142529 97.04718004610571 105.03943777259745 0.5159396271594529
1.8288992676208784 12.82835728268931 88.29750680549132 110.20934424971783 0.5268446989639557
1.8489726946569989 12.798370452529033 80.42964731266824 115.66848722597231 0.5381892267792678
1.8683480708937896 12.766424604422202 73.35507184446902 121.43690146809524 0.5500018768635057
1.8870236493574195 12.732598354586578 66.98087715842257 127.5360272785198 0.5623124999541899
1.9049456664748936 12.69677228977179 61.231347970560996 133.98846379691125 0.5751509380555999
1.9220853998726712 12.658945474874901 56.050282015130435 140.81985565108727 0.588553316895534
1.9383977973030797 12.619047202485465 51.370968536031185 148.05788716077512 0.6025578940520483
1.953893428471024 12.577193500598291 47.14613283889629 155.73097369919853 0.6172001155593434
1.9685048519012045 12.533252552575018 43.32361627891821 163.87287259438347 0.6325279280577398
1.9822170585530383 12.487245155091298 39.86359977528633 172.51749121029619 0.6485833027451854
1.9950024723339064 12.43915531306823 36.73001824030699 181.7039188595569 0.6654186866369008
2.0068369368234844 12.388987216422946 33.890643004290425 191.4742934209601 0.6830889036832547
2.017679439571186 12.336702127038398 31.313414523000404 201.87467622022803 0.7016532228740124
2.027513662669898 12.282309099710966 28.98037561510555 212.95491550070943 0.7211739285008458
2.036319052312793 12.225828790065645 26.859086320217653 224.7707885671043 0.7417222374961092
2.0440587362165954 12.167225919825837 24.932758711263865 237.38323170940052 0.7633744629137028
2.0507147879548944 12.106505893295356 23.179172848196963 250.85928368984594 0.7862136796227708
2.0562839179608097 12.043747505946028 21.58603330177993 265.2722586423378 0.8103286487346217
2.060726226487313 11.978886965914738 20.134421527012535 280.7034680921595 0.8358175551963265
2.0640270888897745 11.911981161804041 18.81505272189372 297.24317642825963 0.8627889851371763
2.0661834266132075 11.843067123815715 17.612179423116533 314.991688079104 0.891363045294966
2.0671700062456724 11.772166069770547 16.517075642866455 334.0583076996796 0.9216650957605385
