M[M_sun], R[km], Lambda[1], P_c[MeV/fm^3], rho_c[fm^-3]
0.24162668629717493 15.618656898711224 2160425.4255784233 3.5677272577965504 0.1711233750220791
0.25363314566233186 15.277559451746916 1723582.139221335 3.7846251038964986 0.1738857486781983
0.26601771690522164 14.981745608051176 1383464.9824524892 4.0109926184930185 0.1766617202179341
0.2787802523096202 14.724172417796032 1117053.2269301375 4.2470919396369275 0.1794501343877336
0.2919230263514781 14.499152856862437 906608.042323959 4.4935453338976155 0.18225750434496138
0.3054444126544106 14.30202348402004 739283.5569655335 4.750494646212223 0.1850792669229127
0.3193462253676251 14.129004417761351 605683.0743148006 5.018644484923654 0.18792253185625613
0.333630107984183 13.976819805461641 498274.15647479706 5.298188247915518 0.19078332321168126
0.3482951504223098 13.84292473539668 411553.33941246755 5.589889559967231 0.1936686476687299
0.36334217413031955 13.72485494966866 341154.22268041346 5.893871336195011 0.19657274985724763
0.37877791286288065 13.620881053338428 283769.78239645663 6.211015563589335 0.19950368890430475
0.3945929965685271 13.529298840466538 236830.52991946047 6.541613385957942 0.2024582452015874
0.4107995990548032 13.448694974110916 198240.3629278962 6.88629931165355 0.20543898517926262
0.42738754112173943 13.377852790726022 166421.24475213085 7.245807335809556 0.20844952186416033
0.4443630902982184 13.315694959276028 140104.71830574636 7.620444536310759 0.21148617566603567
0.4617247957482685 13.261242808503411 118248.60904390494 8.0110631749675 0.21455361910139972
0.47946829625581133 13.213784218019086 100055.04890663082 8.418410590081638 0.21765420835411958
0.49760383580010153 13.172562301996814 84853.38813254765 8.842992583446897 0.22078635798592747
0.5161180411408935 13.13691894603145 72133.94704181302 9.285551830876637 0.22395163888811126
0.5350150281714581 13.106319291845773 61445.21427445215 9.747031270110448 0.22715385029203725
0.5542976731473429 13.080257148248549 52450.528668260085 10.228237514016962 0.2303943383632687
0.573954749428675 13.05820279725493 44860.72493189302 10.729733727767455 0.23367098366129768
0.5939914306350308 13.039855290194106 38444.298225897815 11.252579345931775 0.2369876601619547
0.6143994460770119 13.024777970306483 33005.21542070467 11.797795487674783 0.24034709711602192
0.6351740168423189 13.012658495816831 28150.56528639034 12.366357319152222 0.24375092058570316
0.6563163367253041 13.003202709016882 24451.856472530708 12.959079177545517 0.24719851209941524
0.6778252885011832 12.996118106373626 21099.580509115112 13.577034917109398 0.25069184511135734
0.6996862888191379 12.991145526640908 18236.37031495614 14.221537091521292 0.25423491427212086
0.7218917705763598 12.988058059386145 15785.749170435332 14.893770378410872 0.25782969462847066
0.7444507861419634 12.986665223975365 13683.769522364615 15.594928866122888 0.26147775514440386
0.7673410981008163 12.986738606920689 11881.034847977173 16.325945979888054 0.2651776909134024
0.790558686789975 12.98807324612026 10328.870623987123 17.088589379644226 0.2689357879680989
0.8140974758722402 12.990568520849921 8992.45924606413 17.88430750840778 0.2727544658834452
0.8379549232892202 12.9940097400482 7839.174936442436 18.714626461110118 0.27663627988429773
0.8621093857736739 12.998275338417857 6842.617117494581 19.580611359914997 0.2805792333185643
0.8865475796326392 13.003196570506095 5980.455276277291 20.48439566604401 0.2845902139777706
0.9112786862348691 13.00866429628695 5233.40545572907 21.42781351066751 0.28867265036288015
0.9362727036856492 13.014543556275195 4585.228997945414 22.412615483108393 0.29282864067536657
0.9615166651094672 13.020724787723703 4022.0699540863884 23.440283463423505 0.2970576612474714
0.9870114455194663 13.027113058397594 3532.338638741607 24.513487184035657 0.30136790066321706
1.0127232703882936 13.033562734198505 3106.029226372507 25.634448912564636 0.30576311171051224
1.038649869996724 13.040008406076286 2734.2512032037357 26.8045894943577 0.310240587278815
1.0647799016396347 13.046350695433818 2409.579350980768 28.02719452019917 0.3148105821636136
1.0910785069872264 13.052473373898609 2125.8181214876404 29.304722278900304 0.319476377076407
1.117547577583207 13.058321410461748 1877.5144550258528 30.63917004143679 0.32423750566778387
1.1441527966780622 13.063792505884313 1660.1104964458018 32.034386527673064 0.329105190374331
1.1708838320329662 13.068816941430835 1469.3883806655515 33.492426900499275 0.3340778822571501
1.1977107358897363 13.073289764075902 1301.9829606322355 35.017257420497316 0.3391655755638495
1.2246315501755018 13.077175312004218 1149.6782975620063 36.611696724133076 0.34437004998948595
1.2516054937396133 13.080380127811196 1025.4244079429961 38.27981688500923 0.34969986939407066
1.2786167643762731 13.082843172498169 911.4268112110926 40.024824549884585 0.35515745211646715
1.3056374183115396 13.084468973098755 810.995555052817 41.85169793134212 0.3607544878552334
1.3326576685998661 13.085249691290214 722.4238406765621 43.76328581753203 0.36648952383780214
1.3596370623860567 13.0850674785882 644.1410283434951 45.76542391922659 0.3723767703572773
1.3865482804418516 13.083859353285545 574.919294866545 47.86280338973196 0.3784227198519306
1.413376299023435 13.081601355625729 513.6521594348077 50.05956298167723 0.38462998864760894
1.440098955648316 13.078250164578714 459.4078168341147 52.36213361998977 0.39101193014788177
1.466665132785133 13.073685901181864 411.3157276469711 54.77626378177542 0.39757688312110206
1.493065059252777 13.067905164255771 368.6240072327683 57.308100565865324 0.4043338368753652
1.5192592496466042 13.06082581196049 330.71851551785977 59.964225353684036 0.41129248492168596
1.5452370556472377 13.052425185011272 296.98014637094616 62.751692866934796 0.41846328285792267
1.570945838717889 13.042631407371521 266.99535705676317 65.67807395888735 0.4258575109636478
1.5963626407893499 13.03139575385841 240.2822908527716 68.75150251744057 0.43348734205733896
1.6214584638829177 13.018677107075904 216.48717393951125 71.98072690510226 0.44136591523472035
1.6461893887494816 13.004428531685027 195.23183938221635 75.37516641428752 0.44950741618180584
1.6705536006538577 12.988608779588915 176.25565040678646 78.94497327667914 0.4579271648392476
1.6944871042710905 12.97116746250967 159.30638735875843 82.70045486407278 0.46663905861273275
1.717978419888729 12.95207989612217 144.13218422104333 86.6530205594765 0.4756594197440095
1.7409823587763673 12.931280435542268 130.56024431630806 90.81605607734627 0.48501016211951975
1.763469478000428 12.908745661440713 118.38100610994039 95.20125296554404 0.49470389124272524
1.7854087470272793 12.884436646774157 107.46642250682747 99.82453658444524 0.5047672918135204
1.8067554426435113 12.858293280022236 97.66700414569088 104.70077422036961 0.5152198794125482
1.8275066542727545 12.830354942750738 88.8666147082073 109.84620768533205 0.5260834579932174
1.8475915163316368 12.800484518659529 80.94891773322956 115.2795626025844 0.5373858427149182
1.8670177975036764 12.76876127375183 73.82745498522979 121.02024568193372 0.5491537183701923
1.8857083164531536 12.735044425348534 67.41059060719206 127.08938826346298 0.5614162310133055
1.903666476532362 12.69939364417974 61.631319760080096 133.51002140600414 0.5742052001688807
1.9208472091832274 12.661752052866161 56.41607620831886 140.30678426606062 0.5875536587263153
1.9372223336515537 12.622100540362384 51.704591079045606 147.50638364925888 0.6014970496086361
1.9527695860568597 12.580442803229763 47.44837654297383 155.1394815351744 0.6160791786993174
1.9674271204225298 12.536677927575639 43.597963750647594 163.2362335680309 0.6313362833290432
1.9812083490495993 12.490904774748104 40.11474943469937 171.83302315485696 0.6473195073190058
1.9940544362577837 12.443018238588715 36.96449200083953 180.96756494529635 0.66407740777195
2.0059335110962664 12.393008363648665 34.103170556912644 190.68127838053968 0.6816632910343059
2.0168456768579555 12.340935979131103 31.515108255944956 201.0197327912908 0.7001357826208641
2.02675198801079 12.286769350391301 29.16074763241138 212.03310748922684 0.7195593353728732
2.0356317404306985 12.23050702401088 27.02485266388058 223.77615221447456 0.7400029848816555
2.0434613079666875 12.17215245526446 25.084322320542068 236.30853982773084 0.7615402785721109
2.0502085153635923 12.11168316783892 23.32137832912678 249.69692747923955 0.7842545723638519
2.055845798880892 12.049106487615092 21.7149615319001 264.01433951040195 0.808235401026288
2.0603833187227565 11.984500523398596 20.254056091057 279.3411368995828 0.8335798020905957
2.0637918285744727 11.91785763952723 18.924176477400383 295.7665154184072 0.8603950972456321
2.0660395502138607 11.84917236072406 17.71270315040857 313.3886202383516 0.888796848981099
2.0671318645747703 11.778509478134781 16.610353641659607 332.3170437776681 0.9189142704000158
