M[M_sun], R[km], Lambda[1], P_c[MeV/fm^3], rho_c[fm^-3]
0.24162668629717493 15.618656898711224 2160425.4255784233 3.5677272577965504 0.1711233750220791
0.2536441466230863 15.27729073949916 1723232.8397677562 3.784822570750895 0.1738882100072772
0.2660405337677055 14.981265046219189 1382989.094951404 4.011407718788092 0.17666673646002465
0.27881578817764063 14.723508145145454 1116398.043793928 4.247738701995758 0.17945763585644595
0.29197024104164865 14.4984175751432 905880.3822916194 4.49444071447925 0.18226747461554488
0.3055063204804545 14.301199780294228 738646.5234660276 4.751669029496538 0.1850919525037275
0.3194216521657711 14.128143217853697 605108.1460302396 5.020106505512314 0.1879377008841516
0.333720394948802 13.97592518112332 497677.5995880437 5.299976375711634 0.1908013266915476
0.34840150980213364 13.842023353704784 411004.2622439116 5.592008242825275 0.19368914650821106
0.36346469083951705 13.72397386008249 340680.3959075058 5.896368148106139 0.19659620044309867
0.37891767202086263 13.61999750744158 283303.1667834343 6.213920695138052 0.19953018020602295
0.39475019862933747 13.528445513483632 236411.40839765366 6.544923804302518 0.20248727309831321
0.4109753653035903 13.447870234028136 197869.21850480777 6.890078890865668 0.2054711736618719
0.42758327859480616 13.377053599265157 166075.80625108763 7.250091513499105 0.20848496376824527
0.4445784901701922 13.314925360551861 139801.85334176422 7.625221456203472 0.21152420301993108
0.4619602007965476 13.260592955778346 117980.19509154475 8.016416113710607 0.21459502841024275
0.4797247522023861 13.21314843535298 99803.41105793473 8.42438125354179 0.2176990993965055
0.49788252420768336 13.171978483642341 84642.70092708361 8.849558944350946 0.22083390124446292
0.5164199252195367 13.136406493653375 71937.88947889113 9.292820094975573 0.2240028079204912
0.5353389125333895 13.105846259112415 60685.55030319997 9.755050675351876 0.2272087553852386
0.5546453758261021 13.079829172389017 52298.82512668606 10.2370602883524 0.23045309459856728
0.5743280179580545 13.057855640640458 44728.70076702974 10.73932153003212 0.23373254032176627
0.5943854290073771 13.039521672474303 38328.802447806556 11.263076278511981 0.23705324518667145
0.614822934600155 13.02449912158836 32624.71986643164 11.80926350630938 0.24041684180328687
0.6356269223446409 13.01243849736506 28060.06374079963 12.378862242495698 0.24382496316472232
0.6567972768232764 13.00301501944519 24369.478643470946 12.972563584664632 0.24727558344096673
0.6783318742884916 12.995960549091256 21028.380629934745 13.591690169539175 0.2507734416305093
0.7002174193680455 12.991070760628343 18172.151445418305 14.237441696913681 0.2543211975325991
0.7224520516091669 12.987996655313918 15729.394485439183 14.911007885705917 0.25792083582726705
0.7450390976057459 12.986654590447287 13633.609409534385 15.613420103417534 0.26157227008373163
0.7679605660012425 12.986759644163032 11836.4468488877 16.345941188031855 0.26527736201102786
0.7912051273527997 12.988137177269314 10288.711999850566 17.110188817086684 0.2690408187181984
0.8147797191598067 12.990656992617307 8956.024108591995 17.907618076727733 0.2728650728633379
0.8386617408853984 12.994132551658549 7807.341416050844 18.739593598069 0.2767511993930111
0.862843119034726 12.998399889842082 6814.451823856304 19.60746124307891 0.2806996918109856
0.8873227573532978 13.003353607812553 5955.111760798278 20.513306192408344 0.28471690438694713
0.9120793882570299 13.008848725543572 5211.181605077628 21.458922620096487 0.2888058505606617
0.9370991058517097 13.014733313665097 4565.130070213101 22.445793646990744 0.292966443879352
0.9623830255154225 13.020950056406523 4004.449249780423 23.47594671694849 0.2972025003166215
0.9879037418084146 13.027330097415584 3516.5490844001392 24.55180322511636 0.30152011210495194
1.0136458086506195 13.03379552458905 3091.8124942119175 25.675304008361515 0.3059208999155896
1.039609641915755 13.040249233688819 2721.4303909187893 26.848413264802055 0.3104061455922273
1.0657601144169302 13.046574393549832 2398.2813072914596 28.074226397435382 0.314984573528538
1.0920919731809156 13.052702491119984 2115.6867315607083 29.35479567672123 0.31965661056333944
1.1185846776917947 13.058552943829735 1868.410872478115 30.69288225972578 0.3244269789982632
1.1452225453170302 13.063994819784238 1652.1257100750468 32.09188075100699 0.32930370105174683
1.1719854010438309 13.06900605314289 1462.0465041101468 33.55373643605514 0.334284501713251
1.1988413748625202 13.073464724377176 1295.391268959954 35.08298970022269 0.33938293439284
1.225786643266568 13.077333437901064 1149.0441121660851 36.68166113839106 0.34459574435962365
1.252782357425517 13.08049725650824 1020.1621009725008 38.35480624216402 0.34993738849535433
1.2798240870924469 13.082933293816351 906.6899042456724 40.10466627705069 0.3554044557469214
1.306868465275226 13.084525939502775 806.7238952776717 41.936710347900764 0.36101149326981485
1.3339059372659479 13.085232890957009 718.5892801436034 43.854421083033955 0.3667604249785624
1.3609151975509661 13.08503304310485 640.6180980535873 45.86249123808246 0.3726590289349116
1.3878445135194115 13.083774593550418 571.807717473606 47.96625175320037 0.37871725029395037
1.4147018040219626 13.08148506933935 510.81440591583845 50.170455517597446 0.38494072175386745
1.441424087060421 13.078030708352678 456.87431075754307 52.480329260882314 0.391336451093693
1.4680190756990796 13.073433770955365 409.01100116109296 54.90228532990989 0.3979161104641989
1.494427911943396 13.067568925177413 366.52075426871323 57.442513143908414 0.404688760136218
1.5206401958376619 13.06042198598817 328.82674142830354 60.10764019103904 0.4116641704061841
1.5466234060629662 13.051937043806712 295.28098768045464 62.90477146361577 0.4188528800567638
1.5723395466716523 13.042056271199783 265.459119342134 65.84153266893891 0.4262662595902579
1.597763710323041 13.030728889637093 238.91266850197746 68.9261175990275 0.4339165797934219
1.622850391159402 13.017909093518584 215.2360939161516 72.16734009017773 0.4418170862607596
1.647602725594604 13.003571395418783 194.08914349340975 75.57469105730691 0.44998208057915107
1.671951180511745 12.987634961569741 175.2257293706048 79.15810145700573 0.45842575746218955
1.6958889356875249 12.970087453815834 158.35605746318743 82.92777467760719 0.4671614388821721
1.7193689702227986 12.950876999131447 143.27615152541435 86.89644148326644 0.47621064837102056
1.7423508102998468 12.929940190131584 129.77148104409983 91.0756794890414 0.4855877286465989
1.764834228115948 12.907291010268604 117.67602402588787 95.47957664502287 0.4953145955421595
1.7867612482479556 12.882856831490827 106.81689675741464 100.12180277591204 0.5054087793581772
1.8080997086383832 12.8566005156554 97.08264035391441 105.01888161347097 0.5158959761124603
1.8288100595860144 12.8284677211038 88.3304090169721 110.18735344142948 0.5267987220335505
1.8488899672617265 12.798503292398689 80.46207547982708 115.64485315606028 0.5381404069463201
1.8682670200711966 12.766564259860012 73.38502851957621 121.41158113211871 0.5499503339383254
1.8869456146977674 12.732746533902034 67.00535715982902 127.50896282378073 0.5622583138080192
1.9048686387251355 12.696934225940351 61.25491198499605 133.95943081384817 0.5750936179323722
1.922011562444168 12.659116785975407 56.073569016136275 140.78867191936828 0.5884925591275716
1.9383256721967002 12.619229552291399 51.391630801139314 148.02436591346498 0.6024934142650611
1.953819344333393 12.577391493403017 47.15882742420887 155.69502023008755 0.617131980136385
1.9684393473119566 12.533462369022255 43.337704430397 163.83426899986281 0.632455816222357
1.9821552709995942 12.487464063015437 39.87894861627467 172.47588199678395 0.6485064758818923
1.9949447527841617 12.439390714144631 36.74313845098266 181.65915317388882 0.6653371453197451
2.0067823523088437 12.389231717344453 33.900804499231405 191.4260805228397 0.683002230778077
2.0176299858121465 12.336960427707686 31.32708407573683 201.82269538678182 0.7015609620221319
2.027466420452808 12.282577379685579 28.99083538336315 212.89894365655275 0.7210760091081827
2.0362782927540457 12.226114972933452 26.86991958758696 224.71030756741345 0.7416176946482952
2.0440239410582923 12.16752255485261 24.94181615111197 237.31794687048196 0.7632631462661792
2.050684285047415 12.106819316536376 23.18807330320263 250.78872328018292 0.7860949533290967
2.056257105176856 12.044075964761145 21.5918120428523 265.19575579017635 0.8102013463546717
2.0607057161279343 11.979229237061503 20.14166276214919 280.62072844829146 0.8356818429228995
2.0640125669270097 11.91233582798133 18.81960653108778 297.15340949914275 0.8626435466274684
2.0661744607528885 11.843438021013666 17.618551722694622 314.89417292515935 0.8912069427132553
2.067167865909399 11.772550938852968 16.523429192454802 333.9524010696948 0.9214978246982395
