M[M_sun], R[km], Lambda[1], P_c[MeV/fm^3], rho_c[fm^-3]
0.24162668629717493 15.618656898711224 2160425.4255784233 3.5677272577965504 0.1711233750220791
0.2536418629930564 15.277341839193026 1723262.5376016651 3.7848006028868175 0.17388793618844914
0.2660379739092469 14.9812919697125 1383072.5906715365 4.0113615380411165 0.17666617839295146
0.27881097392441984 14.723608959301222 1116504.316239935 4.247666746089604 0.17945680127636982
0.2919648391282058 14.498514684052354 906010.7064109514 4.49434109532969 0.18226636533319412
0.30549901366910065 14.30129736364174 738722.5721612137 4.751538364682268 0.18509054107435585
0.31941358175878 14.128234615117545 605168.0261455439 5.019943832624687 0.1879360130901565
0.3337098566521037 13.976107726297043 497750.8162425525 5.299777412155521 0.19079932345867778
0.348389757230824 13.84212119231583 411064.5564366595 5.591772491942877 0.19368686555357104
0.3634515354841043 13.724052399295283 340697.7288218347 5.896090313595185 0.19659359096257575
0.37890299649889786 13.620076835935047 283351.9438678287 6.213597414974243 0.19952723228018368
0.39473312144415823 13.528560887057912 236444.95040627074 6.544555414237807 0.20248404281511628
0.41095568062692056 13.447953920328626 197903.75352969993 6.889658279388427 0.20546759155802896
0.4275626174708501 13.377122029714252 166116.38897143622 7.249614733854997 0.20848101949243775
0.4445548574532841 13.315001575984855 139837.9955575359 7.624689826257716 0.21151997090372593
0.46193389788010414 13.260666924826154 118009.02250759595 8.015820360891242 0.2145904197805395
0.47969644330474787 13.213223416432283 99843.44564546298 8.42371673252054 0.21769410312740906
0.4978510628585127 13.172052134322092 84667.28676204784 8.848828105397823 0.22082860965817885
0.516386925250115 13.136464863475123 71957.40886417692 9.292011111274181 0.22399711262479918
0.5353026532194387 13.10591459083987 61294.19587488641 9.754158062102329 0.22720264408244448
0.5546076905736365 13.07986844426702 52316.75069919475 10.236078227489521 0.2304465544563237
0.5742875350973844 13.057878383882809 44743.75811420382 10.738254288646514 0.2337256883014807
0.5943418089380893 13.039553921219982 38340.91372934573 11.261907807475799 0.2370459445584924
0.6147752356090781 13.02453066327933 32911.80058330466 11.80798690327053 0.24040907792684554
0.6355743160469896 13.012473147251796 28304.013017358604 12.377470174499491 0.24381672062682122
0.6567436151583026 13.003039553899447 24379.552416266415 12.971062444280149 0.2472670035381006
0.6782714877454843 12.996010366971595 21035.386882129096 13.59005864115932 0.25076435771760286
0.7001583897560917 12.991076165491979 18179.50774446062 14.23567103309001 0.2543115915949384
0.7223897969674171 12.988005366939284 15735.239873880839 14.909088776972407 0.2579106887759795
0.7449741588722768 12.986642729162464 13639.634130532668 15.611361366089684 0.2615617471841261
0.7678911819485521 12.986748284991485 11840.057204079449 16.343714943831923 0.26526626474205256
0.7911322895826487 12.988132328186751 10292.752215359777 17.107783893663537 0.26902912438996707
0.8147036112412862 12.990660332262296 8959.91322540246 17.90502256104652 0.2728527573270188
0.8385825962847517 12.994124031813564 7810.193602628895 18.73681900197743 0.27673845155958493
0.8627615772963719 12.9983863940493 6817.5423188169125 19.60447149198914 0.28068627868338314
0.8872334128019004 13.003333008485935 5958.501161471664 20.510086897671773 0.28470279693825196
0.9119904913000927 13.008821434982872 5213.626787825484 21.45545840780424 0.28879101780681715
0.937007025791978 13.014717598758963 4567.438556846199 22.442098947284556 0.2929510982002155
0.9622821254309513 13.020921082610627 4006.416725999141 23.471975166689823 0.2971863706709585
0.9878038797042773 13.027309456965531 3518.235462377753 24.547536131902614 0.301503160969298
1.013543695924537 13.033764729711937 3093.7017284022327 25.67075788885511 0.3059033555648812
1.0395040860086067 13.04022307754392 2722.857339194208 26.84353254528882 0.31038770711277525
1.0656543340655247 13.04655967644447 2399.4328985403727 28.068988233133936 0.31496519528105854
1.0919794809506869 13.052679406670103 2116.9012882948837 29.34921863173058 0.3196365366256962
1.1184749966106349 13.05851423836931 1869.5536491321493 30.686899754352705 0.32440587532290305
1.1451024310352516 13.063967518444189 1652.9418029454505 32.085512309888834 0.3292818197153311
1.1718622420745537 13.068988016785706 1462.8953235804222 33.54690736356117 0.33426148703483954
1.1987142523580092 13.073442665440174 1296.1037159346977 35.07566776730553 0.3393587227456635
1.2256582316492146 13.077314644299884 1149.637371768668 36.67386759149376 0.3445706035837481
1.252651080780485 13.080481041173492 1020.7396863490869 38.34646281264086 0.3499109890825677
1.2796898576681408 13.082922987081016 907.2285258464694 40.09577195650129 0.35537693969054207
1.30673065137536 13.084520706232203 807.1493589321182 41.92723976696366 0.36098286226885523
1.333766543650497 13.08522776336599 718.9548203626997 43.844268069686365 0.3667302449721416
1.36077157698376 13.085034270387895 640.9993605535617 45.851677064788646 0.37262758278796754
1.3877005976381251 13.083785092247357 572.1541877159895 47.9547302333349 0.3786844563291857
1.4145547641382585 13.081500186101277 511.12938000968234 50.15810032527431 0.3849061011434077
1.4412760285695057 13.0780541706707 457.12122861755586 52.46716000813661 0.3913002932597459
1.4678694622006467 13.073461774073238 409.2624449273226 54.88824370990517 0.3978783129484765
1.4934739245688349 13.067328804371922 367.85276559273376 57.463941823995825 0.4983913212652493
1.51349746638486 13.055438499095935 336.9608714644852 60.37416941624891 0.6703928080952725
1.528491194205798 13.035393887180575 313.0930048466476 63.64933104334408 0.8334688975961903
1.5395250248852856 13.00720242277478 293.8146513865489 67.2935311965204 0.9883620108912199
1.5473989826403733 12.971147911017633 277.5437353936316 71.31355673619528 1.1352336784076957
1.55274528651052 12.927659270974877 263.3538454509934 75.71380926286663 1.2756285950375201
1.5560836612781608 12.87733239178973 250.60462599421777 80.50245974731442 1.4099101050505196
1.557837483726081 12.820651345254763 238.82353085032773 85.68836699138949 1.5389805844037987
1.5582893007814576 12.757931780955994 227.73382245046787 91.28222633986506 1.662802136648803
