M[M_sun], R[km], Lambda[1], P_c[MeV/fm^3], rho_c[fm^-3]
0.24162668629717493 15.618656898711224 2160425.4255784233 3.5677272577965504 0.1711233750220791
0.25364441712527314 15.277267405945096 1723201.6646983565 3.784827054706357 0.1738882658976189
0.26604080379272377 14.981239341780956 1382997.837215244 4.011417144986213 0.176666850370066
0.2788161836831398 14.7234960740017 1116371.8209917455 4.2477533893691755 0.17945780620784418
0.2919713750119077 14.498384078348153 905816.5275597164 4.494461048466502 0.1822677010392122
0.30550858001672376 14.301139779853091 738626.8762578673 4.751695700565841 0.18509224060217846
0.3194237761171954 14.128113820956465 605079.3599207888 5.020139710161169 0.1879380453951993
0.33372418388485875 13.975856595623238 497672.5129085746 5.300016988167668 0.1908017355915916
0.34840392037552337 13.842003015301303 410991.589399988 5.592056364520135 0.19368961209884666
0.36346725898791404 13.723963216716857 340622.88780270447 5.896424860207053 0.19659673309515202
0.3789213809599414 13.619972065778425 283288.71251621016 6.213986683986072 0.19953078194486115
0.39475247130519464 13.528475893721696 236395.99337501323 6.544999001416575 0.20248793247541716
0.4109792796306367 13.447870272151585 197857.8006457131 6.890164747980222 0.20547190485708797
0.4275872682211042 13.377046895508604 166074.71724097765 7.250188836337985 0.20848576889514964
0.4445838889260523 13.314921553865055 139793.5383076737 7.625329975806243 0.21152506690574702
0.4619655051498548 13.260576995716997 117976.80960742813 8.016537722993727 0.21459596915636459
0.47972950277455056 13.213148402398453 99802.05643522461 8.424516900856261 0.21770011927467886
0.4978892662997132 13.171959758516905 84638.3991490905 8.8497081295687 0.22083498140918142
0.516427177074878 13.136392557040647 71936.60031977658 9.292985232476186 0.22400397049879064
0.5353466467282096 13.10583171095609 61272.66916207561 9.75523288488198 0.2272100028881308
0.5546541418600478 13.07979385538868 52303.75406687795 10.237260757702272 0.23045442964623408
0.5743370006804842 13.057830890092683 44726.89202945677 10.739539388175272 0.23373393903852932
0.5943944175130784 13.039512878025084 38323.278007386434 11.263314801858504 0.23705473548485692
0.6148319640842449 13.02451226591717 32898.38698175155 11.809524104032356 0.24041842667224028
0.6356381710718486 13.012435176884251 28290.679725214224 12.37914641168676 0.2438266457515888
0.656808366234025 13.003008653632136 24368.509978344784 12.972870020367903 0.24727733490178674
0.6783408113435111 12.995972573463387 21026.25283880365 13.592023223405056 0.25077529598520404
0.700229851005837 12.9910475325246 18171.141444318793 14.237803154840547 0.25432315845949327
0.7224642044183781 12.988005227745857 15728.373925421296 14.911399648344366 0.2579229072240126
0.7450527046838196 12.98664883484707 13632.658337951041 15.613840370967528 0.26157441821267274
0.7679730829356444 12.986758202833693 11835.03196839142 16.346395652062125 0.26527962740023525
0.7912204186309956 12.988141214328968 10219.24683522507 17.11067975861206 0.26904320600058956
0.8147949389850371 12.99067193533711 8955.355925073014 17.908147927997817 0.27286758696972824
0.8386781693356193 12.994131305118595 7806.4802769991775 18.74016000892661 0.276753801757833
0.8628591812799902 12.99841424749856 6813.387113589641 19.60807157860384 0.28070243000156747
0.8873400039883365 13.003361501354055 5954.821136330192 20.513963390330876 0.28471978433014383
0.9120975298102996 13.008854850398253 5210.7112309166205 21.459629819324157 0.2888088785829589
0.9371178048638699 13.01474326294124 4564.76623238252 22.446547901500182 0.2929695766231768
0.9624025786769924 13.020952740389284 4004.1276089075827 23.47675749258142 0.2972057931173717
0.9879241187401971 13.027344628834614 3516.1293448190154 24.552674338377656 0.3015235726244022
1.0136667867571512 13.033798467194956 3075.203446165233 25.676232087172096 0.3059244815504575
1.0396310280064618 13.04025044135883 2721.1091375849987 26.84940965571013 0.31040990977765837
1.0657834677234543 13.04658286089685 2397.901062962889 28.07529576482691 0.3149885295835158
1.0921138168660816 13.052709829927352 2115.5253486402657 29.355934230422957 0.3196607086575901
1.118611167105233 13.058555186696754 1868.306404544081 30.694103593644332 0.3244312873328014
1.1452457982228479 13.064001245817362 1651.9203143865775 32.093180878800084 0.32930816816278646
1.1720096993762013 13.069015094061571 1461.8895615424392 33.55513060889394 0.33428920021946307
1.1988672191219072 13.073469047918982 1295.2803484248318 35.08448449872757 0.33938787728625486
1.2258126921576027 13.077337012498047 1148.9303455796423 36.683252224582574 0.3446008769573826
1.2528090703265515 13.080496646584372 1020.0183920286942 38.35650007342626 0.34994272220761735
1.2798536821941586 13.082938565360728 906.5902404452855 40.10648210663701 0.355410073317032
1.3068957349211987 13.084526218298546 806.6450055996543 41.938643832207134 0.3610173384857946
1.333931458564448 13.08523732527529 718.4836326636646 43.85649390086667 0.3667665864651437
1.360941740703778 13.08503602608688 640.5194549213837 45.86469904598652 0.37266544894038856
1.387874091992787 13.083774365308097 571.7152702043495 47.96860398190184 0.3787239454961507
1.4147313211796153 13.081478571081153 510.7560219958993 50.172977961569494 0.3849477899198562
1.4414549509215697 13.078027068365742 456.809714531309 52.48301791560748 0.39134383313221643
1.4680491787420653 13.073427376246915 408.9452652178342 54.905152101147245 0.39792382729679227
1.4944588800355234 13.067561483543859 366.47580836057824 57.44557090183333 0.4046968343018163
1.520671331345246 13.060412778301073 328.789748341154 60.11090285659376 0.4116726261939521
1.5466548998276586 13.051925875554781 295.24289455375 62.908254103475855 0.4188617436520899
1.572370886778861 13.042045875755617 265.42388266328123 65.84525160005596 0.4262755592353247
1.5977961493689874 13.030714742512284 238.88829100557462 68.93009050382523 0.43392634596393564
1.6228830236906164 13.017889947837771 215.2039142038672 72.17158614360743 0.4418273518605977
1.647634130101662 13.003551430466745 194.0672383709344 75.57923106712414 0.44999288115491565
1.6719833826440602 12.987617270449054 175.19704520434854 79.16293431082026 0.4584370324548474
1.6959206468190458 12.970064358703631 158.3434324868109 82.93294753048667 0.4671733260830233
1.71940149419831 12.950850233462283 143.2582217394359 86.9019809653674 0.47622319257250223
1.742382635781457 12.929911223327522 129.75558144270425 91.08158790606875 0.48560087269967456
1.764865155158756 12.907259263493751 117.65954631295399 95.485910918652 0.49532849435287635
1.7867921572198158 12.882823312780067 106.80637254876808 100.12856842169205 0.5054233793282512
1.808130391212512 12.856561744966738 97.07030100766255 105.02611371684304 0.51591133349913
1.8288397799608298 12.828425289741595 88.31685724891896 110.19509027224565 0.52681489768873
1.848919246983603 12.798456827447664 80.44991781526765 115.65316810416321 0.5381575827598328
1.8682960666267299 12.766515411768241 73.37634815250152 121.42048932673168 0.5499684677580683
1.8869732617095138 12.732693403069494 66.99737947969149 127.51849236714713 0.5622774052173822
1.9048965568654588 12.696876142760708 61.24676934000344 133.96964515430133 0.5751137842119514
1.9220378353760532 12.65905730463037 56.06692108606099 140.79964291083417 0.5885139347910043
1.9383513583052698 12.61916780998197 51.38418990849701 148.0361592599179 0.6025160993537189
1.9538466327434203 12.577321322259461 47.15742261003006 155.70766924933858 0.6171559512940504
1.968462385395228 12.533390385917176 43.33152206382617 163.8478503494836 0.6324811862963176
1.9821766317423033 12.487386427267065 39.8733799449169 172.49052073666022 0.6485335047145071
1.9949657143590391 12.439309468643382 36.740857416184774 181.67490237367608 0.6653658327055325
2.0068019495481497 12.389145797582211 33.89869442885748 191.44304246267302 0.6830327234607432
2.0176474946283594 12.33687012503629 31.32321119200727 201.84098289402252 0.7015934205435703
2.027482531465845 12.282483398387484 28.987583520341236 212.9186352078023 0.7211104582989858
2.036292683018585 12.226015213677258 26.866265679519273 224.73158543928358 0.741654473956377
2.0440366418713505 12.167417665018762 24.938896188321632 237.34091472996838 0.7633023085764671
2.0506952106929957 12.106708389327178 23.185102655199387 250.81354707609637 0.7861367223224713
2.0562662656544246 12.043960220045946 21.589798889512867 265.222670736876 0.8102461343897054
2.0607129493786394 11.979108500243113 20.139469506386256 280.64983685502204 0.83572958748486
2.0640170996895315 11.912211967320017 18.819322228919837 297.18499006665303 0.8626947128054764
2.0661773358216733 11.843308253464569 17.61622163451241 314.92847926603406 0.8912618604174578
2.067168675399034 11.772411780377027 16.521570900598693 333.9896594680062 0.9215566713621924
