M[M_sun], R[km], Lambda[1], P_c[MeV/fm^3], rho_c[fm^-3]
0.24162668629717493 15.618656898711224 2160425.4255784233 3.5677272577965504 0.1711233750220791
0.2536421802632781 15.27737517919741 1723110.5779574881 3.7848060666306282 0.17388800429137993
0.26603841371171927 14.981316662673883 1383021.886260878 4.0113730238637375 0.17666631719233936
0.27881191441430975 14.723606335993443 1116539.7518557045 4.247684642515243 0.1794570088479379
0.2919656160032207 14.498473570382398 905938.0113650869 4.494365871913103 0.1822666412262008
0.3055003196412422 14.301282551218408 738683.9841558477 4.751570862631959 0.18509089211423577
0.3194159236480881 14.128208985869717 605230.9630902992 5.019984291263726 0.18793643286415213
0.33371273874483337 13.976010488996014 497728.8450815022 5.299826896563422 0.19079982168455586
0.3483931065075398 13.842044307241538 411032.0893161605 5.591831125602944 0.19368743285036175
0.36345315283837915 13.724105705055678 340678.3989967878 5.896159413690503 0.1965942399652941
0.37890635269495015 13.620064461950808 283341.64549457317 6.2136778176128 0.19952796545543625
0.3947368847629113 13.528522595950124 236438.5897263925 6.544647035874406 0.2024848462130945
0.41096064028996676 13.447931524099 197889.99619088756 6.889762888633143 0.20546848245425453
0.427567707993738 13.37709937138204 166100.31300680415 7.249733312223523 0.20848200046089152
0.444561133576101 13.31497591849499 139832.58230819416 7.624822045950453 0.2115210234574971
0.46194058628393253 13.26064762676814 118003.60984734441 8.015968527947184 0.21459156597250514
0.47970299558358265 13.213210445927533 99831.35433803567 8.423882002172382 0.21769534572414817
0.4978588559368189 13.172028926158703 84656.93615745747 8.849009868220577 0.22082992569867688
0.5163957293283568 13.136463730545497 71952.3932240383 9.292212308506471 0.22399852906585768
0.5353122618137521 13.105877325100208 61289.90636698263 9.754380057730183 0.2272041639820219
0.5546171441206962 13.079869159622538 52311.591232629136 10.236322468372375 0.23044818100532483
0.5742973923999202 13.057869797467868 44337.12418796073 10.738519713533384 0.23372739241147272
0.5943531018500856 13.039542469808795 38338.477553246405 11.262198407609553 0.23704776023338686
0.614787021761507 13.024550602352779 32909.81284005567 11.808304395140436 0.24041100880713806
0.6355868223547505 13.012462584363613 28301.36239528443 12.377816381672158 0.24381877054518017
0.6567574374111008 13.00302872381992 24377.07062647793 12.971435776933122 0.24726913735445272
0.6782872406505458 12.995991869614882 21033.86201909709 13.590464400179266 0.2507666168751166
0.7001733139138548 12.991072258218566 18177.95321951815 14.236111393782645 0.2543139805731877
0.7224053161374157 12.988007926990035 15734.189347960717 14.909566054398173 0.2579132123216406
0.744990892584855 12.986655054262254 13638.238646701775 15.611873367696703 0.2615643641967171
0.7679078695663203 12.986763227527971 11839.301507817874 16.344268602451912 0.2652690245914108
0.7911510675621273 12.988134985056343 10293.360793960686 17.108381987591773 0.26903203271820847
0.814723117013725 12.990663053738041 8959.048437486028 17.905668052759008 0.2728558201390397
0.8386031556715183 12.994124678394599 7809.23852532794 18.73750902862416 0.2767416218749973
0.8627818905938014 12.998381071280882 6816.769930565704 19.605215024549146 0.28068961444505847
0.8872523491110107 13.003344300367603 5957.066009610861 20.510887514213 0.28470630536407315
0.912013118716104 13.00882450495888 5213.007941173459 21.45631993138953 0.28879470660132334
0.9370305041811513 13.014719848407948 4566.904343603833 22.443017789392105 0.2929549145472209
0.9623054581763627 13.02092256147196 4006.0692208186397 23.472962856670083 0.2971903819734396
0.987827951931636 13.027314161401694 3517.837166293616 24.548597317992176 0.30150737655786314
1.0135679946547342 13.033774126576745 3093.3312815224845 25.6718884637095 0.3059077186709807
1.039529606492982 13.040230246951001 2722.4897526747804 26.84474632854024 0.3103922925673337
1.0656785614770747 13.046552809957598 2399.2633402964143 28.07029090553506 0.31497001443271566
1.0920071130486475 13.05268257076527 2116.4787027445777 29.350605576847222 0.31964152877652746
1.1185038621671932 13.058519962709138 1869.303671902771 30.68838752850319 0.3244111235426242
1.1451318669928645 13.0639806874047 1652.587308918729 32.087096057821526 0.3292872613172349
1.1718922574455164 13.068995045009387 1462.6954468979825 33.54860565963116 0.33426721046769703
1.19874586057718 13.073447485225174 1295.9237040918713 35.07748862568949 0.3393647438307034
1.225690959326406 13.07732086784694 1149.5642580493388 36.67580572884663 0.3445768557148312
1.2526838225011736 13.080488038893591 1020.5986188422258 38.348540524651035 0.3499175708187362
1.2797224141545718 13.08292754930675 907.0883039520077 40.09798382768879 0.3553837824810578
1.3067651436865937 13.084519504202314 807.1098782246733 41.92959493880641 0.36098998231014284
1.3338004075982652 13.085227264688715 718.8290706822489 43.846792943031026 0.36673775020149024
1.3608062660878844 13.085035488207469 640.8993807835953 45.85436634994298 0.3726354028638846
1.3877361322227082 13.083781302239842 572.0507937679301 47.95759541505411 0.37869261156125933
1.414591418644711 13.081496013280718 511.0564707277153 50.161172815477826 0.38491471059955334
1.4413133396523292 13.078048652287688 457.0775235924307 52.47043493009129 0.3913092849684262
1.4679055817715194 13.07345620108664 409.1924592625017 54.891735561992974 0.39788771238630094
1.4943140730966344 13.067596400162833 366.69830363174486 57.43126058199416 0.40465904717314793
1.5205250909442154 13.060458268099584 328.991583944933 60.09563361215162 0.41163305318586546
1.5465072616551427 13.051978400774077 295.42353005690904 62.89195542928955 0.4188202622304837
1.572223083662653 13.042105139768942 265.5821381735779 65.82784714060557 0.4262320372419418
1.5976462305144585 13.030785254064805 239.03174904716414 68.91149751421571 0.43388064078947725
1.622726723846545 13.01794638099507 215.33347611442585 72.1517148950801 0.4417793095339897
1.6474852187971427 13.00364319246942 194.18841465114758 75.55798419071652 0.44994233533945716
1.6718336268104874 12.987719583754458 175.313875581379 79.140317010593 0.4583842665521759
1.6957720260605826 12.970179850682511 158.43953438142535 82.90873914866978 0.4671176952921144
1.719236882171097 12.950943683944699 143.34993979627666 86.87605688913571 0.4761644872947256
1.7422401065954771 12.93005241652131 129.84202272316594 91.05393734451378 0.4855393603780206
1.7647204781781995 12.907411746105609 117.73578663346487 95.45626751623529 0.495263450108924
1.7866482887692117 12.882988594884257 106.87377930084102 100.09690636743817 0.5053550539887907
1.8079881399198237 12.856745620563753 97.1316867255258 104.99226883407917 0.5158394638196393
1.8287007606720322 12.828623662287864 88.3757959412504 110.1588771782731 0.5267391754566276
1.8487819011676692 12.798670081339987 80.5022865356387 115.61425600306653 0.5380772037865008
1.8681709236939028 12.766778626005564 73.41766233586563 121.37880111679787 0.5498836058396677
1.8868442736479758 12.732942418469804 67.04111530826928 127.47381592082799 0.562187774254235
1.904769727492 12.697140792967641 61.28824207218312 133.92184483955464 0.5750194115487753
1.9219153943794394 12.659342959993927 56.10178842927158 140.74830188368196 0.588413902946106
1.938232661925956 12.619468882618254 51.41661606286049 147.98097008197226 0.6024099402241077
1.9537444752167097 12.577677767457143 47.18575606507055 155.64847601718753 0.6170437741937982
1.9683540632121497 12.5337323231451 43.359323349217824 163.78429437294977 0.6323624632039654
1.9820756102910702 12.487754225657765 39.89774851683189 172.42201685696946 0.6484070197907174
1.994871187518261 12.439691263311122 36.76342264777493 181.6012022700212 0.6652315869448153
2.0067078813323054 12.38953544387966 33.92088442866753 191.36366756381526 0.6828900302531078
2.0175653229870227 12.337295207523782 31.3435053185639 201.75540528181028 0.7014415287234289
2.027407162234773 12.282929234748647 29.0053245150567 212.82648768413148 0.7209492517193349
2.036227522285539 12.226481767691864 26.874662888803012 224.632015152103 0.7414823643445531
2.043976369841785 12.167909181608985 24.95313988808734 237.23343662257994 0.7631190485302627
2.0506433102967807 12.107224997999227 23.198420201913535 250.69729035002496 0.7859409580430716
2.056218642016003 12.04447766906106 21.60316397119492 265.096723563775 0.8100365509762888
2.060679581400567 11.979670743449317 20.151062601928796 280.5136261833316 0.8355061702805315
2.0639996001418406 11.912809518061042 18.83004961491352 297.0372119315277 0.8624552857475224
2.066163354040548 11.843917012183958 17.626321643140145 314.7679470851647 0.8910048799701358
2.067165874853582 11.773047390375917 16.530410165070244 333.8153145145151 0.9212813074347298
