M[M_sun], R[km], Lambda[1], P_c[MeV/fm^3], rho_c[fm^-3]
0.24162668629717493 15.618656898711224 2160425.4255784233 3.5677272577965504 0.1711233750220791
0.2536441659013774 15.277312514856337 1723047.6804604605 3.7848448055671597 0.17388848715353553
0.26604244947614214 14.981227432380516 1382941.9793376941 4.011454461108039 0.1766673013133758
0.278819241926833 14.723443408505997 1116387.8635518504 4.247811533492112 0.17945848059204894
0.29197517804336687 14.498317688199418 905794.3623123437 4.494541546623584 0.18226859740487394
0.3055130662660392 14.301092853379581 738616.0546529621 4.751801286373575 0.18509338113041554
0.3194303921136736 14.128038324344285 605039.2450283412 5.020271161690837 0.18793940925555522
0.33373231760255073 13.975779430273496 497624.08764593344 5.300177766563405 0.19080335436325707
0.34841347978806864 13.841922143190079 410943.215179866 5.592246871513139 0.19369145530641063
0.36347882062346615 13.723858814228018 340602.61665730615 5.896649376255179 0.19659884179738868
0.37893306818379874 13.619913107131737 283252.10626280855 6.2142479264876025 0.19953316416191866
0.394768133489557 13.528356908468325 236361.34112822614 6.545296699440768 0.20249054288491902
0.4109950675187798 13.447770191979473 197825.76250909656 6.890504649157937 0.20547479959815138
0.42760566790924176 13.376963007078505 166041.6302386888 7.250574130777405 0.20848895633730444
0.44460296436791935 13.31483513070004 139768.00547807757 7.625759598875454 0.21152848698162466
0.4619847541548675 13.260482435536053 117946.18360241341 8.017019169115079 0.2145996935313457
0.47975373116564346 13.213082490277484 99791.86611384925 8.425053924890486 0.21770415694467038
0.49791397357086487 13.171910623566058 84619.14921481967 8.85029875165691 0.22083925776545346
0.5164553189652603 13.136328312148539 71919.72220656542 9.293639011733571 0.22400857314552103
0.5353751414725106 13.105793202163893 61256.70729036664 9.755954254839663 0.2272149417687045
0.5546856836470392 13.07974865877507 52286.433492757176 10.238050953541864 0.23045967054756078
0.5743702875014414 13.057818177298085 44714.18321010343 10.740401897110985 0.23373947661306843
0.5944311724072829 13.039480115151852 38315.62620198867 11.264259128440031 0.23706063565442712
0.614870675276382 13.024479130937998 32890.091614485704 11.810555827836767 0.24042470127436424
0.6356787517793383 13.01239871131317 28281.937660736883 12.380271460427108 0.24383330724866237
0.6568509335621069 13.002993543379366 24361.240895187595 12.97408322757996 0.24728426909671183
0.6783871439283897 12.995953630708494 21022.077114673288 13.593341818949112 0.25078263757192043
0.7002773413082999 12.991041126547902 18165.076567555083 14.239234210036976 0.2543309220037766
0.722514208364076 12.987993232238049 15722.720997736526 14.912950688910355 0.25793110816015413
0.7451060435667909 12.986647196015436 13628.010221725368 15.615504271066007 0.26158292296626756
0.7680299097520203 12.98676048041105 11831.451472632247 16.348194947231764 0.2652885964353771
0.7912790631010348 12.988140602926787 10285.744900240788 17.11262348074514 0.2690526576631232
0.8148546428893665 12.990676167757082 8952.244023103594 17.910245707856628 0.27287754078515986
0.8387422243833703 12.994145103992599 7804.142425585211 18.74240254141314 0.2767641050342911
0.8629247580378225 12.99842897133964 6810.794901714922 19.610488026023027 0.28071327107716376
0.8874107821026276 13.00336953774718 5952.39569755897 20.51656538509102 0.28473118667462843
0.912169634673585 13.008876802068412 5208.673918471449 21.46242979048209 0.288820867248622
0.937192437566358 13.014763927152165 4562.834436227024 22.449534184404097 0.292981979942228
0.9624802817646884 13.020970099083815 4002.543727689786 23.479967568330746 0.2972188301887962
0.9880031089538599 13.027355470605848 3514.780940962587 24.55612331928489 0.3015372737882385
1.013749371902218 13.033818938676188 3090.5445493959396 25.679906621381207 0.3059386622856458
1.0397165251531733 13.040273781764649 2719.9939713178087 26.853354671885825 0.31042481333839284
1.0658709377125561 13.04660339869239 2396.8412060794117 28.079529732900266 0.3150041928724896
1.0922072260052473 13.052734326442227 2114.6209041220864 29.360442142798348 0.3196769343742692
1.1187085832011143 13.05856774139342 1867.3793571895883 30.698939278648943 0.32444834552499974
1.1453422627069336 13.064013837246621 1651.1011330323295 32.09832855189072 0.3293258550605005
1.1721089170330226 13.069033975383336 1461.1705452343258 33.56065066137613 0.3343078033654693
1.1989683749505058 13.073488168497947 1294.6666364378366 35.09040298899449 0.3394074481290612
1.225917162100252 13.077344862861686 1148.3676171627742 36.689551975407944 0.3446211989783648
1.2529154577863006 13.080509855139944 1019.5357855049758 38.36320665501171 0.3499638405900931
1.2799603929505976 13.082949623716836 906.147834814615 40.113671759339425 0.35543231570058553
1.3070141284528158 13.084545191991198 806.3030934065968 41.94629935620347 0.3610404822946423
1.3340470107794382 13.085242952427446 718.1055147305497 43.864701142365945 0.3667909826313523
1.3610569996528026 13.085032175068907 640.2193606019939 45.87344080553839 0.3726908687896871
1.3879971532427975 13.083784788359637 571.4100088400028 47.977917604632296 0.3787504550729444
1.4148419966345425 13.081450450669967 510.5090039307455 50.18296559316177 0.3849757763642375
1.4415748313353896 13.078010125143377 456.5795492375746 52.493663698446746 0.3913730624632629
1.4681698700611752 13.073405943380147 408.7440254829639 54.916503182142534 0.39795438236538416
1.494582333927647 13.067532111610571 366.29074502941944 57.45767824727696 0.40472880436434827
1.5207945168836363 13.060378701695916 328.6314347223444 60.12382159416321 0.41170610743843955
1.5467788995169873 13.05188104568525 295.0963455308908 62.922043898365345 0.41889683977642095
1.5724968005638984 13.041991848248614 265.2955044304469 65.85997706904035 0.4263123820832577
1.5979102289312777 13.030648392898113 238.75361278199063 68.94582167151572 0.433965016225084
1.6230187921981856 13.017835278792004 215.0858621904245 72.18839894569241 0.4418679998414154
1.647760760716415 13.003471917866767 193.95402670057157 75.59720790597355 0.4500356476285176
1.6721091079004329 12.98752749097584 175.11800179122687 79.18207077966953 0.45848167761773734
1.6960459280188855 12.969965316233251 158.25207545429672 82.95343037427281 0.4672203955983882
1.7195256615173222 12.950741566052882 143.18112199807075 86.92391564625032 0.4762728638326337
1.7425066862285044 12.929793062769642 129.68863465613822 91.10498355337386 0.48565291940330024
1.7649889195281458 12.907126836966457 117.59290953595077 95.51099296008846 0.49538352995233564
1.7868986471034567 12.882647836300704 106.7480409382966 100.15535869842543 0.5054811915831785
1.8082500426040826 12.856406572492734 97.01969826146093 105.05475117804905 0.5159721452080274
1.8289544542885305 12.828252976798614 88.27411560521769 110.22572647947722 0.5268789498485823
1.8490347740855173 12.798273582815085 80.41246311800263 115.68609371280985 0.5382255957055426
1.8684057389887367 12.766321859048126 73.33171623382965 121.45576425220447 0.5500402745795129
1.8870813405949296 12.732487095850141 66.95808340642058 127.55618055467835 0.5623528351408108
1.9050028501961964 12.696652326310714 61.21474834013707 134.01009258573566 0.5751936400004187
1.9221414414254856 12.658817162623224 56.0359700524196 140.84308681584844 0.5885985800388542
1.9384502398818375 12.618910819745498 51.35677225945317 148.08285986110045 0.6026059302835933
1.9539417281758447 12.577048920064513 47.13233738824964 155.75775849769624 0.6172508754336927
1.9685512487886871 12.533100791002486 43.310755913709755 163.90163185156834 0.6325816505891673
1.9822634324974788 12.487082380003416 39.85060347331069 172.54848981248495 0.6486405382748098
1.9950453793035776 12.438980095575713 36.71976282092031 181.73726920697396 0.6654794347571498
2.0068777323551372 12.38880369810952 33.880738262814816 191.51021215105092 0.6831534752151194
2.017716964801345 12.336509531375357 31.306932509121957 201.9134023134868 0.7017219578695327
2.0275476490589908 12.282109126365095 28.97175108948103 212.99661517331694 0.7212468795832605
2.0363499424484415 12.22561963896664 26.85194273353913 224.8158479160072 0.7418001236533988
2.044087144506409 12.167002493569502 24.925114928508588 237.43187031262056 0.7634573962002112
2.0507380740954915 12.106273454309429 23.16569213258467 250.91185306049326 0.786302133850397
2.0563027043583757 12.043503458050687 21.57962586020252 265.3291487466039 0.8104231445593019
2.060740807178822 11.978633014975376 20.129070345949206 280.7651121972913 0.8359186658762824
2.064036956017029 11.91171304166533 18.809152349597664 297.3100566297879 0.8628973430473211
2.0661862089577667 11.842786576340655 17.60870767764782 315.0643416131555 0.8914793493131321
2.067172930664266 11.771878800728741 16.513521257082214 334.137213905599 0.921789721809805
