M[M_sun], R[km], Lambda[1], P_c[MeV/fm^3], rho_c[fm^-3]
0.24162668629717493 15.618656898711224 2160425.4255784233 3.5677272577965504 0.1711233750220791
0.2536434288963978 15.277292016776741 1723227.062743931 3.784808586710167 0.17388803570295566
0.26603808686924707 14.981320612727037 1383043.0533421482 4.011378321555355 0.17666638121181608
0.2788121768103844 14.723598799048712 1116501.1537009932 4.24769289702905 0.17945710458785874
0.2919665021971485 14.498463077120451 905924.0658142191 4.494377299834073 0.18226676847875306
0.3055010318420779 14.30128909799324 738667.210607779 4.751585851967856 0.18509105402767104
0.3194164973652304 14.128204352159383 605138.6108966231 5.0200029524086816 0.1879366264807336
0.3337143048917318 13.975983824889687 497729.24895771424 5.299849720786298 0.19080005148660797
0.34839378915968194 13.842085206190928 411030.6546718972 5.59185816986839 0.19368769451106954
0.3634546276335682 13.724067338179818 340664.6431024594 5.896191285551505 0.19659453931255744
0.3789085096176965 13.620047812049245 283333.3150176259 6.213714902730682 0.19952830362705792
0.39473808457268567 13.528539625644477 236423.87737673643 6.544689295723675 0.20248521677488232
0.4109631263715241 13.447941626549 197900.81957703995 6.889811138991134 0.20546889337455065
0.4275697027655137 13.377105285983182 166106.15430588796 7.24978800582426 0.20848245292703363
0.4445632564552403 13.314996997440732 139828.11784026166 7.624883031606575 0.21152150894253346
0.4619444191039809 13.26062899453684 117999.14346112436 8.016036869331398 0.21459209464836365
0.47970707097106846 13.213207492034234 99827.25473414217 8.423958232149811 0.21769591886701087
0.49786285054876805 13.172016210690055 84654.61829820194 8.849093705703176 0.2208305327178719
0.5163988156841545 13.136441792965236 71949.38030306705 9.292305110162268 0.22399918239529998
0.5353153654506089 13.105886839009457 61288.49880554564 9.754482452717038 0.22720486503230275
0.5546215794090699 13.079831135209737 52308.898003977 10.236435124075758 0.23044893124836222
0.5743020249657522 13.05786541737022 44739.34815252641 10.738642140456442 0.23372817843024188
0.5943575605605538 13.039543385310568 38336.16760101998 11.262332446754135 0.23704859771238784
0.6147923155691967 13.024538392992607 32909.50996321222 11.808450838266094 0.240411899425677
0.6355927571886862 13.012458393358976 28300.276119828774 12.37797606993095 0.24381971607120984
0.6567633083072982 13.00302914213738 24376.001375493848 12.971607977016559 0.2472701215795157
0.6782937098353331 12.995986815813001 21032.47483379839 13.590651557191897 0.2507676589152205
0.7001801190325072 12.991060871665288 18040.58760730127 14.236314511126508 0.25431508249469137
0.7224116069400657 12.987996302191728 15619.075876275852 14.909786199941552 0.25791437631411296
0.7449983781094364 12.98665266464122 13637.528738442255 15.612109530109187 0.261565571302317
0.7679164420922004 12.986753549108192 11838.720072324862 16.34452397961625 0.2652702975825242
0.7911594933683384 12.988128908640308 10291.770460403226 17.10865786105794 0.2690333741974558
0.8147322838594432 12.990662455110064 8958.828939597404 17.905965789036472 0.2728572328763871
0.8386120250161669 12.994117438084901 7809.53574419759 18.73782730718925 0.2767430842003221
0.8627901870883721 12.99839903821011 6816.507824911006 19.605557983442345 0.2806911530853194
0.8872634324044671 13.003341661697776 5956.71101663069 20.511256803906623 0.2847079236487699
0.9120226559543457 13.008829834592735 5212.619325826444 21.4567173153689 0.28879640808444573
0.9370405171424151 13.014719636369483 4566.547819922919 22.443441612392878 0.29295667486667787
0.9623168600550076 13.020925515779382 4005.6443158849365 23.47341843687009 0.2971922322199979
0.9878411510462931 13.027321703307164 3517.622633464005 24.549086799518676 0.30150932103560013
1.013580476460427 13.03377098183096 3093.081357981284 25.672409951969804 0.3059097311946102
1.0395419954199672 13.040235568416884 2722.3401505420247 26.845306198192482 0.3103944076540644
1.0656915819946369 13.046552897378708 2399.0863143509396 28.070891776995264 0.3149722373175259
1.0920212106964229 13.052679724962909 2116.6110093005404 29.351245320680817 0.31964383146152364
1.1185166914166993 13.058525666369091 1869.191071550974 30.689073781777836 0.3244135443455186
1.1451464521370864 13.063986924871799 1652.5412756579206 32.087826580932585 0.3292897713226909
1.1719072114661104 13.06899231363436 1462.671626887321 33.54938902055537 0.33426985047477953
1.1987604641654321 13.073449096746318 1295.8154144974878 35.07832852123482 0.3393675211375756
1.2257049204733286 13.077318229126531 1149.4532047125406 36.6766997219234 0.3445797395981097
1.2526985931592425 13.080486670337498 1020.5199179843163 38.3494988998734 0.3499206067413439
1.2797380100363975 13.082934688470724 906.9950151291237 40.099004087005426 0.35538693882253686
1.306781187564104 13.084523456195637 807.0137915252435 41.93068129903478 0.36099326654169606
1.3338168613894779 13.08523490703789 718.8228428331345 43.84795758249708 0.36674121211229055
1.3608233493517992 13.085034995954052 640.8461715623484 45.855606828601864 0.3726390100073183
1.387752427298731 13.083780475490942 572.0106697721446 47.95891703066936 0.37869637330592715
1.4146080786439272 13.081497093385552 511.0117423151833 50.16259005800154 0.3849186818692882
1.4413301020929041 13.07804621453138 457.0417019656871 52.471945549953695 0.39131343256458806
1.4679233664753009 13.073452021700648 409.16613084210013 54.89334624714415 0.3978920480610525
1.4943321902818472 13.067590823304366 366.6778202015353 57.432978562071995 0.4046635835870772
1.52054240534084 13.060453169469444 328.95956202665656 60.09746670697648 0.41163780398257993
1.5465249348606065 13.051972134682932 295.40128618831477 62.89391210219704 0.4188252421185956
1.5722413881670352 13.042096326754852 265.5638762665508 65.82993655715671 0.4262372620852397
1.5976642964174583 13.030776420003747 239.01883374850863 68.91372960688811 0.4338861277061669
1.6227509607436152 13.017966034119182 215.31739153557567 72.15410043461915 0.441785077005999
1.6475030761843972 13.003632620771135 194.17305254555816 75.56053486491015 0.4499484033329171
1.6718526285007707 12.987705664771358 175.30319318715797 79.14303219494352 0.45839060104620194
1.6957898792611914 12.970166402547507 158.42559964262438 82.91164532976516 0.4671243736878074
1.7192547001178802 12.950926273812085 143.3396073186047 86.879169024768 0.47617153475073287
1.7422567190318827 12.930033107522737 129.82996223796482 91.05725673017812 0.4855467447893018
1.764737339925496 12.907393423835531 117.72616175172999 95.45982612327727 0.4952712584873724
1.7866657543082367 12.88296936260995 106.8629645620507 100.10070729426903 0.505363256223993
1.8080051288808883 12.856722632324074 97.12525969364825 104.99633178727298 0.5158480915092626
1.828717338271726 12.828600450902645 88.36843987029057 110.16322995883652 0.5267482862484822
1.8487982785546964 12.798645078677522 80.49391080072851 115.61892721798293 0.5380868529046058
1.8681876269845004 12.766752404832236 73.41121939554364 121.38380557006134 0.5498937930725846
1.8868598285972682 12.732912355116547 67.03528652748858 127.47918170448253 0.5621985433392154
1.9047847206266677 12.697109190747735 61.28151862921125 133.92758297309027 0.5750307404060493
1.921930153052133 12.659308769465465 56.09739935197954 140.75446503013276 0.5884259110991182
1.9382466899389423 12.619431983196154 51.413591530918154 147.98759514229053 0.6024226838572472
1.953757694633021 12.577639595525094 47.181353878165645 155.65558170462793 0.6170572401827871
1.9683676310993234 12.53369087413729 43.356018628380184 163.7919237398459 0.6323767149247318
1.9820877000228332 12.48770703693688 39.89574990207453 172.4302401363119 0.6484222031769085
1.9948823871410133 12.439645096379317 36.75990484351507 181.6100492670778 0.6652477018726246
2.0067151766582385 12.389487950264291 33.91688775302664 191.3731957184757 0.682907159131014
2.0175755847284553 12.337243949820968 31.34056605079957 201.7656779562504 0.7014597617072443
2.0274167989216694 12.282875038083983 29.002969197062075 212.83754895138668 0.7209686027446233
2.0362323185907028 12.226426381530656 26.88035512773106 224.64396737131813 0.7415030240400083
2.043983486879939 12.167850051461357 24.95136663411056 237.24633801155733 0.7631410465836109
2.0506498611930417 12.107163487585277 23.197002435535893 250.71126210227257 0.7859645112592015
2.0562235494532786 12.044413006939726 21.602184078862436 265.11184175202413 0.8100617085198836
2.0606840098192465 11.979603413504181 20.149428965430822 280.52997626765114 0.8355329882242644
2.063996431203894 11.912725025715748 18.82839372052819 297.0549504074849 0.862484025256973
2.0661650188979146 11.84384377434643 17.625165691930118 314.78721636039074 0.891035726289798
2.067166058769594 11.772970433592176 16.52927776798588 333.8362416530237 0.9213143601783562
