M[M_sun], R[km], Lambda[1], P_c[MeV/fm^3], rho_c[fm^-3]
0.24162668629717493 15.618656898711224 2160425.4255784233 3.5677272577965504 0.1711233750220791
0.2536409901799543 15.27737218487772 1723296.7180462852 3.78478051766883 0.17388768583589634
0.26603567926421895 14.981336649681683 1382993.8011005567 4.011319315317288 0.17666566815625215
0.2788079138071088 14.723673761733822 1116561.1473108586 4.247600957824569 0.1794560382316362
0.2919600824795431 14.498550957016935 906039.9755623502 4.494250015629165 0.18226535113959028
0.30549228253414984 14.301380428538417 738789.5611578166 4.751418901480032 0.18508925064377274
0.31940601883139447 14.12832053720196 605236.0019849635 5.019795106390084 0.18793446999806943
0.3337004087715689 13.976144633079539 497800.92935046833 5.299595507943327 0.19079749198509466
0.3483778020685083 13.842225315912536 411123.9461631344 5.591556956062403 0.19368478018463556
0.363438780399849 13.724155076694256 340741.22093199426 5.895836304464344 0.19659120525506482
0.37888871683428593 13.620163550229675 283389.25016341655 6.213301859433111 0.1995245371695206
0.39471669591444764 13.528636173913236 236493.09771778356 6.544218619625418 0.20248108958135289
0.41093785903156627 13.448060444085254 197946.17156439947 6.889273744882766 0.2054643167008151
0.4275412626483762 13.377231040425373 166156.7955527997 7.249178851898315 0.20847741355271707
0.44453342266186474 13.315069360181916 139869.2513900514 7.624203802021092 0.21151610183828984
0.46191000530939375 13.260713132017326 118037.9571056479 8.015275718255499 0.21458620652942736
0.4796701824066326 13.213291448835799 99858.5153096243 8.423109225493835 0.21768953552384748
0.4978219469842985 13.172126586612007 84683.6093902318 8.848159974312237 0.22082377210364876
0.5163561317317871 13.136524594284571 71976.0050431443 9.291271545414586 0.22399190603504107
0.5352692076068015 13.10595740710764 61310.552377087406 9.75334204828564 0.22719705721991415
0.5545722861192443 13.079914415664735 52332.33215299896 10.235180447966954 0.2304405755949283
0.5742499543455941 13.057925579455356 44758.168090179286 10.737278644446969 0.23371942436350285
0.5943011734812397 13.039592618045829 38353.815148098336 11.260839628822136 0.23703927055893423
0.6147326400854026 13.024557728016772 32922.738314189715 11.806819881507963 0.2404019804873963
0.6355283208680328 13.012490095885891 28313.1116461655 12.376197607462029 0.24380918566296414
0.6566952502357178 13.003058438610257 24387.677874137207 12.969690175689115 0.24725916021355945
0.6782221452186097 12.996004817192144 21042.72906095706 13.58856718806405 0.2507560537063526
0.7001032531961553 12.991075028813855 18185.16698589087 14.234052400680818 0.25430281043512115
0.7223307598914981 12.988015651983982 15740.57330096292 14.907334456846456 0.25790141302417763
0.7449141455617505 12.986645431676319 13644.564441094652 15.609479417125705 0.2615521279093683
0.7678279444687292 12.986760436836 11844.704858681274 16.341679885558523 0.2652561204869699
0.7910675686713466 12.988119549435408 10297.40735167925 17.105585515314925 0.2690184344204911
0.8146335203343797 12.990647944956937 8963.320491235578 17.90264997501104 0.27284149957592846
0.8385102351117938 12.99411456781037 7813.407399853988 18.734282730516476 0.27672679870452394
0.8626862867818486 12.998374716969654 6820.365192018974 19.601738564495232 0.28067401776128514
0.8871560811997429 13.003317988078605 5960.833126322019 20.507144164307483 0.2846899014243716
0.9119069818045142 13.008809413783542 5215.676322961655 21.45229181841738 0.2887774593880657
0.9369243508587948 13.014692517542986 4569.296424592417 22.438721690904043 0.29293707099992905
0.9621948661235965 13.02089173590751 4008.146201482715 23.468344871022687 0.2971716269615883
0.9877134629336203 13.027287465472181 3519.9021351810306 24.543635714444413 0.3014876664623517
1.0134497904943 13.033739636067144 3094.8397243454765 25.666602445151796 0.30588731890733684
1.0394061652650177 13.040198877895017 2709.9046811365442 26.839071286773624 0.31037085328144165
1.0655543151807807 13.046529463105273 2400.522567766766 28.06420028306821 0.31494748257180516
1.0918760118484732 13.05264911236494 2117.9405822943454 29.344120956328634 0.3196181881242378
1.1183685248057396 13.058492564791297 1870.4895270112931 30.68143150854928 0.324386585731498
1.144993792375543 13.063949346404344 1653.7177038052575 32.079691337340016 0.32926181942699606
1.1717509394624896 13.068962356803052 1463.671224740797 33.5406654036795 0.3342404509864653
1.1986004932231498 13.073426203467426 1296.8038213118496 35.068975368808395 0.33933659279814676
1.2255413758412699 13.077296606373597 1150.2819987871965 36.666744170917966 0.3445476245316524
1.2525303357799624 13.080466029061606 1021.2796735643323 38.33882643509831 0.34988679871257333
1.2795675569586507 13.082913683582541 907.7145622030811 40.08764252384444 0.35535178994176975
1.3066058143800077 13.084514513753197 807.6860365672978 41.91858368529682 0.36095669362258576
1.3336372601552002 13.08523127009198 719.3221749933924 43.834988319864834 0.3667026607565388
1.3606414627884036 13.085041619828282 641.343375959674 45.84179308596987 0.37259884152019956
1.3875683540181833 13.08379345732793 572.4645431983428 47.94419982110897 0.37865448337669966
1.4144204008862389 13.081513912252058 511.39832698966524 50.14680804787647 0.3848744589377042
1.44114771212419 13.078093650534527 457.39476988682287 52.45512378673639 0.39126724630536336
1.467732291550515 13.073490968347018 409.49294124888905 54.875410266588226 0.3978437676271117
1.494137855816445 13.06763737198249 366.96514290498584 57.41384786924551 0.4046130680179303
1.5203467520918568 13.060510354665903 329.2212123098403 60.07705423641886 0.411584901373973
1.5463279621631854 13.052043456625238 295.6465909920326 62.87212362422032 0.41876978870988407
1.5720429677727301 13.042177915198865 265.77728741309915 65.80667002429466 0.42617908125565684
1.5974647036480374 13.030872485203401 239.21136586113047 68.8888744337659 0.43382502887012153
1.6225522763859601 13.018072822686134 215.5025821861894 72.12753670369393 0.44172085439636877
1.6473038759003433 13.003755753448909 194.33835350209063 75.53213244958988 0.44988083465995954
1.671652475544543 12.987845378361056 175.44493395104743 79.11279804537118 0.4583200651211508
1.6955916519331053 12.97032189974588 158.5590373831551 82.87928456082506 0.4670500087350329
1.719055275691628 12.95109503878526 143.46342925554453 86.84451510684143 0.4760930606766812
1.7420616123497898 12.930226263454092 129.94665178179235 91.0202952367623 0.48546451907148824
1.7645471828777712 12.90761087916689 117.8227330703865 95.42020111401413 0.4951843123692145
1.7864741957847952 12.883194076568197 106.9567138635883 100.0583842703329 0.5052719249744713
1.8078153537449084 12.856966918813429 97.20768983901813 104.95109135294358 0.5157520233521364
1.8285409176815417 12.828887473282515 88.44531040493027 110.11465234669198 0.5266464289781932
1.8486155765808499 12.798931732760904 80.56547996950314 115.56691447411141 0.5379794125239853
1.868008495128445 12.767056869808574 73.47479668182427 121.32808262053865 0.5497803615675393
1.8866853765903013 12.733245496982223 67.09229142191458 127.4194358084208 0.5620786338025403
1.9046155039099253 12.697463254948964 61.335860807852335 133.86369144506526 0.5749045986915846
1.9217502685951142 12.6596368897888 56.14949025011247 140.68584160331284 0.5882922065675027
1.938096231286829 12.619864751542673 51.45812490613886 147.91382902025072 0.6022807910514102
1.9535932137129817 12.578019740343162 47.22599064266247 155.57646455435872 0.6169073052632885
1.9682253521481141 12.534144354683118 43.393695471611416 163.70676845122338 0.6322173288565185
1.9819528768476973 12.488194822312689 39.927771009372904 172.33868055205576 0.6482531484154973
1.99475186223399 12.440154763163923 36.79078369757598 181.511545744852 0.6650682763410616
2.00659822657572 12.39002772300957 33.9473474111826 191.26710883946762 0.6827164454763004
2.0174652433818463 12.337812893275576 31.367143507415413 201.65130238284118 0.701256756346663
2.0273161823833696 12.283476698835607 29.02701628363916 212.71439405544456 0.7207531506222958
2.0361423345019056 12.227054401198394 26.902218985562413 224.51089374545 0.7412730031096616
2.0439033755350646 12.16851015123712 24.970737938871885 237.1026975848657 0.7628961264610673
2.0505817483232787 12.107852487850653 23.215230730918048 250.55570584460176 0.7857022785705342
2.0561667880109686 12.045132431963415 21.61880136312295 264.9435228590946 0.8097816161029273
2.060638463464719 11.980355651815813 20.164917911045883 280.3477773317354 0.8352338696403687
2.063971524889116 11.913522246592798 18.843349710362954 296.85746171845244 0.8621640581944968
2.0661471894172436 11.844658964914435 17.63862604072442 314.5726866900497 0.8906923064823207
2.0671614172758974 11.77382240835369 16.54235289982589 333.603256657026 0.920946378987888
