M[M_sun], R[km], Lambda[1], P_c[MeV/fm^3], rho_c[fm^-3]
0.24162668629717493 15.618656898711224 2160425.4255784233 3.5677272577965504 0.1711233750220791
0.2536449436559705 15.277271751689618 1723196.9297066834 3.784838106777333 0.17388840365635191
0.26604155871005336 14.981249748350178 1382967.2571951635 4.011440378783921 0.17666713113679963
0.27881754419356003 14.72348937131127 1116400.338679526 4.247789591071965 0.17945822609304174
0.2919734576009141 14.498335127942605 905845.7994906094 4.494511168182249 0.18226825913387923
0.3055103678641049 14.301164612617312 738608.1138220708 4.75176144026124 0.18509295071635487
0.31942882880979157 14.12803868730982 605041.4505674161 5.020221554245269 0.18793889455916074
0.33372552773648045 13.975945469389863 497644.6398291946 5.300117091568514 0.19080274346673654
0.34840987396276196 13.84195251233571 410959.11537156126 5.592174977328913 0.19369075971040084
0.3634741263746637 13.72390970503236 340618.0806211269 5.896564647457145 0.196598046006587
0.37892862495309154 13.619928910089625 283266.851940141 6.2141493375238195 0.1995322651492778
0.39476265497681184 13.52838508119864 236377.35772537437 6.54518435252297 0.20248955775422317
0.4109891282467702 13.447806931400486 197834.29866253719 6.890376375146792 0.20547370716284438
0.42759928890174137 13.376988882017693 166051.1289865611 7.2504287257111315 0.2084877534384553
0.4445956362866764 13.314883559173456 139776.9701848589 7.6255974645013955 0.2115271962877551
0.4619788209566541 13.260530211642703 117958.60402232202 8.016837477043552 0.21459828799628072
0.47974515836478593 13.213103472342716 99789.79240444758 8.424851258010483 0.21770263317305585
0.49790436744939215 13.17193277548686 84626.05441188763 8.850075857119828 0.22083764391376948
0.5164448888137232 13.13634914664526 71924.74448932726 9.293392281913682 0.2240068361522072
0.5353641057278692 13.105808817541238 61258.05295472948 9.755682016480868 0.22721307788079603
0.5546728530375425 13.07977781234098 52294.58369320715 10.237754344645683 0.23045771330359138
0.5743580254153401 13.057808329972607 44719.906607078316 10.740076393146873 0.23373738677679032
0.5944172156262644 13.039494193546867 38319.85727267688 11.263902746533626 0.2370584089738267
0.6148559748923257 13.024477635446674 32892.871622927894 11.810166462186768 0.24042233328157
0.6356625684333762 13.012429115805652 28284.815804495083 12.379846873836751 0.24383079323995527
0.6568349190390906 13.00300018714697 24363.7324281014 12.973625369848758 0.24728165216967368
0.6783680360427236 12.99597743039875 21022.196455021687 13.592844187383404 0.25077986689268605
0.7002589444804945 12.991050906719662 18166.801235067607 14.238694135812208 0.2543279920747489
0.7224963301347705 12.988009160617915 15724.529299709313 14.912365331699789 0.25792801315592984
0.7450856857999656 12.986655204497406 13630.201487395854 15.614876320170707 0.2615797132978271
0.768008760583406 12.986761059929336 11832.473448754721 16.347515897470654 0.2652852115426295
0.7912568703474417 12.98814643293981 10287.305754150257 17.111889923317065 0.26904909062175386
0.8148318423277416 12.990678682484342 8953.362642007176 17.909454007928193 0.2728737842256087
0.8387177394348887 12.994143052288171 7805.1886752165265 18.74155621079143 0.2767602165829876
0.8629004192075533 12.99841679931455 6811.796786469779 19.609576058400148 0.28070917965358777
0.8873842863809732 13.003371512354128 5953.287222875288 20.515583390148052 0.28472688342052765
0.9121425948775228 13.008860933291912 5209.315814581765 21.46137307721759 0.2888163427084338
0.9371647493563787 13.014755728117285 4563.6322194158 22.44840715519487 0.292977298904526
0.9624508084223904 13.020969077271932 4003.0433871175246 23.478756077085713 0.29721390996288094
0.9879732103040642 13.02735223020858 3515.260758537415 24.55482166224691 0.30153210292275223
1.0137189125591803 13.03380751340763 3090.604825023792 25.678519837745625 0.30593331042051664
1.0396846234889243 13.040269471906354 2720.4223104178327 26.851865804577216 0.3104191886658006
1.065838368998234 13.046596928532338 2397.3816564783397 28.077931810868453 0.31499828146406417
1.0921725497056862 13.052727995331718 2114.7976701109073 29.358740830193224 0.31967081069350206
1.1186733080614981 13.058555911886481 1867.6482339603144 30.69711425930546 0.3244419076510073
1.1453061367803636 13.064010179925255 1651.4014186141999 32.09638578323024 0.3293191798987381
1.1720715760911604 13.069016623403375 1461.4208848694127 33.55856735007966 0.33430078239160177
1.1989299761362615 13.073476409186316 1294.912389044996 35.08816929980928 0.33940006192448025
1.2258774736843843 13.077343140130289 1148.5964962012633 36.68717439144358 0.34461352926053784
1.2528757338405128 13.08049821011232 1019.6990261505979 38.360675525309865 0.34995587030531267
1.2799195764022466 13.082939260697628 906.297298434793 40.110958308403816 0.35542392118989613
1.3069647260730364 13.084528469898883 806.4185074239917 41.94341007573318 0.3610317475620565
1.3340047902519045 13.085240171540885 718.2981910731423 43.86160363113171 0.3667817752260493
1.3610138409906765 13.085028613873146 640.340636983109 45.87014155513928 0.37268127501769577
1.387946725778077 13.083768861775383 571.5620344463781 47.97440251971995 0.3787404500065898
1.4147980068137485 13.081457134886076 510.59216064684574 50.1791961202053 0.38496521388560895
1.441528708604548 13.078018206989478 456.6830231136708 52.48964582265288 0.39136203088170096
1.4681251008920535 13.073413676026151 408.8235052867101 54.91221910848022 0.39794285040955907
1.4945360885998937 13.06754488913158 366.3701891557422 57.453108739081486 0.4047167383451346
1.5207480009453642 13.060392576037021 328.70207647649823 60.11894584404134 0.41169347105032406
1.5467344295974852 13.05189636636046 295.15581477314265 62.916839386217426 0.4188835938792274
1.572448857346355 13.042012824238817 265.3342618411837 65.8544194057634 0.42629848446207314
1.5978632479269783 13.030671207781888 238.80030889121562 68.93988442677959 0.4339504213260298
1.6229607406222093 13.017850544684848 215.13388657879668 72.1820534579799 0.44185265848061706
1.6477126381171994 13.003503610675354 194.00224525554958 75.59042307285345 0.450019506671314
1.6720624215838764 12.987559428641523 175.14903922685903 79.1748482647386 0.4584648275730344
1.695998375254997 12.970000163345913 158.28885724748724 82.94569969094876 0.4672026305106249
1.7194786870302423 12.95078241687407 143.21079827645536 86.91563698789447 0.4762541167446351
1.7424588137349342 12.929830535602099 129.72506272939216 91.09615347447334 0.48563327572798176
1.7649421488264576 12.907174689674209 117.6155936970115 95.501526372418 0.49536275814520037
1.7868680966868935 12.882736897581223 106.77112487707541 100.1452473583864 0.5054593717500424
1.8082046949449164 12.856465913124632 97.03796436445533 105.0439426389801 0.5159491932526589
1.8289184380008592 12.828331092100305 88.2892113346151 110.2141635339361 0.5268547748052891
1.8489908866113063 12.79834090780792 80.42465130270195 115.67366665062089 0.5381999256833098
1.8683641175493682 12.766395298742973 73.34792427792537 121.44245045835281 0.550013172574192
1.8870402533205526 12.732565872933662 66.97329197656327 127.54195589346666 0.5623243656076153
1.904961932468661 12.696737272661268 61.22577926260927 133.9948264625314 0.5751634999331242
1.922101601818291 12.658907814637601 56.047490691390486 140.82668968569442 0.5885666321938008
1.9384129037907611 12.619008131417647 51.36639822552688 148.0652334996942 0.6025720251004623
1.9539061681824506 12.577150028782514 47.141245062002305 155.73885309943796 0.6172150478115361
1.9685194163638262 12.533211302982302 43.32081760879894 163.88133281597285 0.6325437318219781
1.9822377200280765 12.487250926520208 39.85947113461628 172.31632300455541 0.6481319539558263
1.9882955635700152 12.445780133794294 37.772555660638936 183.32821895082444 1.5639073755735784
