M[M_sun], R[km], Lambda[1], P_c[MeV/fm^3], rho_c[fm^-3]
0.24162668629717493 15.618656898711224 2160425.4255784233 3.5677272577965504 0.1711233750220791
0.25364388451224656 15.27726973227564 1723269.5267273881 3.784817214823074 0.1738881432482207
0.26603966273286167 14.981257318357372 1383019.333801965 4.011396459545192 0.17666660039871895
0.2788145517145477 14.723515810052772 1116453.908302618 4.247721158505987 0.1794574323784021
0.29196813759741697 14.49845660352612 905891.7155929122 4.49441642637355 0.18226720416185094
0.30550476110828084 14.301193749577964 738646.4405698235 4.751637172064842 0.18509160838266436
0.3194202650221184 14.128152040966487 605115.5664328132 5.020066844070178 0.18793728938138152
0.3337188576209431 13.975923657331915 497689.6643395213 5.2999278660641576 0.19080083827988956
0.3483986255748515 13.842046704993459 411017.5738419551 5.591950763841094 0.1936885903832272
0.36345986127903274 13.72402600373556 340667.667914576 5.896300408420451 0.19659556421763544
0.3789142481740022 13.620018075885946 283308.45880954334 6.213841874986603 0.1995294614611474
0.39474541344815883 13.528481960662424 236418.9029512938 6.54483398550612 0.20248648550880805
0.410970597795446 13.447883409130919 197877.88045679568 6.889976339455233 0.2054703002910266
0.4275783075948827 13.377086480796441 166087.5718390697 7.2499752671256275 0.20848400209178888
0.44457282870587256 13.314957020310267 139811.12168137403 7.625091836146214 0.2115231711609299
0.4619527898558829 13.260606923249794 117984.27376628693 8.016270859058976 0.21459390474807905
0.47971799000831233 13.213182723669311 99819.62645741487 8.42421923160063 0.21769788121801048
0.4978751081776798 13.171991380530658 84645.00062057124 8.84938075250893 0.22083261105939123
0.516412916018449 13.136409991519272 71944.28971385011 9.292622849499422 0.2240014193000423
0.5353297720378186 13.105862976643714 61279.36780535593 9.75483303884147 0.22720726533048666
0.554636846380279 13.079844553373606 52303.179166334776 10.236820842140393 0.23045149998020356
0.5743188008818617 13.057859315804889 44733.415479014984 10.739061314505985 0.2337308696574838
0.5943747398926739 13.039548582608122 38330.49205460312 11.262791380360454 0.23705146513786512
0.6148103039940157 13.024514393284894 32904.076989399335 11.808952242459752 0.24041494879974887
0.6356149186957599 13.012436377801682 28294.53784696769 12.378522824871318 0.2438229534477826
0.65678367046952 13.003037090118838 24372.50207682329 12.972197571926953 0.24727349146224872
0.6783160915564371 12.995975434227152 21029.665326945018 13.591292364162953 0.2507712267567529
0.7002031597957674 12.99105865146153 18173.832120871026 14.237009965892009 0.25431885537073584
0.7224370340979649 12.988005964119392 15731.073373976986 14.910539958980545 0.2579183617222837
0.7450227854002882 12.986656838894653 13634.89048062828 15.612918130669314 0.26156970433201443
0.7679434199356094 12.986747877186982 11837.459506409681 16.345398371420313 0.2652746562063624
0.7911870864119085 12.988133045797612 10289.858665444728 17.10960243227637 0.2690379673274324
0.8147597121003187 12.990670194011058 8957.002563280685 17.906985218761 0.27286206999753726
0.8386429065633363 12.994123259501333 7808.353424481646 18.73891707393774 0.27674809111467097
0.8628231993776424 12.998402781189451 6815.416034092018 19.606732256226557 0.28069642130672706
0.8872932278438035 13.003361758156325 5955.6311672687725 20.512521234174788 0.284713464578258
0.9120577264023382 13.008842780239636 5211.633524016101 21.458077941554453 0.28880223389175264
0.9370768384790656 13.014729388966014 4565.627618578701 22.444892766784363 0.2929627021358581
0.9623544098114621 13.020926829414089 4005.065986984391 23.474978329555082 0.2971985674076809
0.9878791528506796 13.027326945054305 3516.9425644881494 24.55076277235117 0.301515978880042
1.0136207998309577 13.03378261807316 3092.183767340433 25.674195517703147 0.3059166220366557
1.039583985081926 13.040244449871032 2721.818852432283 26.847223184599176 0.310401649683518
1.065734180734329 13.046569265513051 2398.6120794830863 28.072949156881712 0.3149798484603432
1.0920660940572553 13.052696252511682 2115.9145186100627 29.35343580261285 0.31965171585151625
1.1185623620192642 13.058529838780169 1868.8021628115807 30.69142351641175 0.32442183318669876
1.1451926424533079 13.06398662703405 1652.3087425235444 32.09032789955165 0.329298365607096
1.171954989943435 13.069001830648018 1462.229984653215 33.55207126156772 0.33427888990354176
1.1988097952380758 13.073465347112085 1295.525797167029 35.08120434336498 0.3393770307017229
1.2257563896601005 13.077326158223833 1149.215952056599 36.6797607801604 0.34458961409814065
1.2527498835319781 13.080489226890405 1020.3012840533565 38.35278041101842 0.34993100184927256
1.2797916313163031 13.082933015746473 906.8340508291902 40.10249749724967 0.3553977462667596
1.3068336289096087 13.084520334005688 803.4642691434963 41.93440104775496 0.3610045119056166
1.3338714406971182 13.085233161335056 718.6964029547319 43.85194537133508 0.36675306588304957
1.3608797548056202 13.085033753129027 640.7109674890227 45.859854302295375 0.3726513610838434
1.387808980261205 13.083776396284517 571.8825714446123 47.96344233015294 0.37870925376905584
1.414665369638925 13.081490220953961 510.87348359625776 50.16744280093914 0.38493227978978267
1.4413883402859065 13.078036473088675 456.94491495044787 52.477118033238085 0.391327634265725
1.4679824329575026 13.073441194778319 409.06677299523034 54.89886137226663 0.3979068937860086
1.4943905984294235 13.067578269430335 366.57948136963444 57.43886108549181 0.4046791166898909
1.5206023951728436 13.060436236513093 328.8748580018137 60.10374340619286 0.4116540711836054
1.5465854310437235 13.051951116436397 295.3295092181502 62.90061195839114 0.41884229378527177
1.572301480798284 13.042072893422318 265.49883258647276 65.83709095624943 0.42625515254089325
1.5977258104317338 13.030748890378057 238.95169443358785 68.92137256108217 0.43390491556988076
1.6228128038936689 13.017931565261204 215.26744308155924 72.16226882675112 0.44180482556694756
1.6475647560700586 13.0035935369294 194.12649517202192 75.56926871822233 0.4499691809629692
1.671914053043814 12.987661695819886 175.25763061859527 79.15232937056186 0.45841229125055294
1.6958506659443462 12.97011793042356 158.37490576624472 82.9215965280426 0.46714724151246634
1.7193314046220527 12.950910802718528 143.3003624677263 86.88982546713223 0.47619566634961846
1.742317399846611 12.929973759284211 129.79533622452576 91.06862285246964 0.48557203022768125
1.7647973621186124 12.907331134116886 117.69472005602569 95.47201140894452 0.49529799572496847
1.7867243135220172 12.882897141184865 106.83738047124716 100.11372235306237 0.5053913421562267
1.80806376829891 12.85664767347666 97.10094897036058 105.0102441028147 0.5158776343404768
1.828775928587935 12.828516821105795 88.34403177772847 110.17811313907931 0.5267794030193284
1.8488555104283855 12.798557938193463 80.47758187849938 115.63492241687779 0.5381198934660038
1.8682426993139716 12.766654432556525 73.39140421044145 121.40094188779099 0.5499286763357223
1.8869132035420004 12.732810159753692 67.01846451411197 127.49755534157278 0.5622354190822497
1.9048366314519862 12.697000852697624 61.26719574857344 133.9472316643743 0.5750695330235085
1.9219801810966985 12.659189945483892 56.0825050037429 140.77556912104484 0.5884670298936951
1.938295049266139 12.619308546401685 51.39958016434741 148.01028100080373 0.6024663212347892
1.9537932358645282 12.577470558138415 47.16873087151536 155.67991341335082 0.6171033512064553
1.96841228028959 12.533550043728557 43.34446019221355 163.81804873273123 0.6324255166285554
1.9821288447273975 12.487556490990302 39.88490038561872 172.45839893151913 0.6484741953134396
1.9949189245912595 12.439489665667491 36.74941587284354 181.64034393321873 0.6653028840270596
2.0067591374701776 12.389335343396732 33.907505493966845 191.4058229628928 0.6829658135196075
2.0176084449487672 12.337069962431775 31.331398307883312 201.8008547686736 0.7015221970793891
2.027447146556518 12.282691598061987 28.994832946436933 212.87542626217305 0.7210348668337164
2.036260497614294 12.226234167042717 26.87339884243365 224.68489572411787 0.7415737696721886
2.044008654513494 12.16764760606019 24.94610377206797 237.29051677875992 0.763216375440022
2.0506714443346015 12.106950747517132 23.191192417519236 250.75907676615202 0.7860450695380579
2.0562473451241403 12.04421343346343 21.597143280361635 265.16361196734294 0.8101478571659602
2.060697756439803 11.979373212311211 20.144545752210377 280.5859651380462 0.8356248230030078
2.0640066053580246 11.912483283392792 18.823775937015416 297.11569388709796 0.8625824405780305
2.0661704840108808 11.843594026409852 17.621060702044947 314.853202156591 0.8911413565711074
2.06716780417035 11.77271231588955 16.525684449143913 333.90790492350266 0.9214275465896561
