M[M_sun], R[km], Lambda[1], P_c[MeV/fm^3], rho_c[fm^-3]
0.24162668629717493 15.618656898711224 2160425.4255784233 3.5677272577965504 0.1711233750220791
0.25364420941919225 15.277274487575864 1723328.5922281956 3.784822516868229 0.17388820933565577
0.2660404807102368 14.981251232014575 1382905.8257316735 4.011407605515721 0.1766667350911949
0.2788156558529688 14.72348328265104 1116388.4843471122 4.24773852550125 0.17945763380937563
0.29197021982494253 14.498402163685332 905859.692453365 4.494440470130973 0.1822674718946701
0.3055055968703819 14.301229229331714 738668.0644530198 4.751668708997455 0.1850919490417257
0.3194216463256316 14.128147891091473 605104.6611816618 5.020106106501266 0.18793769674425798
0.3337205873732495 13.9759544147115 497691.6998126998 5.2999758876833996 0.19080132177791306
0.3484014808357118 13.84202359808349 411004.41459491866 5.592007664561104 0.19368914091334613
0.36346232471215334 13.724014155315992 340644.0798520466 5.896367466614134 0.19659619404238154
0.37891758372272855 13.619999326837373 283302.2774559699 6.213919902170792 0.19953017297511635
0.39475015350433096 13.52843745827742 236403.7072777965 6.544922900683084 0.20248726517479151
0.41097540900065327 13.447861405534585 197863.05823337668 6.8900778591492005 0.2054711648753415
0.42758366697218414 13.377081022767383 166086.36830504474 7.250090344003705 0.20848495409330955
0.4445784617691915 13.314925058819927 139801.94410116185 7.625220152161265 0.2115241926389166
0.4619600967345074 13.260565186940003 117980.92818041464 8.016414652375333 0.21459501710563297
0.47972469736955714 13.213148343278416 99804.93695254101 8.424379623517721 0.21769908714100322
0.49788266870575165 13.171979075785453 84642.93741289973 8.849557151648028 0.22083388826452785
0.5164198351930984 13.136411401752214 71938.62294487937 9.292818110581436 0.2240027939502328
0.5353385228022501 13.105848719682857 61275.26691708366 9.755048485811297 0.22720874039448483
0.5546455027981644 13.079820405399811 52299.179903547214 10.23705787939246 0.2304530785558338
0.5743278600317907 13.057843447733084 44729.55703612636 10.739318912119632 0.23373252351395718
0.5943859057380957 13.039526562593867 38327.90761773089 11.263073412276196 0.2370532272783784
0.6148227786020652 13.024519732983213 32902.30850428294 11.809260374817228 0.2404168227585898
0.6356264958823626 13.012435588154295 28291.748476231936 12.378858827757655 0.243824942945805
0.6567963408172326 13.003018587639088 24370.505809035407 12.97255990236174 0.24727556239443338
0.6783316647701442 12.99596201425056 21027.893496455697 13.591686167380374 0.2507734193475613
0.7002171940266801 12.991066309434952 18171.891711848137 14.237437353439113 0.2543211739690376
0.7224509653976061 12.988009861483581 15729.240366317887 14.911003178076838 0.25792081093625757
0.7450394562120023 12.98664257952697 13633.705364196083 15.613415053261209 0.2615722442706824
0.7679603994248009 12.986758958712512 11836.451482603552 16.34593572695644 0.2652773347889366
0.7912047739789573 12.988144055061928 10288.65625282209 17.110182917682973 0.26904079003139586
0.8147797253967448 12.990666848929884 8956.047246483682 17.907611709769224 0.272865042652575
0.8386617419688203 12.994123646779588 7807.322069378138 18.739586791796114 0.27675116812170886
0.8628431174728673 12.998393298531083 6814.56749272699 19.6074539089908 0.2806996589075576
0.8873222244783843 13.003361134736593 5955.202171411399 20.51329829520457 0.28471686978017574
0.91207815236999 13.00884909917189 5211.07739032728 21.45891412205935 0.28880581417452766
0.937098839207 13.01473508645795 4565.075677927242 22.445784583520656 0.2929664062348572
0.962382743172435 13.020944232016308 4004.497282282406 23.475936974301664 0.2972024607488379
0.9879024935630951 13.027331051440504 3516.546709550464 24.551792757433024 0.3015200705218153
1.0136446678637614 13.033798254027746 3091.7930442995835 25.675292856161562 0.3059208568771022
1.0396098976740782 13.040244775325059 2721.354359141843 26.848401291743034 0.3104061003601663
1.0657599288841049 13.04657863791931 2398.302269068085 28.07421354746952 0.31498452599092663
1.0920921924790428 13.052704869368538 2115.735762261245 29.35478199539209 0.3196565613189549
1.1185854763726943 13.058550878931069 1868.4487289433703 30.692867583686883 0.32442692722758504
1.1452222056517876 13.063989631970799 1652.0877518427712 32.091865128159036 0.3293036473731801
1.171984716131266 13.069008657857779 1462.0309749409446 33.55371968313795 0.3342844452541928
1.1988410405358514 13.073463602395277 1295.4120473680298 35.08297173816309 0.33938287499717845
1.2257857313732476 13.077331732709865 1149.048712927562 36.6816420193149 0.3445956826844435
1.2527818065636915 13.080498865653329 1020.1591134598556 38.354785888478816 0.34993732440355085
1.279824237436628 13.082939185260926 906.6808686281784 40.104644457407744 0.35540438824423565
1.3068678686219133 13.08451998107673 806.7246090152713 41.93668711449337 0.3610114230317044
1.333905703847799 13.085232618275043 718.5964026481417 43.85439617536847 0.36676035094009934
1.3609146862670316 13.08503245640599 640.6177967633728 45.86246470835012 0.3726589517900537
1.387844124340404 13.083776403440092 571.7897882735358 47.96622348808151 0.3787171698422979
1.4147015924966235 13.081486500374591 510.8004042460343 50.17042520714527 0.38494063682064017
1.4414236962451152 13.078032652777681 456.8676113820854 52.48029695321544 0.3913363623889444
1.4680187880333926 13.073433704640241 409.000374460075 54.90225088196865 0.3979160177365364
1.494427686042571 13.067571894218322 366.51713210806474 57.44247640104508 0.4046886631148153
1.5206397994577567 13.060423440385454 328.8348988396268 60.10760098598019 0.4116640687991847
1.5466230426652197 13.051937798318264 295.284460373066 62.90472961532073 0.4188527735495258
1.5723396133416374 13.042057188872137 265.45963274936224 65.84148798134451 0.426266147843427
1.5977633188944727 13.03072921409307 238.91775730987928 68.92606985966319 0.4339164624408057
1.6228500060912014 13.017909334459425 215.23642651381843 72.16728906863882 0.4418169629069888
1.6476030426846793 13.003569846668126 194.09431030942756 75.57463650357005 0.4499819507971039
1.6719506868283323 12.987637167588163 175.22846569811733 79.15804338443616 0.4584256219795491
1.6958885692758863 12.970087267514486 158.35801793364686 82.92771251959655 0.4671612960432447
1.7193686033608377 12.950878610669573 143.27526259046752 86.89637491983103 0.4762104976375892
1.7423509119363347 12.929937128283354 129.7779995820791 91.075608492475 0.4855875707053715
1.7648340433042886 12.907292108357277 117.677855928831 95.47950053136577 0.49531442853180047
1.7867608469010048 12.882856464064691 106.81854811879799 100.12172147888947 0.5054086039227293
1.8080993568740666 12.856601330797226 97.08325204123211 105.01879471150252 0.5158957915759481
1.828809700864129 12.828468244099927 88.33044174464595 110.18726047467317 0.5267985276647928
1.848889518866702 12.79850419745218 80.45977532713317 115.64475324268368 0.5381402005597615
1.8682667562974404 12.76656543124721 73.38743682838496 121.41147409033098 0.5499501160404721
1.886945453591742 12.7327477324045 67.00846054480816 127.50884805258733 0.5622580834631498
1.9048683041571928 12.69693450622082 61.25497111310249 133.95930807751972 0.5750933756127505
1.9220112914760026 12.659118098455604 56.07373857380632 140.78854009120738 0.5884923022761824
1.9383247927205796 12.619230486807966 51.39058616183923 148.02422420399427 0.6024931416798437
1.9538198359656556 12.577391538290943 47.15749452830509 155.69486823896784 0.6171316920979987
1.9684388909474273 12.533463292192936 43.33785493344186 163.83410580600327 0.6324555113748711
1.9821550264428653 12.487464703533325 39.87944977186402 172.4757060975168 0.6485061511031279
1.994945360250864 12.439391075998445 36.744607672309925 181.6589639315465 0.6653368006121946
2.0067825832692927 12.389233013748456 33.903234192734516 191.42587670846657 0.6830018643785339
2.0176291171231986 12.336962407207645 31.327500413577663 201.82247564469404 0.7015605720016018
2.027466262375829 12.28257902140594 28.990933307999953 212.8987070438053 0.7210755951683372
2.036277791273219 12.226116166323857 26.86949721382135 224.7100518938634 0.7416172527104772
2.044023858523634 12.167523675476914 24.942056515073265 237.31767089051252 0.7632626756949794
2.050684588349882 12.106820060336354 23.1873893249794 250.78842499983938 0.7860944514368906
2.056257346234339 12.044077373116373 21.593389320054396 265.1954323832612 0.8102008081867753
2.0607060362529452 11.979230278170384 20.14175066349707 280.6203786854991 0.8356812692305134
2.0640135457807385 11.912337186419075 18.821741759031248 297.15303003177934 0.8626429318223464
2.0661749322443272 11.84343963548052 17.61874094149207 314.89376070597643 0.8912062828314207
2.067168409884541 11.772551549621998 16.523358806795486 333.95195337980033 0.9214971176078124
