M[M_sun], R[km], Lambda[1], P_c[MeV/fm^3], rho_c[fm^-3]
0.24162668629717493 15.618656898711224 2160425.4255784233 3.5677272577965504 0.1711233750220791
0.25364530705726734 15.27724967395136 1723093.4449384161 3.784848571479324 0.1738885340938139
0.2660427660700087 14.981213814200762 1382968.4797517993 4.011462377896139 0.1766673969830878
0.27881972908430774 14.723425350171683 1116497.819944723 4.247823869085178 0.17945862366633916
0.2919765517905855 14.498317642991717 905805.0715743041 4.49455862481188 0.18226878757446427
0.3055136296495263 14.301126635448293 738541.1652735214 4.751823687150322 0.18509362310155694
0.31943171086242445 14.128025675799314 605014.9829181436 5.02029905016518 0.18793969860924048
0.33373265766852944 13.975830301815712 497575.02072653436 5.300211877090712 0.19080369779966744
0.3484152451661619 13.841859214242788 410919.1421502802 5.592287289360928 0.19369184636020656
0.36348118473309327 13.723843487624103 340600.37346097815 5.896697009618105 0.19659928918001357
0.3789356437440428 13.619901184019849 279320.21041169466 6.214303351942876 0.19953366957533417
0.3947702195327072 13.528377187265816 236356.08709554712 6.545359859544081 0.20249109671369994
0.41099847510132115 13.447782808313509 197817.41325890372 6.890576763409174 0.2054754137533765
0.4276094537605892 13.376949237902444 166038.8297666818 7.250655876062202 0.20848963259509606
0.4446076081855241 13.314818363291344 139764.97878806456 7.625850749351846 0.2115292125980263
0.46198941732621096 13.260494223405361 117942.38836785629 8.017121314925157 0.21460048371176801
0.4797587835009376 13.21307224769233 99775.61359411333 8.425167862760336 0.21770501359816943
0.49791871982404096 13.171903137389808 84612.95374717248 8.85042406155687 0.22084016506266996
0.5164609906645556 13.136320972843057 71914.99450439609 9.293777721910075 0.2240095496738112
0.5353817749972283 13.105774781189814 61254.00403764431 9.75610730603371 0.22721598963819364
0.5546913384704827 13.079782237848944 52284.582294107786 10.23821770598288 0.23046077090299102
0.5743777484678247 13.057788750663548 44711.90944249641 10.740584894554958 0.23374065151334425
0.594438264362607 13.039474597625766 38313.36878370659 11.264459485708251 0.2370618874902647
0.6148781004903899 13.024468390431194 32888.70195085385 11.810774728865496 0.24042603255784722
0.6356858569139454 13.012428062402735 28279.457428122925 12.38051016302906 0.24383472062448097
0.6568604424503757 13.003002353779738 24360.764699773878 12.974340635573832 0.24728574033524967
0.678395203844586 12.995969850473127 21018.29396050205 13.593621588282026 0.2507841952526114
0.7002876782627564 12.991039081290802 18163.92250102665 14.239537841202576 0.25433256921766867
0.7225258257642292 12.98800177755141 15721.455139918706 14.913279778829155 0.2579328481826062
0.7451170867166373 12.986643406456949 13627.369521558076 15.615857307784541 0.2615847274557942
0.7680412723900077 12.986764956664574 11830.094210027723 16.34857671257885 0.26529049943988225
0.791290384103413 12.988153552896973 10284.722108530164 17.11303589126584 0.2690546630758315
0.8148674249304558 12.990677015004403 8951.396090842134 17.910690807183293 0.27287965274963877
0.838756256517679 12.994142904967092 7803.518305399282 18.7428783551442 0.2767662911521927
0.8629393131327296 12.998430440533555 6810.271036543508 19.611000742240822 0.2807155713114798
0.8874245756368386 13.003374566678174 5952.039274890253 20.517117472202624 0.28473360600595393
0.9121843735437785 13.008874016417337 5208.287979072138 21.463023885955298 0.2888234109933959
0.9372089967804288 13.014762704733512 4563.020703209786 22.450167813111864 0.2929846116751466
0.962496008928922 13.020974041954469 4002.0583301605775 23.480648683712477 0.2972215964007405
0.9880200716401898 13.027363722295865 3514.789792321796 24.556855128238876 0.3015401809178067
1.0137672979530066 13.03382561837587 3090.1598527194737 25.68068629071961 0.30594167117977855
1.0397347825266827 13.040286026006404 2719.74708135991 26.85419173555297 0.31042797561419766
1.0658907481388291 13.04660322971045 2396.6954924862875 28.08042811034549 0.3150075163613039
1.0922268273728946 13.052734570324654 2114.361316395938 29.3613986494373 0.3196803772108714
1.1187275403342065 13.05856798563681 1867.1730880808893 30.699965337124855 0.3244519650127604
1.1453628325297318 13.064028534975638 1650.9516996445238 32.09942081271208 0.32932960796109934
1.1721296714211178 13.0690327158819 1461.079032363444 33.56182194001546 0.3343117506952477
1.1989894945698019 13.073483674825273 1294.5311124414611 35.091658815349575 0.3394116008063622
1.225939915278347 13.077352900182282 1148.2855999346991 36.690888704393075 0.3446255110591496
1.2529380140064306 13.080512608993821 1019.4901374956993 38.36462971288511 0.3499683216629128
1.2799833206216393 13.082949453411318 906.0673779482297 40.115197325202146 0.35543703529170617
1.3070370122118564 13.084553148944206 806.1880794887066 41.94792378010801 0.36104539317420486
1.3340710343388347 13.08523873864619 715.101522322626 43.8664426420895 0.36679615926916803
1.3610811100154028 13.085027849792725 640.1578940052857 45.87529573116807 0.3726962626614456
1.388022867978186 13.083780444812879 571.3551170363415 47.979893881384506 0.3787560801945372
1.4148677766460578 13.081453907067743 510.449046351363 50.18508489815934 0.38498171489039296
1.4415998835349342 13.078005588080648 456.53069952505524 52.49592266646564 0.3913792647430806
1.4681961773828869 13.073401780904149 408.6970546013516 54.918911818653875 0.3979608659816889
1.494608013785304 13.067522971072107 366.2547418319164 57.46024736835625 0.4047355882594589
1.520820639535637 13.060368116515557 328.5995895024458 60.12656289908086 0.4117132120258397
1.546805301613514 13.05187186371978 295.06507017407483 62.924970049422114 0.41890428706349975
1.5725234237764794 13.041980519724628 265.25363887821885 65.86310177945364 0.42632019580630487
1.5979365388941928 13.030636534909611 238.72459155185007 68.94915980226348 0.4339732219978723
1.6230460294427067 13.017818602022723 215.0515021753683 72.19196661233005 0.4418766253188532
1.6477874025667802 13.003455418745157 193.93470685115688 75.60102259656553 0.4500447226870342
1.6721364039507443 12.987509431270958 175.10409741922518 79.18613155867007 0.4584911513686873
1.6960725256883402 12.96994658525011 158.23490038362377 82.95777687465788 0.467230383843614
1.7195520214561182 12.95071932078832 143.16476874198938 86.92857025043315 0.47628340422099896
1.7425342443779646 12.929770152090523 129.68027065793572 91.10994819850733 0.485663963911302
1.7650135925564225 12.907101368509721 117.57891031981487 95.51631548979012 0.4953952087709642
1.7869252900468369 12.882618953251102 106.7368642801431 100.16104374771277 0.5054934596729017
1.8082752306175678 12.856375182776782 97.00369714051148 105.06082823674139 0.5159850498548986
1.8289787925596175 12.828216868364107 88.26139233484095 110.23222771440919 0.5268925422014461
1.8490594561347111 12.79823611223249 80.40187137577917 115.69308081294528 0.5382400286433596
1.8684316205175262 12.766278642222117 73.3257471758074 121.4632499334641 0.5500555126833613
1.8871072569875502 12.732437643216436 66.9542379310133 127.56417838783125 0.5623688421706479
1.9050252794170182 12.696604362180397 61.20490477980837 134.01867600343215 0.5752105863320791
1.9221631013503455 12.658765305177244 56.028496003959084 140.85230616873997 0.5886165428442297
1.9384712725314142 12.618857828999076 51.35028509435874 148.09277038041125 0.6026249936605668
1.9539621615508096 12.576991665108105 47.1266053962402 155.76838818844303 0.6172710197617048
1.968571576239678 12.533036427222768 43.30630831515055 163.9130451534436 0.6326029707319214
1.9822817891442748 12.487016518473542 39.84739468526207 172.56079185861395 0.6486632526579091
1.9950628717557795 12.438913663741051 36.71642707163877 181.7505046079792 0.6655035432236001
2.0068929368462554 12.388731387440277 33.87659972945975 191.5244668901901 0.6831791011306297
2.0177323247020085 12.336433452357078 31.302665837254544 201.92877124250901 0.7017492362025273
2.0275612961735234 12.282029274832473 28.96851751240412 213.01316426271293 0.7212758312250582
2.036361680523535 12.225533641086246 26.848680027327507 224.833730410954 0.7418310339716362
2.0440968206544006 12.166914809175852 24.92265825094555 237.45117336402362 0.7634903096760619
2.050747156568007 12.106180776047896 23.169841399160347 250.9327161871859 0.7863372385460543
2.0563104657062334 12.043406558168282 21.57834105477764 265.3517267308159 0.8104606471314144
2.0607461717860422 11.978531682429447 20.126987990712934 280.7895770091085 0.8359587938617977
2.0640433033801324 11.91160724865754 18.808194791298234 297.3365996212616 0.8629403474495113
2.0661885984835675 11.842677190879803 17.606966715103567 315.093176024085 0.8915255075337382
2.067173740565223 11.771764649904947 16.511622659191225 334.1685299943764 0.9218391830705174
