M[M_sun], R[km], Lambda[1], P_c[MeV/fm^3], rho_c[fm^-3]
0.24162668629717493 15.618656898711224 2160425.4255784233 3.5677272577965504 0.1711233750220791
0.25364504175472125 15.277268325024634 1723278.2934048914 3.7848394090327444 0.1738884198883374
0.26604183695657646 14.98124984151472 1382905.7930967517 4.011443116407386 0.17666716421936357
0.2788179422923571 14.723467672942672 1116473.5907870526 4.247793856704903 0.17945827556795566
0.2919738072829454 14.498351515185142 905780.46183391 4.494517073782249 0.18226832489410583
0.3055109827899779 14.301141962222967 738608.1793053113 4.751769186378675 0.18509303438920685
0.31942814503630756 14.128072621101522 605025.414346864 5.020231197965207 0.18793899461647723
0.33372615019996243 13.975959787291366 497627.41153452784 5.300128886816191 0.1908028622253088
0.34841058295222965 13.841946611085826 410956.8314001473 5.592188953580034 0.19369089493447517
0.3634750989286546 13.723890818744492 340622.67874475033 5.896581118745914 0.19659820070841683
0.37893002090718214 13.619922650694038 283263.1190243188 6.21416850321301 0.19953243991728623
0.3947638110166847 13.52836757880769 236375.76895856185 6.545206192739479 0.20248974926341726
0.41099035422082136 13.447795836155555 197837.5628838642 6.890401311564474 0.20547391953184152
0.42760022876172055 13.376981761034418 166045.46644299873 7.250456992374103 0.20848798728131393
0.4445967951463569 13.314860620016539 139777.25302053452 7.625628983307259 0.2115274471977163
0.4619803561799099 13.260504549815082 117960.56415237382 8.01687279782085 0.21459856123104873
0.4797468857089195 13.213098267482252 99788.79136189091 8.424890656237588 0.217702929392646
0.49790630843418443 13.171929852660455 84624.86030815679 8.850119187548913 0.22083795764458972
0.516446110831336 13.136354674076205 71923.56139909252 9.293440245851766 0.22400717382132151
0.5353670863873358 13.105796432968074 61260.459435000565 9.755734939198511 0.22721344021773462
0.5546761685923938 13.079777118643927 52292.220445937724 10.237812004915611 0.23045809378852303
0.5743605399270829 13.057806192974189 44718.86362475783 10.740139670515665 0.23373779303709885
0.5944195823761467 13.039507020926079 38318.65855342953 11.263972026458624 0.2370588418360518
0.614858857258584 13.024478303290222 32893.43403930716 11.810242154021092 0.24042279361421173
0.635665251031012 13.012417796424028 28283.537769420742 12.379929412475386 0.24383128195735926
0.6568380292898925 13.003010715001635 24364.078162407397 12.973714376255968 0.24728216089379848
0.6783715665606967 12.995966973927727 21021.28491988952 13.592940925643978 0.2507804055054032
0.7002625589848486 12.991057584102965 18166.85070328519 14.238799124725071 0.25432856164472517
0.7224996317617514 12.98798881025369 15723.96969273109 14.91247912340195 0.25792861481555324
0.7450893618788255 12.98665356830773 13629.53320205152 15.614998391873424 0.26158033724739804
0.7680140254713466 12.9867525654323 11832.608662629897 16.347647902522773 0.26528586955470634
0.7912605452009811 12.988148347131714 10286.37993578086 17.11203252436067 0.26904978404234015
0.8148377646000228 12.990669755391204 8953.300133430734 17.909607911543425 0.27287451448725836
0.8387225125709988 12.994156541974604 7805.101438977686 18.74172073430254 0.2767609724833944
0.8629054853510925 12.998419105911927 6811.724781737884 19.609753341347744 0.28070997501036715
0.8873881575809376 13.003379321087197 5953.166186691462 20.515774285969645 0.28472771995561674
0.9121488389374063 13.008853918436769 5209.286977875266 21.461578497799632 0.288817222259879
0.937170494430842 13.014757970206597 4563.491976497138 22.44862624474528 0.29297820887778775
0.9624554576131629 13.020969077216229 4002.953863794963 23.478991585481317 0.2972148664324519
0.9879798363131554 13.027348142161358 3515.1680994659114 24.555074698240734 0.3015331081146339
1.013723963936737 13.033807630477213 3090.5110230926275 25.678789421757124 0.305934350797136
1.0396909793852855 13.040269086324578 2720.249046456195 26.852155232901588 0.31042028207389283
1.0658445528645568 13.046598726767037 2397.196253364311 28.078242438603677 0.31499943061112806
1.0921805347911162 13.052725462378465 2114.7697476737985 29.35907155627734 0.319672001104338
1.1186795692880185 13.058556606963025 1867.5990276329753 30.697469032993816 0.3244431591381817
1.145312833625369 13.064010660602344 1651.3734424605052 32.096763446454986 0.32932047751238
1.172078624861637 13.069019065360965 1461.4092232730852 33.55897233361827 0.33430214722788243
1.1989367190793805 13.073478210195479 1294.830881934221 35.0886035155195 0.3394014977581178
1.225884781040066 13.077346356050976 1148.5272896710771 36.6876365790741 0.3446150202062888
1.2528828740052835 13.080508111869216 1019.6932638656554 38.36116756089732 0.3499574196782078
1.2799276910506605 13.08294238658202 906.3117066180141 40.11148578556693 0.3554255530280201
1.3069726272825475 13.084529052145115 806.392965741945 41.94397173255688 0.36103344553572525
1.3340127317077446 13.085239474049137 718.2740323961925 43.86220576601728 0.36678356508233045
1.3610218968695953 13.08503138204786 640.3079599192156 45.87078290619497 0.37268313997944474
1.3879550900329587 13.083765025926715 571.5366544009742 47.97508582690384 0.3787423949194115
1.4148054196292503 13.081461170664364 510.5847821394058 50.1799288778187 0.3849672671531933
1.441538450291575 13.078013667955414 456.6663589177389 52.49042686724648 0.3913641753375228
1.4681340722967111 13.07341339247552 408.8117908354654 54.9130518991695 0.3979450921323205
1.4945449345035056 13.067538747363578 366.3473212377479 57.4539970152113 0.4047190838835144
1.5207569403919174 13.060389392342973 328.6885480860653 60.119893650278804 0.41169592746157885
1.5467410455506827 13.051894378778817 295.14143940613127 62.91785110014977 0.41888616877162005
1.5724581717022665 13.042008139450045 265.3262394510892 65.8554997682788 0.4263011860415379
1.597872283278185 13.030666861555396 238.79438530316824 68.94103857554323 0.433953258447531
1.622969821007681 13.01784501511038 215.1280138249494 72.1832869643584 0.4418556407047197
1.6477227911798535 13.00349508792618 193.98603220478222 75.59174198268065 0.450022644326537
1.6720714700964179 12.98755437787942 175.14081971534196 79.17625225466365 0.45846810306546687
1.6960078380720538 12.969993846062419 158.28262897666716 82.94720246243241 0.46720608387511753
1.7194865345605084 12.950776736830143 143.2036597620308 86.917246278698 0.47625776099651895
1.742469151765211 12.929822439924761 129.71594770484117 91.09786995438118 0.4856370942639632
1.7649482117429118 12.907168718475575 117.60697013670222 95.50336658113116 0.4953667959740157
1.7868769519878067 12.882726194018623 106.76320561653372 100.14721289835838 0.5054636133000294
1.8082132757225524 12.856454634915194 97.03405537512401 105.04604370495129 0.5159536548706527
1.8289268568102883 12.828318789548083 88.28716181939724 110.21641124604228 0.5268594741733943
1.8489994454486942 12.798327262690297 80.42074873447935 115.6760823344987 0.5382049156526129
1.8683731184385668 12.766380296662135 73.34588398217706 121.4450385099942 0.5500184408989187
1.8870485230832221 12.732549659610147 66.96992263416973 127.54472100449574 0.5623298997584159
1.9049704498278328 12.696720567094836 61.22348776910094 133.99779401803846 0.575169358809113
1.9221088852471941 12.658890136697748 56.043888669339545 140.82987709149822 0.5885728424724157
1.9384199311757562 12.618989076075211 51.363641197573536 148.0686598486727 0.6025786158531938
1.953913031226801 12.577130632104328 47.140193084371596 155.74252807291526 0.6172220122541457
1.9685259966827273 12.533190150336031 43.31780850052388 163.88527869000117 0.6325511027474555
1.9822367440972641 12.487175736128465 39.85772563363413 172.5308632888329 0.6486079928261306
1.9950210783922544 12.43908241428363 36.72616526401528 181.71830540623435 0.6654448919311545
2.0068533928915984 12.38890863946123 33.88469339945323 191.48978788419765 0.683116758265645
2.0176956202076632 12.33661937794186 31.31199223007085 201.8913816860671 0.7016828734280185
2.0275276884594695 12.2822271575442 28.97655426977967 212.97290366819146 0.7212053977236578
2.0363318373647497 12.225738326963008 26.855426348224448 224.7902259808835 0.7417558355285657
2.0440708291618472 12.167129861343257 24.929850098627508 237.4042130861027 0.7634102380883622
2.0507246766922407 12.106405708812295 23.17598502527143 250.881960656111 0.7862518363195542
2.0562918983646927 12.043642409893385 21.583367822453376 265.2967994112539 0.8103694115391011
2.060732158750945 11.978776940926636 20.1327112582982 280.73005955434627 0.8358611713834214
2.064031031720764 11.911865780888059 18.811768895639542 297.27202653592786 0.8628357274809932
2.0661861714898144 11.842948013087945 17.61055355935764 315.02302856873524 0.8914132152546658
2.0671711942482474 11.772042411515597 16.515691768744272 334.09234533446147 0.9217188554857694
