M[M_sun], R[km], Lambda[1], P_c[MeV/fm^3], rho_c[fm^-3]
0.24162668629717493 15.618656898711224 2160425.4255784233 3.5677272577965504 0.1711233750220791
0.2536441345002724 15.277267838551825 1723296.6615910593 3.7848215045086935 0.17388819671708253
0.26604004422523647 14.981259980014645 1383042.9941304005 4.011405477329657 0.17666670937332227
0.2788156545302669 14.72349507561396 1116473.6944102903 4.247735209484398 0.17945759534857728
0.2919698963984762 14.498421833045635 905901.3881550642 4.494435879263994 0.1822674207743008
0.3055053730487072 14.301209131839537 738627.8003921983 4.751662687393951 0.18509188399691548
0.3194214455377829 14.128143554352299 605105.1486981085 5.020098609799939 0.18793761896308825
0.3337199200896186 13.975940059273697 497650.23261677485 5.299966718510845 0.19080122945955982
0.3484009366117773 13.842028189431396 411007.2764669134 5.5919968000194125 0.19368903579591654
0.36346329564954033 13.723990434327636 340645.04482402274 5.896354662609657 0.19659607378446187
0.3789168655533957 13.62000345736795 283300.1351973118 6.213905003750703 0.19953003711946402
0.39474952868806296 13.528451645927083 236404.4665548244 6.544905923311011 0.20248711630617372
0.41097470875982517 13.447883092790198 197869.27588193023 6.890058475069901 0.20547099979238798
0.4275823398487149 13.37705392900898 166074.63556057113 7.2500683713122935 0.20848477231886461
0.44457725693257183 13.31492950057927 139795.83775197598 7.625195651583587 0.21152399759856447
0.46195881711980613 13.260570261437277 117982.12108436652 8.016387196552591 0.214594804712647
0.47972374695116377 13.213152407751041 99807.02937617003 8.424348998345355 0.21769885688252025
0.4978811154880835 13.171979229435491 84641.30359246359 8.849523470042229 0.2208336443953108
0.5164185345654075 13.136408668929375 71937.04169939898 9.292780827455683 0.22400253147470314
0.5353378048967476 13.105845675051237 61274.403966918915 9.755007348366712 0.22720845874576387
0.5546451989723958 13.07981272695663 52298.84243421353 10.237012619468608 0.2304527771423969
0.5743270964958922 13.057849951083321 44731.43286400238 10.739269726368985 0.23373220772620218
0.5943838576373409 13.03951804119286 38328.66767394938 11.263019560997737 0.23705289081461609
0.6148201360534643 13.024504105186416 32901.337708760366 11.809201539871232 0.24041646494395422
0.6356246645301955 13.012457427458346 28292.661219195114 12.37879467115586 0.24382456306980516
0.6567948078623443 13.00301622012875 24370.138671787965 12.972490718722241 0.2472751669691201
0.6783274120858073 12.995981145113483 21027.91414078971 13.591610974254342 0.250773000692381
0.7002145927364203 12.991065930197983 18036.86978173149 14.23735574763758 0.25432073125358146
0.7224489916265426 12.988000626806128 15730.036618352124 14.910914730504542 0.25792034328060226
0.7450369220390403 12.986642238159554 13634.211270549626 15.613320170253116 0.2615717592916834
0.767956785775391 12.986753870328142 11836.586688578567 16.345833123563676 0.2652768233367575
0.7912010922353795 12.988138189451128 10289.01375329144 17.110072078939936 0.26904025106012164
0.8147761782564392 12.990668506323386 8956.317840598998 17.907492086567746 0.2728644750490375
0.8386566522022139 12.994136366523096 7807.229065128506 18.739458914719798 0.2767505805927086
0.8628393134631483 12.998405402065197 6814.769496589223 19.607316115280987 0.28069904071408364
0.8873194894214784 13.003354729070402 5955.48510988573 20.51314992163713 0.2847162195841975
0.91207313692812 13.008856130402798 5211.173247035308 21.458754459993084 0.28880513054779594
0.9370954943997067 13.014739867323733 4565.396447656994 22.445614298060494 0.29296569896600155
0.9623783899911118 13.02094914349923 4004.602453077408 23.475753928426535 0.2972017173451508
0.9878984225355618 13.027333004213812 3516.6534239653015 24.551596089529706 0.30151928925359806
1.0136403626173207 13.033790543575524 3091.868935468335 25.675083327519136 0.3059200482657181
1.0396038471222917 13.04024173021491 2721.467903319779 26.84817634075972 0.31040525053585816
1.0657559674829726 13.046570580098358 2398.381055047593 28.073972121118008 0.3149836328498722
1.0920868372158945 13.05269978143525 2115.785607466707 29.354524949347542 0.3196556361110216
1.1185848543144539 13.058534150590699 1868.6406547545391 30.69259184899486 0.32442595455559176
1.1452160504077449 13.063992256931941 1652.100920050632 32.09157160477924 0.329302638855758
1.1719787069052603 13.069004395344987 1462.0757720022475 33.553404927981965 0.33428338449686457
1.1988355539708178 13.073455839498202 1295.518963757045 35.082634265605144 0.3393817590669183
1.2257807638345322 13.077334872229278 1149.058071577705 36.68128280869595 0.3445945239265914
1.2527760631113953 13.080497276915017 1020.2046922310525 38.35440348199186 0.3499361202421834
1.2798176349624149 13.082932473783405 906.7170031527049 40.10423450848255 0.35540311999921614
1.306862075004295 13.084518126251945 806.7567685823064 41.93625060373604 0.36101010339355394
1.333898692025035 13.085238801680347 718.5983784233072 43.85392820863559 0.36675895990095464
1.3609059870685116 13.085033696435106 640.6333675605708 45.86196626621115 0.3726575023880218
1.3878374002675262 13.083775151139655 571.8007436228926 47.96569244148715 0.3787156583122648
1.414694157303899 13.081485898604662 510.8293536754831 50.169855732837014 0.38493904109087107
1.4414176792356066 13.078031077072778 456.8791226217944 52.47968995524036 0.3913346957999273
1.4680118187842288 13.07343495302781 409.0342616894092 54.90160367253384 0.3979142755651359
1.4944206013297476 13.067572543800734 366.5283568885206 57.441786074639346 0.40468684027276774
1.5206321195747523 13.060427610666395 328.83785635381196 60.106864399880585 0.41166215980311177
1.5466159538450528 13.051938977971492 295.2897351662048 62.90394336815444 0.4188507724879782
1.572332090353767 13.042061566891315 265.46864214940064 65.8406483894882 0.42626404834063464
1.597756196736483 13.030733018290748 238.924580664081 68.92517293123859 0.43391425761678415
1.622842495301599 13.017913078234217 215.2426258030726 72.16633047483089 0.4418146453335992
1.647595466464524 13.003574000752476 194.10132656460732 75.5736115469593 0.44997951244961665
1.67194408859091 12.987640654754486 175.23704540604916 79.1569523161268 0.458423076529666
1.6958814813440906 12.970094077654819 158.36485573390289 82.92654469421385 0.4671586123839165
1.7193614897939329 12.950883718641004 143.27922638198527 86.89512432555915 0.4762076656568675
1.7423470084406585 12.929943808389227 129.778097058896 91.07427460876958 0.4855846033051119
1.764828070281741 12.907297693145702 117.68096840246422 95.47807050808443 0.4953112907414125
1.7867535300895399 12.882861389794458 106.82180112177804 100.1201940708587 0.5054053078424637
1.8080915087201384 12.856611050232814 97.08439797166872 105.01716199813585 0.5158923245056918
1.8288029462506343 12.82847778806244 88.33337524344009 110.18551381651444 0.5267948758672076
1.848883232305787 12.798514127745083 80.4612597681699 115.64287607200349 0.538136322972898
1.8682602702532967 12.766576186409505 73.38985353263364 121.40946299167206 0.5499460221805879
1.8869416149496727 12.732757363973757 67.01143008559772 127.50669173455405 0.5622537557500625
1.9048621588302403 12.69694688348472 61.256309583277485 133.95700211126058 0.5750888229193588
1.922005351817506 12.659131087368548 56.07549922175772 140.78606330852915 0.5884874765616525
1.9383198852407104 12.619247307368628 51.39196238591595 148.0215617723432 0.6024880203600987
1.9538163304997342 12.577405703708006 47.1622265368658 155.69201263683328 0.617126280446104
1.9684343397854716 12.533479369095295 43.34359379695627 163.83103972810454 0.6324497839158755
1.9821501010270877 12.487481869106043 39.88088212655553 172.47240131204757 0.6485000491780968
1.9949408219137486 12.439409962198553 36.74435712110204 181.65540845812404 0.665330324268056
2.006777377100651 12.389252447741534 33.90325566957028 191.42204745773606 0.6829949804885708
2.017625563266779 12.336982769916794 31.328771059628387 201.8183471463674 0.7015532443243148
2.0274633260151598 12.282600408479617 28.99160461787683 212.89426158201704 0.7210678180989021
2.0362741643227307 12.226139039992956 26.870418035859277 224.70524832075986 0.7416089496200109
2.0440208918092884 12.167547631406642 24.943016912790007 237.31248580372113 0.7632538346456899
2.0506809297310586 12.10684534212193 23.187891469999084 250.78282093744122 0.7860850219344087
2.0562547460372165 12.044103436739814 21.593738975480097 265.18935624743204 0.8101906971437396
2.0607039724512215 11.97925766761662 20.14202166019001 280.61380738031573 0.8356704907605549
2.064011115096602 11.91236849558433 18.821965312744485 297.14590064295516 0.8626313809349994
2.0661735528707434 11.843469336261734 17.619046104148648 314.88601598269116 0.8911938850527108
2.0671682611936055 11.77258271243836 16.52405514567043 333.94354224029126 0.9214838328848348
