M[M_sun], R[km], Lambda[1], P_c[MeV/fm^3], rho_c[fm^-3]
0.24162668629717493 15.618656898711224 2160425.4255784233 3.5677272577965504 0.1711233750220791
0.25363819780321795 15.277467385012802 1723258.3863478526 3.7847273633372516 0.1738870232927957
0.26602873366587604 14.98152743775758 1383242.1344898453 4.011207576930668 0.17666431786379333
0.27879772636348865 14.723873667928778 1116809.6095388571 4.247426857803257 0.17945401893375212
0.2919467065369038 14.498773267403742 906216.5396113376 4.49400898825326 0.18226266724382004
0.3054761243441893 14.301589743284518 738970.4265963673 4.751102766000018 0.18508583577723495
0.31938615621073446 14.128532619067363 605350.304347948 5.019401537021911 0.18793038656397082
0.3336779141928721 13.97633328681357 497977.6425549211 5.299114146927731 0.19079264547838995
0.34835005334307734 13.842405559055939 411272.1311067448 5.590986604593614 0.19367926187727674
0.363405946756712 13.724386416594376 340882.2636314026 5.895164153395122 0.19658489226998035
0.3788510111031601 13.620405526383179 283520.31551317533 6.212519779233726 0.19951740553978806
0.3946751359260058 13.528838557986639 236605.15718216027 6.543327425313422 0.20247327501118123
0.41089047050597016 13.448284702807019 198047.8914978011 6.8882562381021115 0.20545565118609088
0.42748974275461477 13.377412069275609 166245.10174303935 7.248025489884482 0.208467872084358
0.44447530616995456 13.315285896721184 139947.00567041442 7.622917775324892 0.21150586423887563
0.4618466298953187 13.260892391735268 118104.68213539464 8.013834603595843 0.21457505834244378
0.4796023897291331 13.213442625139418 99923.64054091222 8.42150179178172 0.21767744986948348
0.49774837138390143 13.17225609207149 84739.68661251066 8.84639215068368 0.2208109723052451
0.5162753132125976 13.136653930633296 72032.2704698406 9.289314733673008 0.22397812995838737
0.5351830161131867 13.106067216669993 61358.42114003329 9.751182988571925 0.22718227515425715
0.5544783409312125 13.080032323858779 52374.59594725318 10.232805075045517 0.23042475653790753
0.5741475073740229 13.058010953739931 44791.29074651705 10.73469728044296 0.2337028512069906
0.5941972620395468 13.039685442315385 38383.0562015651 11.258013469198753 0.2370216126624643
0.6146189459420071 13.024650346797626 32950.35582826111 11.803732240764083 0.24038320248005868
0.6354079390470566 13.012540640842994 28338.177444855653 12.372830759560346 0.24378925030670817
0.6565633864991336 13.003092090135798 24409.959157203015 12.966059581060358 0.24723840922345688
0.6780860063862935 12.99604404169525 21062.656193061295 13.584621313462147 0.25073408413373227
0.6999614384358801 12.991101766080194 18203.020602141012 14.229770102057437 0.25427957875609164
0.722181449318523 12.988017559209768 15755.764503581893 14.90269323215391 0.25787687311970525
0.7447545971975954 12.986655568820808 13657.86875273137 15.604500585049763 0.26152667942238594
0.7676620671763174 12.98674408345269 11856.948146052455 16.336296053342448 0.2652292834336845
0.7908930896060066 12.98810491363922 10239.167828010712 17.099769679729633 0.268990153981447
0.8144527748560478 12.990614789050277 8973.859967162109 17.8963733432586 0.27281171740706384
0.8383200747002129 12.994084302199976 7772.438282761525 18.727573135214914 0.2766959715857511
0.8624863148865624 12.998338506654306 6827.943144053887 19.594508807961777 0.2806415824032884
0.8869476195365272 13.003268313316232 5967.4382993258505 20.499359472552904 0.2846557876980675
0.9116932326694062 13.0087543775422 5221.868349117101 21.44391503716608 0.28874159243655445
0.9366990379364823 13.014640901836215 4575.045191619345 22.42978770363482 0.29289996430305365
0.9619626134994276 13.020837348630213 4012.9203440164556 23.458741622707986 0.2971326253167792
0.9874738839202044 13.027225271568637 3524.20502877726 24.533318033910916 0.301446679215625
1.0132013578107995 13.03369097609186 3098.6288326444364 25.655610255885748 0.305844897931983
1.0391498263073455 13.040137990346041 2727.5889587804827 26.827270283401752 0.310326271215704
1.0652891137297618 13.046465303370088 2403.55297307586 28.05153526372767 0.31490062915809197
1.0916031605876455 13.05259224022459 2109.946671306356 29.330636789117268 0.31956965340159776
1.1180874391015696 13.05843133841246 1872.762388225662 30.66696730303243 0.3243355623092801
1.144705151397181 13.063890181485958 1656.017308165488 32.06419675445706 0.3292082857350137
1.1714537775540832 13.068910587875136 1465.5646443823953 33.52415500206978 0.33418480923074695
1.1983016662275492 13.073398091499637 1298.6174575601012 35.0512737541984 0.3392780583575501
1.2252298087538855 13.07725549465897 1151.8283280016487 36.64790268616037 0.3444868448184235
1.2522131487393842 13.080436634495566 1022.6764245630892 38.318628442157696 0.34982281589877773
1.2792424505730948 13.082894127236896 908.9745294740743 40.066140646724094 0.3552852703172725
1.306274493574447 13.084498016038161 808.8018855502883 41.8956891031911 0.3608874798323662
1.3332996471364518 13.085232265136119 720.4037045578601 43.810444525764716 0.3666297039073576
1.3602979934670862 13.08504766890064 642.3510669023221 45.815651477203886 0.37252282527297725
1.3872195627858832 13.083818778349746 573.2799617591559 47.91634881683191 0.3785752104280274
1.4140583884176157 13.081535451526133 512.1688766163055 50.11694247789301 0.38479077231935677
1.440788636945876 13.078142838080343 458.0817993150404 52.42329103176631 0.39117984548691814
1.467368492165087 13.073560536810927 410.11844447722353 54.84146947726814 0.3977524051263799
1.4937715850825262 13.067731274986384 367.5274100102682 57.37764679227051 0.40451747722967657
1.519976626842489 13.060624824568691 329.7182660513196 60.03842819402018 0.4114847950004068
1.5459560933109688 13.052175471500295 296.1148131749097 62.830894391862834 0.4186648570356649
1.571667511534264 13.042334573783137 266.19716192435016 65.76264459526759 0.4260689902507476
1.597083633551375 13.031042351096826 239.5740894855712 68.84184365796006 0.43370941810185537
1.6221785343550978 13.018270171044968 215.83379890248472 72.07727378629511 0.44159933472987045
1.646926094579379 13.003984843902083 194.64321965179192 75.47839129365613 0.44975298572356803
1.6712803427344896 12.988106526079859 175.72881687938172 79.05538894346256 0.458185756284303
1.6952027083181753 12.970598757310281 158.8185925565506 82.81805552125827 0.4669093045804363
1.7186986559704143 12.951458426534225 143.68880384104105 86.77894837411237 0.47594458428649616
1.741697265033333 12.93059816663434 130.15681614465134 90.95036350899255 0.4853089467181443
1.764179449191471 12.90800243084815 118.01991767674494 95.34523131846922 0.49501981189784705
1.7861091829774545 12.883622872384802 107.13250017347562 99.97831114729826 0.5050991306488367
1.807456509732934 12.857429080579204 97.36577374490037 104.86550002941824 0.515570269997224
1.828186766530124 12.829391446272764 88.58545942427783 110.02272854292907 0.5264536501980717
1.8482694196028753 12.799472212847997 80.697471585087 115.46851409933471 0.5377761513050554
1.8676697671263738 12.76764147995395 73.59623943850836 121.22266498437357 0.549565769891561
1.8863488368039882 12.7338473935848 67.20052219434744 127.30640959192299 0.5618517910878812
1.9042940084073372 12.69813507532413 61.43317336764589 133.74282462787446 0.5746659700656362
1.921444798419378 12.660373323008475 56.23791524120379 140.55602579008584 0.5880392759968778
1.9377891427549592 12.620599609801735 51.54064652823541 147.77428756183897 0.6020123761135348
1.9533098770445945 12.578852570648555 47.3007022599143 155.4268035208298 0.6166236826234706
1.9679565006894189 12.535026618746766 43.465199553995475 163.54561191377053 0.6319155738716747
1.9816962595761078 12.489111984923488 39.99218750589529 172.16549024335288 0.647933371446714
1.9945090510440477 12.441118349590724 36.84944890802154 181.325224513996 0.6647288896355672
2.006371883488444 12.391047680790125 34.00125613734348 191.06644795795924 0.6823557150030474
2.017261504601937 12.33890756386891 31.42014756435421 201.43496855960083 0.7008727851499834
2.0271219047469122 12.284596354200565 29.073665780141926 212.48123237641457 0.7203449007784387
2.0359586796030773 12.228204242641556 26.9450209083201 224.25920543386073 0.7408379538712306
2.043752179932707 12.169756644662725 25.01055240575929 236.8310181434386 0.76243286931693
2.0504579791844875 12.109177748206648 23.2511006797196 250.26150979516194 0.7852063305309305
2.0560588107413844 12.046496169581395 21.65105249645773 264.62519759079083 0.8092519043621615
2.0605540145640013 11.981776818353257 20.196293852660848 280.0029048122522 0.8346671901935023
2.0639092174789497 11.915009124378752 18.870215900467954 296.4839900939895 0.8615589672438049
2.0661107404680017 11.846203638859029 17.663884442521695 314.16700049049246 0.8900428826691638
2.067151810464899 11.775426901734297 16.566565136595152 333.1626830366867 0.9202505281473345
