M[M_sun], R[km], Lambda[1], P_c[MeV/fm^3], rho_c[fm^-3]
0.24162668629717493 15.618656898711224 2160425.4255784233 3.5677272577965504 0.1711233750220791
0.25364489002860685 15.277274906032163 1723193.4755519617 3.784835856405172 0.17388837560654855
0.26604099544068976 14.981262071804679 1382978.864327746 4.011435648016461 0.17666707396826678
0.2788171180394595 14.723486331764555 1116429.439620777 4.247782219822872 0.1794581405976605
0.29197302041525974 14.498384078828774 905869.5859651278 4.494500962985952 0.18226814549664996
0.30550939106055347 14.301162892020029 738618.9259919148 4.751748054559784 0.18509280612523216
0.3194280690893933 14.12804823377264 605027.437255421 5.02020488939611 0.18793872165491868
0.33372411599992285 13.97592532256046 497650.31601891463 5.300096708780254 0.19080253824587992
0.3484086518771041 13.841963783164822 410965.82688538893 5.592150825669663 0.1936905260364537
0.3634722952214755 13.723922147064162 340636.885724049 5.896536184265591 0.19659777867426848
0.37892718009411264 13.619947423103037 283266.4868851736 6.214116218296619 0.19953196314180388
0.3947611057858613 13.528380168320373 236383.41061911758 6.545146611605456 0.20248922681736206
0.4109871418817207 13.447828049838137 197840.621953957 6.890333283873938 0.2054733401794822
0.4275959032694242 13.377014860045758 166055.28859512278 7.250379879650398 0.208487349347513
0.4445933138301357 13.314878584941333 139776.51073906463 7.625542998620492 0.21152676270432166
0.4619760829554319 13.26051782657498 117960.54540598152 8.016776441224188 0.21459781583487259
0.4797423148903611 13.213107950711738 99790.76106852581 8.424783176221858 0.217702121293182
0.4979002246034755 13.171949398681017 84625.04748844448 8.850000980359015 0.2208371017740288
0.5164404851369807 13.136364499010336 71927.27798562673 9.293309398305974 0.22400625264644175
0.5353609636671622 13.10580788087578 61265.28158773843 9.75559056395484 0.2272124517483942
0.554668932657715 13.079779975369894 52295.686603873655 10.237654281806119 0.23045705036325145
0.5743538688802186 13.0578109815888 44719.7617546453 10.739967047493005 0.23373668474382145
0.594412059740648 13.03950298993135 38321.36292758619 11.263783028305433 0.2370576609721705
0.6148513489387483 13.024479815537681 32894.35037583798 11.810035664019088 0.2404215378104786
0.6356575061000264 13.012436521219948 28285.72234415506 12.37970424422828 0.24382994871945998
0.6568294433703594 13.003001062359251 24365.39917946774 12.973471563785653 0.2472807730772881
0.6783631093957518 12.995968588946665 21023.50182598574 13.592677020510385 0.2507789361523238
0.700253370027161 12.991056962503276 18167.96335889757 14.238512711643251 0.2543270078397779
0.7224895132181642 12.987996382469909 15725.288156574312 14.912168696141057 0.25792697346960847
0.7450791316812119 12.986644547814423 13630.625665595 15.614665376613411 0.2615786350942866
0.7680013012256529 12.986759300927707 11832.932041231588 16.347287788914866 0.2652840744786905
0.7912489940677625 12.988147368129948 10287.376416447292 17.111643504718174 0.2690478923715518
0.8148255969075217 12.990671857888145 8953.636323761253 17.909188058317493 0.2728725223137222
0.8387097020789752 12.994135854914743 7805.59232988023 18.741271909843185 0.27675891036723166
0.8628921985333217 12.998420696415783 6812.256614060698 19.609269708982623 0.2807078052569558
0.8873744255259224 13.003364158772609 5953.634207928213 20.51525351752624 0.2847254378675513
0.9121303925218641 13.008865278149525 5209.63750694981 21.461018105658347 0.28881482282301224
0.9371555007444476 13.014751637647842 4563.737944752778 22.44802856351367 0.29297572645021974
0.9624409036056404 13.020962093973653 4003.353580047431 23.478349113503736 0.2972122571628539
0.9879643591101188 13.027343637864 3515.368839077793 24.55438441085026 0.30153036593052635
1.0137079457757463 13.033805019095675 3090.7913957679116 25.678053991252636 0.3059315126291832
1.0396740339277015 13.040265476953389 2720.5360661086734 26.851365667013127 0.31041729923614303
1.0658262476966887 13.046590877392717 2397.410983776402 28.07739504064345 0.3149962957175963
1.0921616452217415 13.052719746513217 2114.904168939847 29.358169329939756 0.3196687536434925
1.1186608007696037 13.058556376794117 1867.682398635615 30.696501204755734 0.3244397450613582
1.1452940366844233 13.06400667065314 1651.5270598046766 32.09573317551892 0.3293169376029213
1.1720598814963383 13.069015339574694 1461.5215926406054 33.55786753288755 0.3342984239355102
1.1989164627949 13.073481724720112 1294.9619860206465 35.08741896948526 0.33939758078551374
1.2258636626157016 13.077347448763492 1148.6345426426114 36.68637572568804 0.34461095288844124
1.2528618077586002 13.080497612051289 1019.7576658253239 38.35982528236654 0.349953192971794
1.2799060511415785 13.082937954766415 906.3983549652463 40.11004682261425 0.3554211013573709
1.3069505445800604 13.084522100623012 806.492199476364 41.942439527666274 0.3610288134482129
1.3339901756116008 13.085238623423226 718.3390820936158 43.86056313729922 0.3667786823402754
1.3609988665230297 13.085031120076204 640.3669711866662 45.869033296065574 0.37267805235085505
1.3879326114890937 13.083766685460548 571.58401981921 47.97322176082772 0.3787370891856252
1.4147828921657641 13.081460217320974 510.62946790867153 50.17792991155528 0.38496166582943253
1.4415145911277019 13.078018982525755 456.7032881545451 52.48829617465721 0.39135832525397424
1.4681098240753883 13.073417778142918 408.8576305987645 54.910780043891805 0.3979389767064972
1.4945208449292824 13.067545106759502 366.38773781547314 57.451573796431674 0.40471268525086007
1.5207324421415627 13.06039736540801 328.71759077225914 60.117308034280214 0.41168922637016536
1.5467166641115422 13.051905412738487 295.17488541589546 62.91509114502755 0.41887914446640784
1.5724329741224978 13.042018462855927 265.3578924845574 65.85255254106451 0.4262938161370784
1.5978468242985053 13.030680198119656 238.81592938424782 68.93789006088333 0.43394551878786153
1.6229445397511977 13.017857512279438 215.14703510384038 72.17992196378891 0.44184750520904753
1.6476970412343466 13.003511501196154 194.0179631367082 75.58814400341998 0.4500140848191419
1.6720455888183672 12.987574519755965 175.15868795227235 79.17242217876922 0.4584591675422241
1.6959824566003001 12.970012856637762 158.29854853031625 82.94310291294615 0.46719666312233793
1.7194627904403903 12.950796166333342 143.22036525878065 86.91285614737323 0.4762478195090541
1.7424440475707224 12.929852164180947 129.72372558714088 91.09318741404057 0.48562667733528647
1.764926045684475 12.907192471374007 117.62981692873399 95.49834651232284 0.49535578082212334
1.7868519232254787 12.882754189117719 106.77914780982803 100.14185092962899 0.5054520424041338
1.8081900094635561 12.856484253628748 97.04645882306684 105.0403120255707 0.5159414836374739
1.8289040552846976 12.828352820589688 88.2947617979065 110.21027952087232 0.5268466543671503
1.8489758436369181 12.798364147702635 80.4283868037345 115.66949238847704 0.5381913030981477
1.8683515165524536 12.766418643821085 73.35689594421443 121.43797835105863 0.5500040690025856
1.8870260267948713 12.732592637455122 66.97670897928036 127.53717783407551 0.5623148027000409
1.9049489836522193 12.696765752185534 61.2310285461574 133.98969858723666 0.5751533759151013
1.9220881727062586 12.658939454900134 56.049195632018616 140.82118191835943 0.5885559009685342
1.9384001901374637 12.619039619416235 51.36964433634885 148.05931284909906 0.6025606364344718
1.9538940909009423 12.577186284007228 47.14467045853103 155.73250283679545 0.6172030134281584
1.9685068326278772 12.533246146132083 43.32198334700405 163.87451444978765 0.6325309950572796
1.982219741632753 12.487236518204803 39.86314382433269 172.5192609046788 0.6485865702923684
1.9950050786352385 12.439144432395599 36.73076701747865 181.70582280943134 0.6654221547079969
2.0068384314862273 12.38897702591971 33.8885882369787 191.4763439931807 0.6830925900215287
2.017681432297291 12.33669113363084 31.31477082226832 201.8768870570581 0.7016571468913048
2.0275148180123708 12.282298845722297 28.979980982267183 212.95729609073913 0.7211780932006766
2.036320808681281 12.225817394236628 26.858798551073136 224.77336095051945 0.7417266839220821
2.0440615156358835 12.167212205873845 24.932816726678936 237.3860084208671 0.7633791974618265
2.0507165513415226 12.106492754051184 23.178610596549955 250.8622847953191 0.7862187293401897
2.056285127347412 12.043733461529117 21.585879679142565 265.27550640274984 0.8103340433423916
2.0607265517087168 11.978875693595212 20.13440692670693 280.7069872401403 0.8358233274180895
2.0640270581431803 11.91196480196197 18.814335148490766 297.24699448362566 0.8627951710709927
2.066183768521824 11.843051382616173 17.61189865397568 314.9958357091591 0.8913696848349082
2.0671702333684263 11.77214791878034 16.51731102650405 334.06281226687577 0.9216722103646026
