M[M_sun], R[km], Lambda[1], P_c[MeV/fm^3], rho_c[fm^-3]
0.24162668629717493 15.618656898711224 2160425.4255784233 3.5677272577965504 0.1711233750220791
0.25364454309351975 15.277274194347779 1723060.0574910296 3.784829807434563 0.17388830020904802
0.2660404008411809 14.981264689016118 1382923.0673167119 4.011422931795847 0.17666692030024528
0.2788170673464344 14.723481543938735 1116398.3470345237 4.247762406063329 0.17945791078790851
0.2919715222905485 14.498398705835518 905893.3645264533 4.494473531677265 0.18226784004266125
0.30550791280070644 14.30119038837785 738615.3278357243 4.75171207418733 0.18509241746854008
0.31942463356952294 14.12809307053435 605060.0680046233 5.020160094833851 0.1879382568940461
0.33372294393215757 13.975954014278056 497672.3343563507 5.300041920600207 0.19080198661981687
0.34840540032245093 13.841990527312976 410983.8125553819 5.592085906991584 0.19368989793038477
0.36346939771245923 13.72397470415356 340649.9462773196 5.896459676472234 0.1965970600968825
0.3789230561362342 13.619966274613128 283278.58885860903 6.214027195411453 0.1995311513602817
0.394756081366132 13.528412790385051 236397.10524111902 6.545045165969709 0.2024883372761829
0.4109816437252628 13.447852390237761 197850.2084885945 6.890217456919039 0.2054723537485294
0.42759074978794775 13.377016637198171 166060.7787416303 7.250248584324034 0.2084862631749261
0.44458643132604336 13.314915574551597 139790.1494557944 7.625396597728797 0.2115255972590883
0.4619688268898724 13.260557011486895 117970.55162053628 8.01661238096838 0.2145965466961569
0.47973451031304054 13.213142255161657 99801.55415511403 8.42460017711065 0.21770074539569378
0.4978921039415833 13.17196610697057 84636.3168788828 8.84979971707223 0.2208356445418393
0.5164317355342972 13.136377261511297 71930.8413479599 9.293086613491532 0.22400468422745906
0.5353510064616167 13.105826158173144 61269.195300188185 9.755344746865639 0.22721076875448296
0.5546590639839794 13.079784173741155 52299.73574255216 10.237383829886394 0.2304552492589697
0.5743425517949386 13.057821806517486 44322.81397059181 10.739673135822496 0.23373479773985434
0.5944003561954451 13.039507057874175 38323.97180060327 11.26346123647034 0.2370556504109616
0.6148389934478502 13.024503611066608 32897.78680580605 11.809684090760047 0.24041939965847658
0.6356433324914785 13.012423919529185 28288.219872527046 12.3793208696598 0.24382767873019248
0.6568149949387307 13.003006943782086 24367.543031359488 12.973058148442012 0.2472784101647128
0.6783475050580897 12.995972081859927 21025.015931555656 13.592227693224945 0.25077643441838043
0.7002366912478039 12.991063466469761 18170.1542302447 14.238025062850674 0.2543243623212785
0.7224715154862549 12.988000660425492 15726.546127820904 14.911640161442529 0.2579241789074247
0.7450610994546882 12.986652762691493 13632.212081676436 15.614098384201004 0.2615757370051753
0.7679825120015773 12.98675630358817 11834.296455245878 16.346674659724208 0.2652810181834532
0.7912289790995163 12.988136655367356 10287.214157288012 17.11098116112904 0.26904467161896617
0.8148029409173936 12.990669805284787 8954.91042170458 17.908473218648517 0.2728691304506064
0.8386876544829678 12.994138083459578 7806.302957501711 18.74050774486366 0.2767553994245403
0.8628695112610791 12.998412106966951 6813.118751519278 19.6084462815879 0.28070411105754417
0.8873518681008921 13.003362310784063 5954.380802032871 20.514366863987437 0.28472155241426644
0.9121071459788342 13.008865918359543 5210.271817871913 21.46006399079486 0.28881073757946607
0.9371302324638006 13.014740813524536 4564.584097143827 22.447010962097785 0.29297149991327254
0.9624145840851203 13.02095280341391 4003.879068931257 23.477255253858754 0.29720781467381824
0.9879362908184354 13.027338761853958 3515.9695187054494 24.553209143498705 0.3015256971512642
1.0136798601250911 13.033799517637519 3091.5881618929607 25.67680186586337 0.30592668043616034
1.0396448632398725 13.04025418223734 2720.9374297957906 26.850021374218926 0.3104122207400327
1.0657968498999135 13.046580585170588 2397.687587227415 28.075952286890583 0.314990958344107
1.0921299636478132 13.052709273501147 2115.2783098952464 29.35663322906669 0.3196632246235202
1.1186287724075814 13.058545166046013 1868.2306071601822 30.694853414930442 0.32443393237597534
1.1452606761593451 13.064000273772479 1651.7737098965733 32.09397907530627 0.32931091068736257
1.172025900158342 13.069009393147057 1461.7851786498788 33.55598654420266 0.33429208480970407
1.198881666559012 13.073469285934534 1295.1232820239636 35.085402213094156 0.3393909119188722
1.2258289098675907 13.077339083136156 1148.80059755159 36.68422905467997 0.34460402806006674
1.252824651437478 13.080501680096338 1019.9238439462255 38.35753998383761 0.34994599678581007
1.2798690626308322 13.08294090360582 906.52853663042 40.10759691814108 0.35541352217139116
1.3069125651032956 13.08452189493098 806.6423192911736 41.939830878007264 0.36102092710508504
1.3339511370522186 13.085237254660724 718.4492254201585 43.85776649099016 0.3667703692611259
1.3609603014126355 13.085030845184264 640.4967802716666 45.86605451371724 0.3726693904564231
1.3878920653738065 13.083771004840253 571.6711955232093 47.97004811738819 0.3787280559719219
1.4147417424764537 13.081462161416622 510.7410568021261 50.17452660180435 0.384952129380458
1.4414736793711453 13.078025588428538 456.7800729824744 52.48466860195368 0.3913483652984644
1.4680686315955964 13.073424022422909 408.9210577719297 54.90691214338051 0.3979285650139475
1.4944785151827933 13.067555442026592 366.44944798655075 57.447448201866315 0.4047017914082048
1.520690115581495 13.06040850155721 328.7630004153072 60.11290596149506 0.41167781760252237
1.5466740423973766 13.051919055277857 295.2222021536598 62.9103922637798 0.4188671854400547
1.5723903094008194 13.042036657682658 265.4010184293392 65.84753483395326 0.42628126874275596
1.5978147782054863 13.03070417183014 238.8659035062646 68.93252966789238 0.43393234190227387
1.6229019742627242 13.017879154341799 215.1836450129079 72.17419301082121 0.4418336544321717
1.6476534050129252 13.003537929016332 194.0459801157817 75.58201841299194 0.44999951218467976
1.6720026823737688 12.987601227993153 175.19019503844396 79.16590145228282 0.4584439547619333
1.6959404084632042 12.970047152547961 158.33117266364297 82.93612341985589 0.4671806242675441
1.7194203860570854 12.950833265495488 143.24642784465377 86.90538195308176 0.47623089413635744
1.7423992059887203 12.929878089663886 129.7550578726241 91.08521540769605 0.48560894255556
1.7648847970530743 12.907239007878363 117.65282821334577 95.48979988325495 0.4953370276095788
1.7868112804930119 12.882797768086487 106.80247565995049 100.13272223562758 0.5054323430785159
1.808148941485755 12.856537334953858 97.0615449662299 105.03055392204143 0.5159207622841758
1.8288582038195755 12.828400347769998 88.30980873836138 110.19984036587316 0.5268248288709434
1.8489369777911637 12.79842830071673 80.4441717547114 115.65827314692481 0.5381681280165634
1.8683132033270011 12.766486003166063 73.3688836703988 121.42595860769141 0.5499796012098345
1.8869906776832026 12.732661136717459 66.99238796125515 127.52433580034469 0.5622891003862805
1.9049129215624374 12.696841442294254 61.241562623458584 133.97591637719296 0.5751261655531368
1.9220534683185138 12.659020586079695 56.06109986837818 140.80637870105033 0.588527058671837
1.9383663792574464 12.619128422232423 51.37841729892351 148.04339995943997 0.6025300271994969
1.953861378348267 12.577280186480458 47.152567655433636 155.71543531490823 0.617170668765699
1.968476952180181 12.533344139451165 43.32950873777579 163.8561888486436 0.6324967626820461
1.9821890366648238 12.487337412118233 39.87001456024075 172.49950845652094 0.648550099556533
1.994978709199253 12.439256644229797 36.73730301232703 181.68457189878276 0.66538344587959
2.006812934105303 12.38909338112649 33.895209226312595 191.4534565933334 0.68305144506833
2.017657939756015 12.336814206284732 31.320928633941886 201.85221090678888 0.7016133491586785
2.027492540909554 12.282424491099851 28.984721223955432 212.93072528730104 0.7211316091697423
2.036301205215829 12.225953977875713 26.86388774235951 224.74464950531282 0.7416770555055199
2.0440441896521264 12.167352801106361 24.936528882027154 237.35501643458426 0.7633263532782418
2.050701168379977 12.106641192977884 23.182005704898813 250.82878831376095 0.7861623675202184
2.0562725880197537 12.04388981787785 21.588737621667597 265.23919593317066 0.8102736332764333
2.060716680730679 11.979035655339809 20.137188454363756 280.6677088281378 0.8357589016804351
2.064020296447221 11.912135313109427 18.81766316655919 297.2043799444371 0.8627261278817866
2.066179226328199 11.843228035964392 17.61483229487661 314.94954277180483 0.891295578947324
2.067170055584788 11.772329036471803 16.52040598005478 334.0125355444122 0.9215928022975476
