M[M_sun], R[km], Lambda[1], P_c[MeV/fm^3], rho_c[fm^-3]
0.24162668629717493 15.618656898711224 2160425.4255784233 3.5677272577965504 0.1711233750220791
0.25364486187718716 15.277245593094609 1723228.4437162075 3.7848370840208787 0.1738883909081861
0.26604177313817556 14.981236545892315 1382949.3195100352 4.011438228728856 0.17666710515465306
0.278817409300278 14.723477005589158 1116410.1544413387 4.247786240961205 0.17945818723680546
0.2919733671731056 14.49836922036525 905873.5856271398 4.494506530088352 0.18226820748762723
0.3055100353213512 14.301165556306305 738644.3651896011 4.751755356678735 0.18509288500205312
0.31942823492955447 14.128047799154713 605044.3992424546 5.020213980342162 0.18793881597699275
0.33372478446458503 13.97598310800332 497663.33147206984 5.300107827920509 0.1908026501971723
0.3484093265136776 13.841957211334446 410964.96280826273 5.5921640007877365 0.19369065350934542
0.3634735785920187 13.72390988953554 340626.71539555426 5.89655171139109 0.19659792450831706
0.3789281075239511 13.619933419997253 283271.6309455009 6.214134285360783 0.1995321278916749
0.3947614166576934 13.528382859047221 233256.60895126668 6.545167199871802 0.20248940734864454
0.41098825549500906 13.447821548208582 197837.11591134436 6.890356790839609 0.20547354037466617
0.4275974327600661 13.377002684159343 166059.92414372697 7.250406525938679 0.2084875697854271
0.44459389812949746 13.314897999464874 139781.07712710457 7.625572710603876 0.21152699923081414
0.4619775022099296 13.260514570972832 117962.29306343703 8.016809737205456 0.21459807340620635
0.4797434219290735 13.21311678859168 99794.66752848533 8.424820315881965 0.21770240053150572
0.49790255342982653 13.171965615519854 84628.48472056958 8.850041826774746 0.22083739751953102
0.5164430293866917 13.136354279028161 71927.67017093007 9.293354612571498 0.22400657095768983
0.5353629769153251 13.105807352832526 61263.41098426427 9.755640452687228 0.22721279331306377
0.5546710674254359 13.07979615504124 52293.35698439759 10.237709060145894 0.2304574144831067
0.5743561125674752 13.057809412997583 44719.88198070957 10.74002669717857 0.23373706771327993
0.5944148531883353 13.039516023865543 38320.382635163354 11.26384833637454 0.23705806901816812
0.6148540990027545 13.02448366502046 32893.03690618577 11.810107016348118 0.24042197175168784
0.6356599918459227 13.012416014561785 28284.765499109784 12.379782050770226 0.24383040941776832
0.6568325081997284 13.003018434965387 24364.676842141114 12.973555467236112 0.2472812526350047
0.6783658878960367 12.995967862243713 21022.213365641932 13.59276821246298 0.25077944388468404
0.7002562765674059 12.991057521632694 18167.603458972553 14.238611681141645 0.2543275447541369
0.7224926419565663 12.98800382566495 15724.654610628182 14.91227596365462 0.25792754063338746
0.7450821748334217 12.986654134935458 13630.055940024855 15.614780449329874 0.2615792232696824
0.7680053447388021 12.986756635890744 11833.074110404978 16.347412225362774 0.26528469476317357
0.7912532564769673 12.988140734795993 10286.881437044545 17.111777929532302 0.2690485460339028
0.81483120417869 12.99066218362552 8953.642783522839 17.90933313755013 0.2728732107043074
0.8387141032405245 12.994138932903084 7805.121661689031 18.741426999966787 0.27675962292610384
0.8628965934370358 12.998415201851989 6812.025433748428 19.60943682682601 0.28070855500932335
0.8873800940586478 13.003370350570961 5953.279563213023 20.51543346757359 0.2847262264365605
0.9121379423426603 13.008863449491718 5209.449298900984 21.46121174748923 0.28881565194125597
0.9371610607983906 13.014755517862906 4563.772718661726 22.448235090416013 0.29297658424539347
0.962446349577085 13.020966878396946 4003.1752394845876 23.478571117626558 0.29721315878756055
0.9879686191408398 13.027347223839223 3515.324035426343 24.55462293734476 0.3015313134830552
1.0137137383115304 13.03380672391176 3090.7780434726888 25.678308116721006 0.30593249334830747
1.0396802081291747 13.040262145538767 2720.4385480304027 26.851638498671566 0.3104183299450199
1.0658325910803728 13.046588166994006 2397.3293954589767 28.077687855853178 0.31499737896838287
1.0921687960850641 13.052721742860873 2114.923734091406 29.358481090793227 0.31966987579114287
1.1186677255461306 13.058551319053976 1867.7050174601522 30.69683563396251 0.32444092478205555
1.1453004621501748 13.064006681161308 1651.4284633283507 32.09608918143805 0.32931816080419424
1.1720646308972824 13.069022971597173 1461.451915474443 33.558249292119434 0.33429971050348267
1.1989232195913084 13.073479274807497 1294.911768452263 35.08782828420345 0.3393989342783213
1.225870903575405 13.077341367139931 1148.5834211928686 36.68681140793403 0.34461235833192466
1.2528689513785218 13.080498521659207 1019.7564499590816 38.36028910055026 0.3499546534907899
1.2799139245094253 13.082938361221002 906.3593300711697 40.110544049445835 0.3554226396110751
1.3069589533491348 13.08452316897569 806.4779214545875 41.94296897362343 0.3610304140435521
1.3339979725750712 13.08523663719161 718.3218619136837 43.861130739426706 0.36678036954734045
1.3610070038939415 13.085032995270993 640.3628645329553 45.86963786486615 0.3726798103548027
1.3879402315056093 13.083770675501468 571.5567133082892 47.97386587905693 0.3787389225540314
1.4147904452952287 13.081457581077613 510.6026822187662 50.17862064352072 0.38496360133651997
1.4415223169801712 13.078016546455501 456.69454288627475 52.48903242366031 0.3913603467178881
1.4681181743226648 13.07341436097819 408.8465377722569 54.91156507057346 0.3979410898571402
1.4945283375359484 13.06754363866372 366.37665426606105 57.452411125578855 0.4047148962611364
1.5207409102166092 13.060394502677351 328.7070387192265 60.11820147847883 0.4116915418923663
1.546727126847651 13.051898017546652 295.17099630387133 62.916044830675965 0.4188815716722044
1.5724417028256683 13.042015611743931 265.34974390899015 65.8535709370096 0.4262963627615059
1.5978555484501382 13.030673923581896 238.80887809746585 68.93897800997537 0.4339481931777309
1.6229529424657239 13.017854530825218 215.13976967884645 72.18108471768551 0.44185031637626676
1.6477062965278015 13.003504642904165 194.01144637113597 75.5893872610117 0.4500170424994895
1.6720552535500572 12.987564257399209 175.15291226969362 79.17374563528195 0.45846225515112693
1.6959917532553972 12.970005817836466 158.294139528364 82.9445194835383 0.46719991839743297
1.719471413526755 12.950788715786171 143.21515719630412 86.9143731257413 0.4762512547186902
1.7424524605599128 12.929837755392658 129.7230159195073 91.09480543155662 0.48563027682868887
1.7649348374544622 12.907182961257249 117.62544881480387 95.50008115943648 0.49535958702521854
1.7868610819977895 12.882744069813405 106.77712578512329 100.1437037168553 0.5054560406385873
1.8081980589005264 12.856473739713346 97.04082179947284 105.04229256255317 0.5159456893119077
1.8289121855784929 12.828341093012716 88.29263163827412 110.21239828952335 0.5268510841487908
1.848984706921238 12.798351866641575 80.42585092777716 115.67176949038338 0.5381960068049187
1.8683581506918494 12.766406154650218 73.35272433210666 121.44041792993166 0.550009035091165
1.8870344125589975 12.73257778890285 66.9756546820615 127.53978431232018 0.562320019359883
1.9049562970748692 12.696750127080037 61.22961878889756 133.99249589280925 0.5751588986648573
1.9220972953340458 12.658920433147824 56.04858844336 140.8241864579633 0.5885617549542511
1.938406929826735 12.619023153195185 51.36745325021625 148.06254261962542 0.6025668490587703
1.9539007387006246 12.577166397050252 47.142855967215745 155.7359669639056 0.6172095782957961
1.9685140287014544 12.533227678757667 43.32271437384309 163.8782339307968 0.6325379430787157
1.9822257940376196 12.487215122801642 39.85704467786324 172.52326999577747 0.6485939726407371
1.9950092788197378 12.43912410100201 36.728223452892614 181.71013604684262 0.665430011329748
2.006844008513327 12.38895328251262 33.888208784556404 191.480989393341 0.6831009411131099
2.0176870094253956 12.336666246786061 31.314180090453625 201.8818955258006 0.701666036429278
2.0275201625743904 12.282272706745568 28.97957842233436 212.96268912392364 0.721187527989578
2.036325169882492 12.225789902807943 26.85787810311769 224.77918847914762 0.7417367569440496
2.0440648981756877 12.167184618030305 24.931430498716768 237.39229884156845 0.7633899232069701
2.050719340699151 12.106462784493008 23.17808721703589 250.86908356658023 0.7862301690826348
2.056287606474631 12.043701527196433 21.584687458354782 265.2828639557205 0.8103462644139567
2.060728501232875 11.978839793906745 20.134064849986192 280.71495960553943 0.8358364039528959
2.0640286943180755 11.911930797018158 18.813604391584317 297.255644006483 0.8628091848478527
2.0661847556570776 11.843015831772917 17.611996359292974 315.0052318650719 0.8913847262324429
2.0671715664492893 11.772111073882334 16.517134584402857 334.0730170443848 0.9216883279955262
