M[M_sun], R[km], Lambda[1], P_c[MeV/fm^3], rho_c[fm^-3]
0.24162668629717493 15.618656898711224 2160425.4255784233 3.5677272577965504 0.1711233750220791
0.2536465302497393 15.277201331465145 1723141.594330688 3.784867071031448 0.17388876468180664
0.2660455170609569 14.981139436199244 1382847.1825954218 4.011501268247076 0.17666786695002737
0.27882250801521835 14.723395941939424 1116256.4420759773 4.247884466573861 0.17945932650588942
0.29198044135219575 14.498238607208993 905717.9886232838 4.494642520201499 0.18226972176909878
0.30551980639380455 14.301015664934916 738515.6212780246 4.751933729817019 0.18509481177237685
0.3194386025601878 14.127953708935696 604942.8098676511 5.020436051380783 0.18794112004973
0.3337403429309122 13.975749695789133 497521.71868085925 5.300379444588275 0.19080538492632315
0.3484254450673066 13.841821278223048 410878.81251519173 5.592485842202863 0.19369376741357228
0.36349139514697076 13.723791801357812 340516.7981833266 5.896931009595611 0.196601486957322
0.37894835472130556 13.619823357234152 283199.9493830481 6.2145756317768 0.1995361524395733
0.39478537225940596 13.528262901682316 236321.13347717645 6.545670137222788 0.2024938174297776
0.4110150440946639 13.447704069382592 197783.28171208754 6.890931030168465 0.2054784308377609
0.42762768080195845 13.376873408739021 165999.63135811305 7.251057457482522 0.20849295477526986
0.444626761751035 13.314783085023532 139735.08676394206 7.626298536134573 0.21153277726874276
0.4620115450912035 13.260402805440508 117918.5188391528 8.017623119310855 0.21460436557438278
0.47978318221730043 13.213016921484124 99756.62922754508 8.425727599163105 0.21770922203342113
0.49794466433095275 13.17185225016477 84592.84006806478 8.851039666660295 0.2208446223066466
0.5164885698075273 13.136286022120846 71897.62976755042 9.29445916045094 0.2240143470436216
0.5354115266572242 13.105748627046182 61242.692641246445 9.756859200045506 0.2272211375025991
0.5547250220362889 13.079722000065578 52269.791599618446 10.239036912558904 0.23046617663138041
0.5744127050489126 13.057773257091782 44699.598812366865 10.741483911284687 0.23374642347922964
0.594474970033017 13.039469938686167 38302.22537389874 11.265443789977967 0.23706803744115412
0.6149183718124215 13.024434034868936 32877.303163782104 11.811850137664646 0.240432572837626
0.6357277877294669 13.012394101909363 28271.337987844916 12.381682856347533 0.24384166422863698
0.6569048804737002 13.002972084512868 24352.302969941557 12.975605228074206 0.24729296822741126
0.6784428398801193 12.99594224356126 21013.953007227617 13.594996042211159 0.2507918478438506
0.7003369972538236 12.9910328530941 18158.01304243566 14.241029528995371 0.25434066169674646
0.722578142998812 12.98799655691059 15717.362004061652 14.914896546731969 0.25794139664395366
0.7451714987631052 12.986641656360785 13622.595316363242 15.617591727606412 0.2615935926594375
0.7680985737961543 12.986769441477678 11826.000422742878 16.350452278646 0.2652998486663188
0.791351844160068 12.988146785683211 10280.442078305425 17.115062020364785 0.2690645154555347
0.8149320179162574 12.990684887494268 8948.112910638081 17.91287754057628 0.27289002864322953
0.8388202142996928 12.994156521816286 7800.239379967084 18.7452159923668 0.2767770313857046
0.863008775438953 12.998438720903522 6807.808018156438 19.61351968748742 0.28072687223018566
0.887495751070237 13.003400523375483 5949.62644750754 20.519829853985303 0.2847454920834871
0.9043215702008596 13.00300077507833 5416.871534007413 21.674298503197885 0.9132049160174958
