M[M_sun], R[km], Lambda[1], P_c[MeV/fm^3], rho_c[fm^-3]
0.24162668629717493 15.618656898711224 2160425.4255784233 3.5677272577965504 0.1711233750220791
0.2536387201854638 15.277449826194488 1723352.2636110063 3.784739736523059 0.1738871775185878
0.266030203268304 14.981483997604665 1383274.4726292414 4.011233587026378 0.17666463218044987
0.2788003029845674 14.723833638020674 1116655.624347047 4.247467383936831 0.17945448897583
0.29195027054071165 14.498699033198596 906155.6242253752 4.494065092998529 0.18226329198317986
0.3054791523643405 14.3015713092739 738931.0951906195 4.751176353371949 0.1850866306612954
0.31939058538903403 14.128497103741594 605308.3027867876 5.0194931481744085 0.18793133706503665
0.33368282178814357 13.976291385984114 497926.73622345336 5.29922619254739 0.19079377359186261
0.3483575820606269 13.842382338067384 404980.7407906137 5.591119363495652 0.19368054635617468
0.36341283001867547 13.724352618244348 340861.9144241754 5.895320606779776 0.1965863617132781
0.3788580976376331 13.620388114493373 283492.7801777119 6.212701819039528 0.19951906552362678
0.39468315109022306 13.52881862354505 236573.65011271284 6.543534861606289 0.20247509394723695
0.41090163197155327 13.448202144854843 198017.76524556617 6.888493073553329 0.2054576681761776
0.42750178934312033 13.377369870568682 166228.39163034066 7.24829394527148 0.2084700929469754
0.44448784783447265 13.315239471180053 139930.00987743936 7.623217107808658 0.21150824711791658
0.4618616385875046 13.260842812670818 118085.65489676857 8.014170031763433 0.21457765315050212
0.4796176822018337 13.213413128250709 99915.53741186752 8.421875929253805 0.21768026286023895
0.4977652036964202 13.172228023267317 84731.19162611867 8.846803617255011 0.22081395149902766
0.5162942595296027 13.136618825559864 72020.79005931644 9.289770184870731 0.2239813363632134
0.5352030042544929 13.10603565136367 61347.4867795301 9.751685510069244 0.22718571568242793
0.5545004186129096 13.079983638295882 52364.49790013489 10.23335793990722 0.2304284384022132
0.5741696206132466 13.057992635617138 44783.98326528669 10.735298086122556 0.23370670856555995
0.5942216652888024 13.039668426467847 38375.41624104538 11.258671246205855 0.237025722465108
0.6146446538827629 13.024621438795446 32945.246749546335 11.804450871831952 0.24038757295596078
0.6354364689720748 13.012538998082661 28332.63308437104 12.373614369524134 0.24379389011944994
0.6565971339341808 13.003093544002692 24406.164137175012 12.966904571664108 0.2472432388432432
0.6781173658192474 12.996037547199704 21057.257977103207 13.585539677010583 0.25073919733592565
0.6999945859267499 12.991112953733703 18198.72654340028 14.230766758650425 0.25428498566675045
0.7222157776763224 12.988033189513459 15752.430058203152 14.903773417849642 0.25788258446865764
0.7447925879245246 12.98665111722515 13558.356349175621 15.605659338438208 0.26153260220107616
0.7677002066718822 12.986742598633645 11853.608636913372 16.337549056852897 0.26523552934191996
0.7909338391583827 12.988119432553512 10305.51495008945 17.10112321667769 0.2689967357732793
0.8144963568137842 12.990623645430116 8971.636312445398 17.89783411331751 0.27281864865654326
0.8383637195076301 12.994092229993973 7820.099593789065 18.729134661353218 0.2767031459904013
0.8625336829044848 12.998345179289258 6826.144850354244 19.596191380532044 0.2806491310452682
0.8869957517772201 13.003276213446243 5965.80204712414 20.50117118278869 0.28466372689323083
0.9117434950592168 13.008774431802147 5220.259718452456 21.445864530076943 0.288749939600651
0.9367511087146206 13.014657565994856 4573.85585064401 22.431866861753075 0.29290859994218377
0.9620157716570471 13.020850609640592 4011.7774101175255 23.460976519577248 0.29714170189701783
0.9875284648000772 13.02723863491458 3523.1749825491565 24.53571917966044 0.30145621782781046
1.0132602341802563 13.033696905244316 3097.834075582834 25.658168360551883 0.30585477015055273
1.0392097938012634 13.040149861524053 2726.787799966131 26.830016596974083 0.3103366462938528
1.0653509900863773 13.046482468519015 2402.8640712688702 28.054482629901017 0.31491153274718026
1.091666894561694 13.052600901442402 2119.925530641264 29.33377476770614 0.31958094819778904
1.1181527052191622 13.058447009767761 1872.3405310372416 30.670333328718307 0.32434743618300005
1.1447716205439356 13.063901592739928 1655.4793631288148 32.06780660504512 0.3292207700026137
1.1715229922020507 13.068922983176273 1465.0715619387238 33.527997157865585 0.3341977576919216
1.1983714814423458 13.073404757300748 1298.136919519379 35.05539308917803 0.3392916798815735
1.2253024032505713 13.07726680139676 1151.4985875472967 36.65228725423419 0.34450098875631313
1.2522870255272047 13.080442941679332 1022.3531931044389 38.32332864638444 0.3498377051153808
1.279317671133341 13.082895105821953 908.6813628400804 40.07114424320557 0.3553007497731926
1.3063519230533376 13.08450338048471 808.5417242260816 41.901016756693096 0.3609035861360387
1.333378082611051 13.085229169656388 720.1401942919273 43.81615591343055 0.3666466811052127
1.3603774958438752 13.08505013804006 642.1182268507816 45.821734640961274 0.37254051428684837
1.3873003206406096 13.083807646327795 573.1196544477017 47.92282971597509 0.3785936571590686
1.414140446637365 13.081527529910929 511.99911159406463 50.12389210892715 0.3848102459513796
1.4408724190558546 13.078131572769486 457.9184533918639 52.430698371514296 0.39120018326657574
1.4674541102625114 13.073544705483926 409.9643062519962 54.84936729333347 0.3977736646268365
1.4938562370041348 13.067707163859746 367.3966029470953 57.3860705049379 0.4045397204721761
1.5200624733230048 13.060602607460444 329.5979819872263 60.0474161136039 0.4115080888192802
1.5460428240104374 13.052144200824316 295.9988742919724 62.84048797972303 0.4186892734794932
1.571755192734195 13.04229732640192 266.10778673309403 65.77288875112721 0.42609460702355273
1.5971712835848246 13.031000525860865 239.48820969435243 68.85278703647866 0.4337363190486564
1.6222646166157693 13.018223555396313 215.7560295122902 72.0889691462154 0.4416276103714496
1.647013715175065 13.003930913444169 194.57222491795912 75.49089588325124 0.4497827338458771
1.671368453427861 12.988046629712208 175.6675471454801 79.06876492648095 0.4582170825886086
1.6953046086838157 12.97054631766572 158.7699394639345 82.83230218915327 0.466942043381766
1.7187718606399904 12.951355192242094 143.64589647510448 86.7942041982274 0.47597913122210844
1.7417846220641697 12.930517012192674 130.11171132432295 90.96663484256754 0.485345144446086
1.7642650544431384 12.907911947620468 117.97600826439924 95.36267472493749 0.4950580866265618
1.7861946258565986 12.883523785900659 107.09427456091618 99.99694180946642 0.5051393348095272
1.807539737013696 12.857322017518937 97.32078296838091 104.88541445114038 0.5156125583134932
1.828269914195727 12.829273610708569 88.56037690923769 110.04411612616869 0.5264985033485932
1.8483500673989244 12.79934665633875 80.6688867700614 115.4914083630683 0.537823442953726
1.8677486282392035 12.767507947976267 73.56681849222875 121.2471916934944 0.5496156972832948
1.886432009230602 12.733729127999188 67.17468355286367 127.33270628554386 0.5619045683421533
1.9043705298208273 12.697977491939197 61.4117016810147 133.77094527927426 0.5747214889628842
1.921510365180548 12.660176074023314 56.213582807652465 140.58622819761726 0.588098121772144
1.937866960703339 12.62045269850853 51.52264553827057 147.80675236376567 0.6020748237752653
1.9533770044393295 12.578662334307815 47.28271970674049 155.46162234666775 0.616689667783847
1.9680134975473684 12.534808064255596 43.44799933388847 163.5831047717345 0.6319857767747992
1.9817545651935689 12.488892913047188 39.97770250345312 172.20578233038626 0.6480077663799755
1.9945650797206962 12.440896426608429 36.83587173797253 181.36857100106954 0.6648078458628047
2.0064239756675217 12.390810053526682 33.989149468534436 191.11312996140947 0.6824396358005164
2.017309889021473 12.338656504965114 31.40729090154584 201.48529615999308 0.7009621116762712
2.0271656520968886 12.284331052548643 29.061846718446766 212.53554802975438 0.7204401164191325
2.0359979505963754 12.227928518301693 26.93463872126978 224.3177564935745 0.740939160771849
2.0437876679666354 12.169466525192169 25.00034760695623 236.8942283083504 0.7625406671942948
2.0504881328462674 12.108874738338178 23.242688417324853 250.32994784851732 0.7853217016192253
2.0560840037697368 12.046178150765702 21.643779244611462 264.69924781021075 0.8093751282295033
2.0605750823963653 11.981445601582575 20.189796900121745 280.08312949752417 0.8347990118890757
2.0639243225873543 11.914662759182079 18.863792919867283 296.5708664036042 0.8616997224319747
2.066118606881346 11.845843876717455 17.658029637780437 314.261369131975 0.8901939483032941
2.067152722098948 11.77505414393177 16.55989872051777 333.2651655493788 0.9204123910898864
