M[M_sun], R[km], Lambda[1], P_c[MeV/fm^3], rho_c[fm^-3]
0.24162668629717493 15.618656898711224 2160425.4255784233 3.5677272577965504 0.1711233750220791
0.25364451532354937 15.277263286855886 1723224.3649034118 3.7848301110253764 0.17388830399316108
0.2660404328285848 14.981265241336002 1383029.4902545752 4.011423570007517 0.17666692801265665
0.27881690394295383 14.723462397294158 1116351.864426897 4.247763400490823 0.17945792232176885
0.2919714683641885 14.49838764859128 905814.7385485665 4.4944749084185025 0.18226785537299445
0.30550784315626145 14.301186104481122 738596.1168687945 4.751713879992953 0.18509243697468725
0.3194248779394738 14.12810042089149 605052.6387777561 5.0201623430094156 0.18793828021973533
0.3337230727901671 13.975927712159393 497672.76363634167 5.300044670338514 0.190802014305119
0.34840556354587754 13.841989149938406 410982.95516073843 5.5920891651616715 0.19368992945407665
0.3634695514605595 13.723939574895692 340640.59183239634 5.896463516278697 0.1965970961611574
0.3789232826581571 13.61996864282698 283283.20494931797 6.214031663326434 0.19953119210228662
0.394756317179454 13.528408850667624 236396.8740265117 6.545050257358002 0.20248838192078011
0.410982008856334 13.44782993533135 197844.735370006 6.890223270076365 0.20547240325581656
0.4275909239984253 13.377017717599152 166061.34020172397 7.250255173806288 0.20848631768802406
0.4445867440681477 13.314894026597758 139792.92399443654 7.625403945326667 0.21152565575069182
0.4619691874467494 13.260556037099322 117970.2324122144 8.01662061485035 0.21459661039189074
0.47973519884497173 13.2131194220435 99797.34239059698 8.424609361490361 0.21770081444938968
0.4978929271933716 13.17195819476487 84634.8190186079 8.849809818088165 0.2208357176775105
0.5164329862394087 13.136368548082462 71931.84961840238 9.293097794621206 0.22400476294330904
0.5353518296228893 13.105841036961932 61270.99443138569 9.755357083928402 0.22721085322054502
0.554659029884925 13.079809745001691 52299.171733312076 10.237397403309146 0.23045533965267023
0.5743431297939935 13.057821528216532 44322.42940921004 10.739687886630119 0.2337348924446085
0.5944029152784455 13.03949126678906 38323.45778891923 11.263477386510143 0.23705575131670253
0.6148387561486883 13.024488443326604 32896.76220710308 11.809701735449568 0.2404195069676284
0.6356441972613704 13.012423427526286 28288.923195664764 12.379340110369847 0.24382779265586438
0.6568158647085386 13.003028394613057 24368.065270178868 12.973078896815498 0.24727852875390738
0.6783482985340789 12.99597169822934 21025.017638337813 13.592250243916702 0.2507765599745905
0.7002374427762604 12.991054784314741 18169.709225855 14.238049536787857 0.2543244950935821
0.7224732001713569 12.988003248676991 15726.338563192283 14.91166668732262 0.2579243191597517
0.7450620170283524 12.986639277758227 13631.976718928177 15.614126840159765 0.2615758824531609
0.7679834380623475 12.98675374145871 11834.276786563329 16.346705431147033 0.26528117157127823
0.7912294272479536 12.98813544755871 10286.983412441949 17.111014402469703 0.2690448332603494
0.8148039997184318 12.990676728174876 8954.835773518245 17.908509094601488 0.27286930067943804
0.8386895459635868 12.994126242978563 7806.446270854034 18.74054609629799 0.2767555756295375
0.8628705042523693 12.998404550485567 6812.892720163063 19.608487607209746 0.2807042964595467
0.8873531377978702 13.003358095449201 5954.304750617161 20.514411362719976 0.2847217474146121
0.9121085583898731 13.008869126125342 5210.1727797333315 21.460111875184026 0.28881094260655377
0.9371314755427471 13.014752684091269 4564.429983130099 22.44706203266353 0.2929717120313275
0.9624158789829144 13.02095953461764 4003.7645612712886 23.477310151560545 0.29720803762969694
0.9879377079002513 13.027342709700735 3515.941250277309 24.553268126766408 0.30152593146378615
1.0136812416389411 13.033795141668323 3091.4634170844306 25.676864706366022 0.3059269229497624
1.039645846669018 13.040258872892734 2720.912043006867 26.850088840269407 0.3104124756146228
1.065798476937999 13.046581199214842 2397.6500824302616 28.07602469433391 0.31499122621072506
1.0921310179633352 13.052715403197334 2115.242885289886 29.356710321259516 0.31966350210807953
1.1186304255756523 13.05854531413017 1868.2529411463672 30.69493611236879 0.32443422409654776
1.1452626486425004 13.064000755518531 1651.7782993572887 32.094067108061985 0.32931121315924033
1.17202625812366 13.069018711804665 1461.7658014151527 33.556080944996474 0.3342924029501123
1.198883356559402 13.073477326708858 1295.1302707992745 35.08550342753213 0.3393912466075793
1.2258306152274066 13.077336724421217 1148.8167347925896 36.68433678902111 0.34460437559437435
1.252827144622604 13.080503258981985 1019.959124465931 38.35765467534127 0.34994635793836004
1.2798708823696965 13.08293770654757 906.5219271154314 40.10771987053899 0.3554139025450346
1.3069150772373883 13.084519003884472 806.6336909020753 41.93996179717512 0.36102132289356365
1.3339539456189433 13.08523395824432 718.4333385462008 43.857906844913465 0.36677078646557165
1.3609630247153595 13.085030669383189 640.4805532759755 45.86620400827996 0.3726698251663042
1.3878942303657413 13.083770209275118 571.6744716046702 47.97020739119623 0.3787285093165943
1.4147436871785386 13.081460789569647 510.7239797518532 50.174697401550766 0.38495260798016995
1.4414753626408061 13.078024155819895 456.7813175901683 52.4848506564712 0.39134886515195955
1.4680714386575224 13.073421630350571 408.9218404108223 54.90710625887921 0.39792908753795914
1.4944801237939098 13.067556395820509 366.44036784506267 57.44765524986521 0.40470233812899525
1.5206923468375162 13.060406340935797 328.7555205870881 60.11312688466932 0.41167839016487767
1.5466762888106071 13.051919747563984 295.22251938037016 62.91062808239269 0.4188677856171729
1.572392410408683 13.042034557393798 265.3998056260056 65.84778665293506 0.42628189844711945
1.597806480271387 13.030698527142325 238.85981298910627 68.93279868464202 0.4339330031976187
1.622903848416493 13.0178776469312 215.1795548346578 72.174480523811 0.44183434954667045
1.6476555024068695 13.003537740858077 194.04478823065142 75.5823258312673 0.4500002435254715
1.6720052056819676 12.987598490835811 175.1900015617175 79.16622870050371 0.45844471822828864
1.6959426841692458 12.970044370463404 158.33023090786978 82.93647369125686 0.4671814291902034
1.7194225022503218 12.950830850764627 143.24486161571593 86.90575705100193 0.47623174354859493
1.7424012047012913 12.929878899106617 129.75463196509347 91.0856154882587 0.4856098325875475
1.7648862032950934 12.907236910773424 117.64866157370106 95.49022880110475 0.495337968751114
1.7868123017374884 12.88279517372184 106.80170071387684 100.13318036425181 0.5054333317002117
1.8081515756818372 12.856534433213664 97.06154353726748 105.03104363736863 0.5159218021956996
1.8288600902156713 12.828396344123894 88.30762802309624 110.20036425948403 0.5268259241931239
1.8489389447917879 12.798425037353446 80.44131092049648 115.65883618873015 0.5381692910666425
1.868314977224608 12.766481610700165 73.36763813607621 121.42656182221 0.5499808291335408
1.8869927221646647 12.732658358963677 66.99268076661694 127.52498028102048 0.5622903902633273
1.9049148405688123 12.696838046621925 61.24092949391567 133.97660803991158 0.5751275311101027
1.9220552345131845 12.659016595117244 56.06166863519607 140.80712160216115 0.5885285061257118
1.9383678892125733 12.619123070029021 51.379108069249206 148.04419854842385 0.6025315633251397
1.9538642164038769 12.577274791068918 47.15261780973843 155.71629184801031 0.6171722919816677
1.9684776945977438 12.533340389682792 43.329072732547864 163.85710851713864 0.6324984806304379
1.9821915358075584 12.487331828940917 39.87074609444502 172.50049972960988 0.6485519298339082
1.9949800133077973 12.439253271829099 36.73641943920306 181.68563837034742 0.6653853884723324
2.0068142756899587 12.389087559326612 33.89558534745112 191.45460518990666 0.6830535099141651
2.0176595842340257 12.336807360727395 31.320075787520928 201.8534492692107 0.7016155471298228
2.0274933622414686 12.28241840186161 28.984732993236445 212.93205873006295 0.7211339419480769
2.036302361443904 12.22594712828522 26.863542938484596 224.74609037262906 0.7416795460789781
2.0440449549854804 12.167346424805162 24.936318425354386 237.35657174694134 0.7633290052286841
2.050702357783039 12.10663397235846 23.181542538202518 250.8304693096319 0.7861651959959939
2.0562735352421573 12.043881198153956 21.588478491348276 265.24101854206765 0.8102766662035292
2.0607176763897184 11.979026985206104 20.13703904835046 280.6696799785666 0.8357621348259195
2.064021101194653 11.912127339132718 18.817584401154274 297.2065185110958 0.8627295927429643
2.066180271477204 11.843218501684515 17.61517536755219 314.951865930338 0.8912992978672055
2.067169915666778 11.772319926983604 16.520541761565273 334.0150586196083 0.921596787293278
