M[M_sun], R[km], Lambda[1], P_c[MeV/fm^3], rho_c[fm^-3]
0.24162668629717493 15.618656898711224 2160425.4255784233 3.5677272577965504 0.1711233750220791
0.2536403524187767 15.277381029201184 1723282.8903308352 3.7847698157770004 0.17388755244197746
0.26603392709805607 14.981400927704982 1383158.6382809775 4.011296818154651 0.17666539629131858
0.2788054231252113 14.723707680465552 1116492.0278866282 4.24756590463723 0.1794556316674871
0.2919575790626004 14.4985998126045 906078.0203652355 4.494201486967416 0.1822648107616788
0.3054888823030063 14.301439791992625 738795.2527019001 4.75135525000374 0.1850885630863481
0.31940372258663374 14.128326350219353 605255.790342817 5.0197158636198145 0.187933647823743
0.33369645699816963 13.976168742098258 497827.81552454585 5.299498588147489 0.19079651616356957
0.3483721920924284 13.842275552114288 411147.84047120454 5.591442117660983 0.19368366909151086
0.3634310270931654 13.724234662422187 340783.8732436042 5.895700968067415 0.1965899341469846
0.3788792781302016 13.62028918511924 283419.708190104 6.213144387874653 0.19952310121851555
0.39470864413113976 13.528677396748998 236509.79218388998 6.544039176803881 0.20247951611022338
0.41092833848178806 13.448099789912193 197965.27673752 6.889068867483279 0.2054625718789076
0.4275302556456571 13.377272484816237 166140.26607806206 7.248946618100812 0.20847549234202675
0.44452149930282886 13.315111689886917 139882.9469336765 7.623944854066287 0.21151404044606661
0.4618978129936023 13.26073611370545 118053.92260126393 8.014985540560689 0.21458396177035943
0.4796566743375948 13.213315628892827 99869.44928786029 8.422785556171876 0.21768710198302774
0.49780730362747666 13.172142985077098 84698.67133240747 8.847804007086008 0.22082119474883777
0.5163405496965043 13.136540990067891 71988.96002005199 9.290877521064314 0.22398913207905058
0.5352519887079935 13.105972421549858 61318.19598727673 9.752907296277778 0.22719408067754068
0.5545538518438298 13.079931838687811 52341.763863346874 10.23470213554195 0.23043739022076806
0.5742301480893697 13.05795858115996 44765.49136151877 10.736758850022627 0.23371608712228642
0.5942795790073843 13.039612837786219 38360.4728221645 11.260270537521661 0.2370357148661904
0.6147098592792913 13.024570530421556 32928.9775879045 11.806198132771577 0.24039819921771421
0.6355046333866711 13.012485756669399 28318.03281193908 12.375519631130992 0.24380517131480023
0.6566694196489449 13.003073154637807 24197.882347210187 12.968959085048253 0.24725498159925413
0.6781944786533978 12.996015075638358 21046.966650394585 13.587772604428467 0.2507516296775514
0.7000750005034407 12.991089275156801 18189.300068474797 14.233190065384893 0.25429813222405445
0.7223025958387894 12.988007151273996 15744.164072008636 14.906399837670735 0.2578964713402882
0.7448823100405553 12.986657452020832 13647.490820309185 15.608476807303646 0.26154700323301533
0.7677939734151068 12.986761927348727 11847.033178773423 16.34059571184487 0.26525071615292745
0.7910307200372245 12.98812691058981 10300.221848716605 17.104414338770308 0.2690127393855483
0.8145980971920699 12.990644979616789 8965.686594318091 17.901385996196975 0.27283550208683455
0.8384718003222172 12.994107005147933 7814.990134739144 18.732931554771064 0.2767205907510909
0.86264606436189 12.99836646229242 6821.883955534843 19.60028262910908 0.2806674858974179
0.887112490566132 13.00330953115794 5962.019312384319 20.50557646495202 0.28468303152272034
0.9118655207353871 13.008795538982389 5216.872993766781 21.45060487125287 0.2887702363688252
0.9368770793508595 13.01468884189372 4570.424221722209 22.436922521630095 0.2929295982750567
0.9621473823711575 13.020881456076879 4009.225440815593 23.466410909486243 0.29716377256915283
0.9876647050549019 13.027273697301844 3520.6860347297256 24.541557861775786 0.3014794121401022
1.013403970833578 13.033739288596689 3095.8575300894845 25.664388742425317 0.30587877580218026
1.0393551168076662 13.040186447300009 2724.799941778922 26.83669468137349 0.3103618748941942
1.0654999907268115 13.046519356863422 2401.293491597271 28.061649655355772 0.3149380466907989
1.091821327180521 13.052640232375708 2118.485143773842 29.341405343607747 0.3196084135858373
1.1183117652444485 13.05847776861094 1871.0038496716866 30.678518502301266 0.3243763099132
1.144936106956368 13.06394357164099 1654.1194759043046 32.07658475221267 0.3292511282503024
1.1716917790697159 13.068954276438152 1464.0652996342712 33.53734026163639 0.33422924491494355
1.1985392600599305 13.073414414995764 1297.1617304596675 35.065410293751015 0.33932480406142607
1.2254781439526055 13.077292326072174 1150.5509419090577 36.66294950490522 0.34453538352649693
1.2524666922466687 13.08046275439312 1021.5747564373155 38.33475853797592 0.3498739125062613
1.2795017292068007 13.082912981949198 907.947627389955 40.08331199598759 0.3553383927353166
1.3065389753913939 13.084504597152756 807.9396941350913 41.913972634126566 0.3609427537163269
1.3335702726061118 13.085233145128075 719.5801048653027 43.830045072254116 0.36668796686818034
1.3605719976721933 13.085040715310631 641.5324327033832 45.83652799557447 0.37258353135253824
1.3874981390126444 13.08379880465553 572.6194430942126 47.93859040975969 0.37863851718124225
1.4143489239377327 13.081519634302412 511.5608753488321 50.14079283723495 0.3848576036545968
1.4410750573142586 13.078103975259062 457.5410990663063 52.44871232169306 0.39124964282452274
1.4676563684760369 13.073509479129777 409.61138317588404 54.86857417186248 0.3978253660895548
1.4940636584413982 13.067657688711202 367.09138374983723 57.40655647180873 0.4045938147114904
1.5202729633672432 13.060533598550538 329.33054402622463 60.06927435984009 0.4115647384169956
1.5462533289093414 13.05206848385655 295.73723398182193 62.86381936249661 0.41874865370357917
1.5719673945764878 13.042210866072049 265.86835166268463 65.79780249288535 0.4261569069017553
1.5973891318050377 13.030909784268172 239.2851810195208 68.87940149526759 0.43380174255007337
1.622476150172905 13.018110509792697 215.57583978090634 72.11741266528058 0.441696377707882
1.6472277256933137 13.003801285668171 194.39899559971278 75.52130772898448 0.44985508290616694
1.6715771616162556 12.987899361226697 175.50955293281712 79.1012752892111 0.4582931826628583
1.6955160626345644 12.97038116524723 158.62137988022715 82.86695141142523 0.46702166719363203
1.7189884643596076 12.951193159541976 143.50734054259348 86.83130811339758 0.4760631533344953
1.7419944129977 12.930313593798964 129.98797703750066 91.00620890056952 0.4854331821584533
1.7644732997636905 12.907686694217928 117.86647843134237 95.40509981898849 0.4951511767559729
1.7863998508301877 12.883282264210314 106.99002540018193 100.0422548698961 0.5052371184280829
1.8077425619196814 12.857057808033463 97.23356847425966 104.93385025538981 0.5157154118453423
1.8284692868243957 12.828992097891225 88.47173929299652 110.09613547754253 0.5266075961699306
1.8485457023201646 12.799041331772715 80.58866186981584 115.54709280262367 0.5379384677906246
1.8679396965558868 12.767177317499574 73.50045680553959 121.30684719950496 0.5497371340322282
1.8866187895842903 12.733373507021893 67.11428920940601 127.39666748733946 0.5620329379638017
1.9045511653542888 12.69759786779519 61.35459062139794 133.8393434773408 0.5748565282433197
1.9217035987261617 12.659833341581498 56.163623563494355 140.6596906376308 0.5882412545416444
1.9380359141420884 12.620018345088823 51.474130877171895 147.88571855482968 0.60222671917259
1.9535317535987402 12.578171279722456 47.23810115034726 155.54631521476844 0.6168501692467735
1.968168563698155 12.534319968493687 43.40744152702937 163.67430296235875 0.6321565393703759
1.9819002465336202 12.488378659040137 39.94243713053283 172.30379045102333 0.6481887276587457
1.9947024919497107 12.440351041175896 36.80223236442925 181.47400993530746 0.6649999043435127
2.0065470350823107 12.390235166707068 33.9542645785061 191.22668373568143 0.6826437727823977
2.0174215212104842 12.338029354140385 31.37572904066902 201.60771929196366 0.7011794006594728
2.0272778579335125 12.283702279059353 29.036447885801145 212.66746606833988 0.7206710529164685
2.0361072329766143 12.22729433062751 26.909950562141407 224.46018683590464 0.7411853550093521
2.0438743773496997 12.16876223487548 24.979130611657947 237.04796487554697 0.7628028021638465
2.0505558931957633 12.108120725228337 23.222842654710007 250.49643347732678 0.7856023587571693
2.056145096362377 12.04540534870483 21.62522135356397 264.8793882649573 0.8096748924121414
2.0606218380969006 11.98064171887217 20.171161812122037 280.27829316323397 0.8351196962923984
2.0639586997218617 11.913821834618403 18.84820054996099 296.78221444063104 0.862042144121535
2.066139558178713 11.844970686825967 17.643984918545307 314.4909475704766 0.8905614582287316
2.0671583345820164 11.774146277278671 16.54656017032648 333.51448697698635 0.9208061743691374
