M[M_sun], R[km], Lambda[1], P_c[MeV/fm^3], rho_c[fm^-3]
0.24162668629717493 15.618656898711224 2160425.4255784233 3.5677272577965504 0.1711233750220791
0.25364471816475653 15.277258547038693 1723117.6448598108 3.7848479835768796 0.17388852676589356
0.2660426353202302 14.981226909074149 1382957.6336315847 4.011461141993222 0.17666738204793042
0.27881962153668777 14.723445743681328 1116374.2779823078 4.247821943354188 0.1794586013307617
0.291976503079034 14.498323859580395 905777.5458441515 4.494555958704552 0.1822687578867404
0.3055130542866451 14.301132721167907 738578.1061244018 4.751820190121975 0.18509358532697662
0.31943142705579936 14.128031098892507 605020.0112668975 5.020294696439449 0.18793965343765565
0.3337316819264932 13.97582877310289 489626.0697904656 5.30020655202485 0.1908036441850901
0.348415178502374 13.841907870325079 410929.9940325635 5.592280979642791 0.19369178531194783
0.3634808583805728 13.72384525408074 340605.7287640823 5.896689573466169 0.19659921933810093
0.3789350184599587 13.619899666748474 283228.7734016836 6.214294699345154 0.19953359067406135
0.3947697293261484 13.528360561468663 236348.10401656633 6.545349999467485 0.2024910102541485
0.41099798284054234 13.44776187818203 197820.4836914846 6.890565505472949 0.2054753178760674
0.42760889748684033 13.37697172550831 166040.18861903323 7.250643114594536 0.20848952702274454
0.4446063108387886 13.314824490013494 139762.47145745912 7.625836519608727 0.21152909932012137
0.46198819968951904 13.26047358428944 117944.92455584215 8.017105368663067 0.21460036035453872
0.4797581206012444 13.213072743639989 99781.10309161217 8.425150075598374 0.21770487986357748
0.49791800270839937 13.171906009173208 84618.04593071695 8.850404499066439 0.22084002342188083
0.5164600921027847 13.136322607760727 71916.43952790454 9.293756067452783 0.22400939722508187
0.5353806537795825 13.105776837450877 61253.213502331615 9.756083412745575 0.22721582605209562
0.554691387143031 13.079761840114429 52286.081618879034 10.23819167373998 0.23046059912307787
0.5743767656192414 13.057805631981966 44712.55049536199 10.740556326239798 0.23374046809591156
0.5944358224519698 13.039484767573853 38313.46569926954 11.2644282072799 0.23706169206207833
0.6148770117383339 13.024489157664211 32889.16898907252 11.810740555493037 0.24042582472672566
0.6356843057863598 13.012406706397401 28280.132983106218 12.380472898348154 0.24383449997754017
0.6568587203926353 13.00300324367937 24360.038756109312 12.974300450713299 0.24728551065506546
0.6783936477728346 12.995960976622483 21018.418280060007 13.593577912493146 0.2507839520775204
0.7002857504383749 12.991053201231201 18163.720572430644 14.239490440234315 0.2543323120651025
0.7225237031862417 12.987992900789173 15721.664942773601 14.91322840337662 0.25793257654122254
0.7451152816187371 12.986645588731413 13627.385683315204 15.615802193885273 0.26158444575009965
0.7680391227155927 12.986758811656859 11829.785965468122 16.34851711371495 0.26529020235449363
0.7912876278062041 12.98814954871886 10284.764416706425 17.11297150823341 0.2690543500029467
0.8148654813817242 12.990676706934082 8951.60803433136 17.910621320937704 0.27287932304237195
0.8387557620626406 12.994135186577784 7803.620914647357 18.742804073919103 0.27676594986839753
0.8629375706969716 12.998428209164565 6810.365057526223 19.61092069997755 0.28071521221232454
0.8874220678725349 13.003375832666228 5952.07428723839 20.517031283541645 0.28473322831387776
0.9121819512182205 13.008868012631384 5208.324642589083 21.46293113914364 0.2888230138784067
0.9372066123108668 13.014769439296925 4563.061180218648 22.45006889455531 0.29298420082377835
0.9624931219939249 13.020972878608758 4002.1589085695014 23.480542351748422 0.29722116455504016
0.9880178262875184 13.027358605476755 3514.81175946882 24.556740882215724 0.30153972707259186
1.0137646564359701 13.033822214363752 3090.309293968983 25.6805645729433 0.30594120144743825
1.039731553722679 13.040276461778904 2719.7855829976197 26.85406105761468 0.3104274819364779
1.0658870066713797 13.046607771130722 2396.716044001572 28.080287860351177 0.3150069975155896
1.092222722627796 13.052733326820315 2114.4055949999733 29.361249324552862 0.31967983973297337
1.1187244727647543 13.058565092243565 1867.1643164520115 30.699805154079808 0.3244513999566894
1.1453599534693832 13.064022580796449 1651.0306576398968 32.09925029441794 0.32932902207703607
1.1721273773773326 13.069030740890543 1461.1001440224682 33.56163908575424 0.3343111344575343
1.1989861253157195 13.07348348068155 1294.547256959778 35.09146276180549 0.3394109525104421
1.2259360615843191 13.077350664228145 1148.2957938814116 36.69068002062626 0.34462483787762144
1.2529347941553581 13.080507866480364 1019.5355302465342 38.3644075517606 0.34996762209882953
1.279979621930062 13.082945341334378 906.0765039611666 40.11495916087323 0.355436298490838
1.3070332835598155 13.084546670530411 806.2240981266093 41.94767018239525 0.3610446265098993
1.3340667175306102 13.085241252787226 718.0606883096988 43.86617076686781 0.3667953511154057
1.3610776189773928 13.085027323889262 640.1581835126385 45.87500614825385 0.37269542059366795
1.3880182990231462 13.083782571368538 571.3689870134758 47.97958535350662 0.3787552020246018
1.414863042997484 13.081454860918106 510.46370983992165 50.18475404111746 0.3849807877925004
1.4415960298058186 13.07800574572415 456.5456804659962 52.49557000563273 0.39137829646856404
1.4681916397675556 13.073402177106354 408.696773471146 54.91853579198915 0.3979598537855344
1.4946037914587806 13.067525581852104 366.2663434811348 57.45984628726709 0.4047345291844073
1.5208165930159128 13.060371479265042 328.604194991839 60.126134937090065 0.41171210288495286
1.546801634034967 13.051874352644152 295.0668118267434 62.924513229703386 0.4189031244209968
1.572519123794595 13.041982422900567 265.26201280942524 65.86261396111078 0.42631897595648705
1.5979323291880347 13.030637102281412 238.73092178611023 68.94863866521088 0.43397194094192565
1.623042412060208 13.0178213546628 215.06115419369002 72.19140964061602 0.4418752787392983
1.6477817842430131 13.003459570761374 193.93333632366404 75.60042705996048 0.450043305919564
1.6721321897490253 12.987511420924982 175.10950046517428 79.1854976032381 0.45848967235791743
1.6960680793141643 12.969949225009792 158.23549984499803 82.95709831290247 0.4672288245106764
1.7195475336495256 12.950722945691625 143.16582414467055 86.92784358801131 0.4762817586881382
1.7425289830615467 12.929772605982244 129.67548976945574 91.10917313299966 0.4856622396758388
1.765010473816258 12.90710471492951 117.58127165471102 95.51548455183264 0.4953933855075461
1.7869211128735607 12.88262470300377 106.739536444891 100.16015621369532 0.5054915444129966
1.8082714513261637 12.85637953868992 97.00843214789546 105.05987950270283 0.515983035216179
1.8289756357897036 12.828223034894833 88.26605256573671 110.23121275844689 0.5268904201985151
1.8490549174481423 12.798242318131502 80.4047546121795 115.69199000411474 0.5382377754087249
1.8684274436164365 12.766285321338975 73.32718454043444 121.46208128655572 0.5500531337465171
1.887102970864746 12.73244675906174 66.95480226068636 127.5629297841863 0.5623663431893091
1.9050225489590127 12.696611389827963 61.20917085636937 134.01733597864285 0.575207940707071
1.922159349392643 12.658774130503366 56.03045854143244 140.85086686199182 0.5886137385273436
1.9384678206967079 12.61886627928981 51.35137545374054 148.09122316891757 0.6026220175222801
1.9539590216115033 12.577000314128442 47.12783592188331 155.7667287000403 0.6172678748650645
1.96856810196218 12.533046970532556 43.30627654451759 163.91126332769542 0.6325996422666158
1.982278535801555 12.487027734004394 39.84763286405763 172.5588712818905 0.6486597065229808
1.9950602504742008 12.438923599238075 36.716743236286 181.74843831560048 0.6654997794433815
2.006890352128716 12.388742570050148 33.877615997200785 191.52224145824607 0.6831751004449339
2.0177293322641785 12.336445809571423 31.303553843599374 201.92637186249996 0.7017449775396906
2.0275586040420817 12.282042030478468 28.969823764239106 213.01058063519116 0.7212713113232824
2.0363597240867803 12.225546814622577 26.848943993150893 224.83093861078734 0.7418262082785848
2.044095461113926 12.16692841696889 24.923585017341257 237.44815978498622 0.7634851712469711
2.0507459183098486 12.106195039947789 23.170148231417354 250.9294590471355 0.7863317580199631
2.056309509960216 12.043422156788571 21.578600660317203 265.3482018646007 0.8104547922442739
2.060745245497439 11.978547340922729 20.127249659394554 280.7857575681042 0.8359525290895836
2.0640408104020356 11.911624367750653 18.8080022540978 297.3324557308088 0.862933633604471
2.0661882452013174 11.842694385470846 17.60732610438421 315.08867439226515 0.8915183013065974
2.067173017638777 11.771780416474998 16.51214664190386 334.1636409172638 0.9218314611637548
