M[M_sun], R[km], Lambda[1], P_c[MeV/fm^3], rho_c[fm^-3]
0.24162668629717493 15.618656898711224 2160425.4255784233 3.5677272577965504 0.1711233750220791
0.25364139134055086 15.277379018460183 1723243.8837162836 3.7847890717084316 0.17388779245787336
0.26603623082199856 14.981344613163728 1383080.4916050101 4.011337297401009 0.1766658854591216
0.27880983862889464 14.72361618804254 1116578.9513543278 4.247628976093231 0.17945636320133004
0.29196199261200906 14.498552835421428 906044.6283276508 4.494288805074758 0.18226578306906951
0.3054949976853685 14.301376304293157 738772.0003840226 4.751469778918093 0.18508980021720484
0.3194092650445487 14.12828090962401 605199.3278631188 5.019858446354919 0.18793512717465158
0.33370476138406885 13.976100126412724 497766.0900978537 5.29967297768671 0.19079827197686497
0.3483838750536342 13.842124648511527 411084.5834676926 5.591648748758318 0.19368566830421982
0.36344258826595655 13.724153512204095 340724.51527947036 5.895944481984632 0.19659222128122816
0.37889496756570484 13.62013270892417 283373.13047434035 6.213427730511332 0.19952568496219533
0.3947237277303202 13.528592951425745 236469.54702844477 6.544362053327615 0.2024823473011517
0.41094549002826175 13.448025102158965 197929.77430185716 6.889437509682623 0.2054657113905719
0.42755035296986965 13.377184298590167 166138.85030083396 7.249364484096841 0.208478949240322
0.444542999855209 13.315054261353103 139856.44813659845 7.624410788322402 0.21151774958234001
0.46192032710763553 13.26067982339849 118029.79127773769 8.015507668321822 0.21458800085071394
0.47968130962260125 13.213290520359667 99851.75892941121 8.423367947495416 0.21769148075161263
0.4978346259542773 13.172086647553067 84677.20897938835 8.848444514114227 0.22082583229338967
0.5163700057575066 13.136481254522446 71966.71814088462 9.29158650686651 0.22399412338329816
0.5352836307329712 13.105925462568234 61303.50830428129 9.753689566255343 0.2271994365118867
0.5545863675841667 13.079883711292423 52321.775314955084 10.235562787016706 0.2304431218238487
0.5742644997824563 13.057906311165757 44751.64660730566 10.737694143221555 0.2337220919943411
0.5943182211139234 13.039579911401553 38346.13436361916 11.261294534533448 0.2370421128180506
0.614751349751335 13.024573052645785 32918.44042786172 11.807316880679213 0.24040500307158233
0.6355482427501967 13.012463297182853 28309.196864118792 12.376739554185837 0.24381239456972986
0.6567160607874216 13.003061887100081 24383.966559042346 12.970274581315943 0.2472625004364756
0.6782429107918209 12.996002892604652 21039.943923130017 13.589202349445625 0.2507595901147553
0.7001265603349707 12.991071142515844 18183.410571874625 14.23474172235694 0.25430655003885644
0.7223556162497355 12.988018729727097 15739.525598579556 14.908081562059479 0.25790536325106234
0.7449390909412805 12.986655416846252 13642.413449215222 15.610280873920733 0.2615562244248772
0.7678545310698827 12.986754990533006 11842.875885380696 16.342546544736635 0.26526044056560716
0.7910943436711257 12.988123944716632 10295.373878951814 17.106521725031374 0.269022986891315
0.8146654040620419 12.990650150077318 8962.1326739057 17.903660371638907 0.2728462938356809
0.8385415626922555 12.994107714083542 7812.203605849003 18.735362833110834 0.2767317612170849
0.8627181579017436 12.998383090555858 6819.091829219476 19.602902413373318 0.28067923921720006
0.887189143727565 13.003317494105728 5959.700767922056 20.50839735915227 0.2846953931184924
0.911943395663767 13.008814269372532 5214.874266659085 21.4536403422852 0.2887832333767527
0.9369580300604029 13.01470232538506 4568.438617800872 22.44015992727436 0.2929430446150037
0.9622321480250948 13.020898133026863 4007.5583172114034 23.46989086367153 0.2971779056970944
0.987753275105188 13.027290196076445 3519.393890639099 24.545296737664685 0.3014942649190811
1.0134879418698117 13.03375922550592 3094.201891120978 25.66837207060019 0.3058941482327528
1.0394482108515233 13.040209352294122 2723.637901700884 26.840971142032046 0.31037803059250185
1.0655964687418042 13.046544552451747 2400.057447146846 28.06623925807882 0.3149550256269837
1.0919203593484328 13.052668079927225 2117.354635503709 29.34629182620639 0.3196260019228768
1.1184140280870234 13.058501737550296 1870.085166952607 30.683760183079542 0.3243948002817978
1.1450400345409655 13.063961780866975 1653.29220861087 32.082170218037184 0.32927033661691163
1.171798169170555 13.068975226679525 1463.3354600279038 33.54332355793613 0.3342494092403773
1.1986485284426862 13.073437198023452 1296.5124359205797 35.07182533771537 0.33934601687269383
1.2255911284888654 13.077308387213273 1150.0192649255548 36.66977768627926 0.3445574101826298
1.2525813127685272 13.080477833696163 1021.0545794769832 38.342078386930304 0.34989710018307835
1.2796194483936552 13.082916776206831 907.47791551612 40.091104437342665 0.3553624999455827
1.306658963963391 13.084518821614582 807.4296296024046 41.92226986556022 0.3609678375039759
1.3336918953953838 13.085236541208388 719.178698251974 43.83894007982011 0.3667144074308256
1.3606968144068639 13.085042431161122 641.1894925871885 45.846002147923784 0.37261108090060374
1.3876239690418233 13.08379307219101 572.3100274487834 47.94868415658021 0.3786672472430258
1.4144760989889602 13.081507958703956 511.2766039984639 50.151616809852094 0.38488793361869644
1.4412055027150457 13.078084716854649 457.2811428855389 52.4602493439985 0.39128131916522474
1.4677899553077352 13.073480676100676 409.39755026488524 54.88087530578603 0.3978584785297663
1.4941962808622589 13.067622983687665 366.88188482607063 57.41967691424655 0.40462845990825447
1.5204059124727722 13.06049314790966 329.1464488745507 60.083273812756886 0.4116010205307298
1.5463886917130352 13.052021431738368 295.57417232488467 62.87876243994828 0.41878668502372096
1.5721033183757196 13.04215471856617 265.71745333221503 65.81375916906848 0.42619680853485303
1.5975261642026402 13.030843285666293 239.14977391480613 68.89644759820786 0.43384364517708945
1.622612744539474 13.018044474876762 215.44491484749943 72.1356304213355 0.44174042241827105
1.647363702298177 13.003717999753922 194.29087530849256 75.54078636398016 0.44990142211721085
1.6717144035754512 12.98780421155873 175.40778595792875 79.12201003976014 0.4583415565986682
1.695652956526862 12.970274003023034 158.51982210398896 82.889144471967 0.46707266678212034
1.719118997124251 12.951055537065418 143.430414442904 86.85507366773388 0.4761169706221918
1.742121621033395 12.930167628114852 129.91556475807334 91.03155684320059 0.48548957200056514
1.7645896421013085 12.907559616414776 117.80608174133856 95.03780641702875 0.4942861815769674
1.7833755853442814 12.882838482864475 108.11651213286555 100.3285804622893 0.7440513401792694
1.796486610162866 12.852366264906893 100.82297533019248 105.88420659768893 0.9596537433016015
1.804924026589865 12.814923291519872 95.09484309711135 112.13073818520027 1.169858647981874
1.8093848320640715 12.770236741012594 90.46730016565844 119.0964211651155 1.375246450633582
1.8105099283495107 12.718353826200213 86.58112304006993 126.8110458443859 1.576611842757004
