M[M_sun], R[km], Lambda[1], P_c[MeV/fm^3], rho_c[fm^-3]
0.24162668629717493 15.618656898711224 2160425.4255784233 3.5677272577965504 0.1711233750220791
0.2536450312866642 15.277263327135202 1723093.7733828737 3.7848565699192758 0.17388863379050934
0.2660435009665993 14.981180428021569 1382966.3750245403 4.011479192439678 0.1766676001769232
0.2788214666524934 14.72339500039555 1116359.5414926072 4.247850068827522 0.1794589275438682
0.2919784019702348 14.49827830408089 905705.6150189396 4.494594897495232 0.18226919147921186
0.30551580511334175 14.30108533412155 738553.7010063484 4.751871264679005 0.1850941370296698
0.31943535323717087 14.127957235241247 604982.3733775476 5.020358283259761 0.18794031317545865
0.3337364862121981 13.97581946484787 497594.576573118 5.3002843255227 0.1908044272351639
0.34841979504168724 13.841868990472538 410908.38530211477 5.592373134275412 0.1936926769333693
0.3634842461503304 13.723862917659053 340550.2447511502 5.896798180026474 0.19660023939389892
0.37894225073859306 13.619869782478208 283211.6114051643 6.214421072522774 0.19953474304527805
0.3947779895138907 13.528293761953313 236339.2519771806 6.545494008329435 0.20249227301732137
0.41100579817586663 13.447722866654829 195313.97128760818 6.8907299306394725 0.20547671818978386
0.4276169631403115 13.376942872586959 166021.96045368552 7.250829499485189 0.20849106893717856
0.4446156546767258 13.314795200800166 139746.729690371 7.626044349328132 0.21153075377832192
0.4619989983176074 13.26045743823872 117932.11505908589 8.017338268965533 0.21460216202667012
0.4797689328017602 13.21306306284454 99771.04222673524 8.425409863172701 0.21770683310296005
0.4979298586452853 13.171887805057468 84607.30197385263 8.850690216243681 0.2208420921363216
0.5164729039836778 13.13630532919528 71907.92811498279 9.294072338957674 0.22401162379619352
0.535394073252152 13.105779963055069 61238.87201735761 9.756432383661716 0.2272182152917086
0.5547054613591095 13.079753754888817 52278.762504995844 10.238571885352485 0.2304631080393486
0.5743919842091035 13.057785887665478 44706.09503826731 10.740973578755368 0.23374314698631016
0.5944541047781874 13.039460089158602 38305.06837391713 11.26488504273615 0.237064546378276
0.6148946176219303 13.024474786325312 32884.638251265395 11.811239673530565 0.2404288601971539
0.6357031882640394 13.012425216928053 28275.762977279646 12.381017167068604 0.2438377226330203
0.6568786082334969 13.003003084910436 24162.48383844977 12.974887370690906 0.24728886524897958
0.6784155791472999 12.995953914349545 21014.626468169023 13.594215820020077 0.2507875037757247
0.7003106051763031 12.99104425689877 18161.78514258543 14.240182756800086 0.2543360679162603
0.7225475395098255 12.987992024377744 15718.691575048882 14.913978770355323 0.2579365440142919
0.7451409541930707 12.986643164430758 13625.30102118062 15.616607163784213 0.2615885602222654
0.7680660750541399 12.98676635253598 11828.181997944343 16.349387590165648 0.26529454146127734
0.7913162883940993 12.988143666995784 10282.794681755855 17.11391186145848 0.26905892262224984
0.8148955385614993 12.99067961307567 8950.13805144486 17.91163621096204 0.2728841386229693
0.8387841356494102 12.994152088562714 7802.021932295104 18.743888998730643 0.2767709345365514
0.8629697243189577 12.998431859392271 6809.290336480475 19.61208976991592 0.2807204570918441
0.8874551772108911 13.003391152849026 5950.929429847975 20.518290127264613 0.28473874476225863
0.9122173520142998 13.00887850567201 5207.423107320034 21.464285770828454 0.28882881401899735
0.9372430287353092 13.014776240493958 4562.313569753973 22.451513670365276 0.29299020159996236
0.9625304181082982 13.020988048991246 4001.415001237184 23.48209540765058 0.29722747197651667
0.9880572198413253 13.027370855723719 3513.7720674580255 24.55840953089704 0.301546355821658
1.0138051466194409 13.033832679944306 3089.6927156713296 25.6823423540471 0.30594806224709914
1.0397733196217178 13.040287132125481 2719.1920550490863 26.85596971124951 0.3104346924862199
1.0659306044275156 13.046618306495494 2396.4604793940553 28.082336324092257 0.31501457567370816
1.092266269438423 13.05273839152008 2113.8437390467016 29.36343033670536 0.319687690037574
1.1187702217982245 13.058576524039616 1866.7903152683657 30.70214476173047 0.32445965307427993
1.1454067924090643 13.0640368127242 1650.5794943193243 32.10174085979264 0.3293375794143527
1.172174231930107 13.069039937050784 1460.8811374247598 33.56430983216877 0.33432013514831677
1.1990345659642072 13.073490734645738 1294.3240428183744 35.09432629930867 0.3394204214526584
1.2259863605692092 13.077355726646568 1148.046389945673 36.69372803732884 0.3446346703076811
1.2529861077503583 13.080518676459462 1019.2510200313236 38.367652421331904 0.3499778398820351
1.280032820623955 13.082950050705128 905.8885345446827 40.11843777717044 0.355447060167531
1.307086679807335 13.084554987334307 806.0406291028312 41.95137422236359 0.3610558243838832
1.3341214883756245 13.085237991615434 717.8838541316798 43.87014177347871 0.36680715500070665
1.3611329399717544 13.085027609570034 640.0298012155487 45.87923579847848 0.3727077198419666
1.3880742041614083 13.083777155069535 571.2809105299017 47.98409171970402 0.3787680285974862
1.4149212032552372 13.081443809525698 510.32392634969136 50.189586555224054 0.38499432902958114
1.44165429138965 13.077998657556096 456.4101765283596 52.50072099373178 0.3913924391519756
1.4682504830799186 13.073389469570442 408.60164532546577 54.924028070365516 0.39797463801115884
1.4946630208136877 13.067509525268889 366.17196553821987 57.46570452076198 0.4047499981484366
1.5208764719343375 13.060353456382499 328.5201553466617 60.132385804648266 0.41172830313856507
1.5468621955902684 13.051853260459174 295.0178927072515 62.931185606443435 0.4189201061502777
1.5725796250035247 13.041957365222435 265.1917994186264 65.86973911875762 0.4263367932903055
1.5979932343534244 13.030608703437842 238.65775974105168 68.9562504929561 0.4339906522907915
1.6231024449650728 13.017787303371836 215.00621983865273 72.1995448887238 0.44189494716859173
1.6478448145789155 13.003419801239106 193.8887670111312 75.6091256087251 0.45006399956093407
1.6721929032137766 12.987470613996308 175.0595869368313 79.1947573188477 0.4585112751684966
1.6961295557587734 12.969904271794132 158.19786589757564 82.96700957618282 0.4672516005648283
1.7196082781933901 12.950670412419036 143.12704830184745 86.93845744097271 0.4763057938429808
1.7425929645852223 12.929720523803843 129.64215739221473 91.12049399277626 0.48568742442178303
1.7650689428534239 12.907042340008031 117.54412371457856 95.52762152432354 0.4954200167352454
1.7869793235641123 12.882550374368517 106.7155669013326 100.17311986839515 0.5055195194174267
1.8083291274112232 12.856303923498462 96.9835265143682 105.07373709019191 0.5160124618322588
1.829040710641341 12.828159232525563 88.23504333822132 110.24603763442764 0.5269214150706587
1.8491108800301392 12.798156040002535 80.38299434757062 115.70792285045701 0.5382706871712654
1.8684822585265684 12.76618978039105 73.30990211896393 121.4791511012676 0.5500878816338813
1.8871572016103693 12.732348808692901 66.93687465157599 127.58116751423431 0.5624028445620508
1.9050738849420294 12.696503329262683 61.19179146455176 134.03690908876968 0.5752465841038581
1.9078401465457078 12.670736091465365 59.403187908172214 144.48211085409366 3.2960799406864107
