M[M_sun], R[km], Lambda[1], P_c[MeV/fm^3], rho_c[fm^-3]
0.24162668629717493 15.618656898711224 2160425.4255784233 3.5677272577965504 0.1711233750220791
0.2536414232249188 15.27739763566729 1723090.1387301001 3.7847951330646183 0.17388786800975414
0.2660371687190591 14.981322759586527 1383034.76054809 4.011350039464164 0.17666603943943499
0.2788108631093208 14.72359117799766 1116531.2752075864 4.247648829826474 0.17945659347471674
0.2919630780162639 14.498511305808414 906015.598864834 4.494316291330281 0.182266089134904
0.30549776521533417 14.30130006802463 738721.567105885 4.751505830836306 0.18509018964672766
0.3194115787600567 14.128260704773677 605190.3332649303 5.019903329371124 0.18793559285326797
0.33370791914842063 13.976106574168671 497785.1993039144 5.299727873274675 0.19079882468434753
0.3483866490032685 13.842096569497294 411073.14118792914 5.591713793842656 0.19368629763330408
0.3634474548157707 13.724104439043533 340716.34036133013 5.896021137685693 0.1965929412477946
0.3788992086893769 13.620100511095988 283366.6275199141 6.213516924269643 0.19952649830187486
0.39472838437726443 13.528559399102832 236467.43079444967 6.544463692401829 0.2024832385385249
0.4109508947124959 13.44800039484691 197918.8575354457 6.889553555930703 0.2054666996891175
0.42755725541992734 13.377152529242347 166120.95545373645 7.249496026235846 0.20848003745472665
0.44454923301828114 13.315034749780036 139846.96432531805 7.624557462658904 0.21151891720436986
0.461927311428986 13.260663820712155 118013.50957157937 8.015672032835274 0.2145892723431085
0.47968939880056205 13.21324082829019 99839.73171093914 8.423551283576769 0.21769285918264528
0.49784302890225063 13.172065205571075 84669.17478224088 8.848646145672774 0.2208272921920241
0.5163783965555847 13.136481144801635 71963.30664319826 9.291809696437204 0.2239956946517901
0.5352948028696065 13.105897915519249 61298.20322698885 9.75393582676106 0.22720112254166214
0.5545973025367473 13.07988671006927 52319.51063923453 10.23583372329584 0.23044492615377515
0.5742755584109791 13.057914109261114 44748.94499936143 10.737988578005716 0.2337239823568599
0.594328613807123 13.039581913926131 38010.239076753205 11.261616894983808 0.237044126931978
0.614764621806068 13.024534002488787 32914.66027288949 11.807669070681742 0.24040714497441373
0.6355625684729211 13.012471636826765 28306.555451746968 12.377123596385353 0.24381466851209027
0.6567311214551845 13.003039109745266 24381.718469152398 12.970688712160626 0.24726486743856146
0.6782595590102165 12.995991886365047 21037.92700313212 13.589652448668959 0.250762096146642
0.7001435003647608 12.991079206238522 18180.941533727357 14.235230202714162 0.25430920006863467
0.7223736851914898 12.987997600980135 15736.744174630778 14.908610991304712 0.2579081625430517
0.7449571370944269 12.986651524383904 13640.912873365553 15.610848819988252 0.26155912738844084
0.7678743137381221 12.986759391234473 11841.686059598465 16.34316069736386 0.26526350196241905
0.7911148704220593 12.988135825304187 10294.296035209401 17.107185165734073 0.26902621297879237
0.8146860134139232 12.990656712265013 8961.060192158227 17.904376386200777 0.27284969127357944
0.8385637624489993 12.994117307662808 7811.190344789282 18.73612824603652 0.27673527789344315
0.8627421352156205 12.998378285996958 6818.621023614212 19.60372717487097 0.28068293940189015
0.887211127366465 13.00333504994049 5958.8591003906995 20.509285437731656 0.284699284816526
0.9119683315643726 13.008819704356979 5214.035834513263 21.45459597816599 0.28878732513285454
0.936983553202925 13.014707425229927 4567.84624640485 22.44117914014728 0.292947277845026
0.9622583367256937 13.020918980492645 4007.0413104240524 23.47098644111741 0.2971823551626299
0.9877791548827104 13.027301378485221 3518.6938735121175 24.546473835050946 0.30149894096820234
1.0135182594117895 13.033754326747358 3094.063702808476 25.66962613223889 0.3058989878981352
1.039476711872672 13.040213943125865 2723.1767051137726 26.842317495493045 0.3103831168734403
1.0656265380032481 13.046556595421782 2399.669853512256 28.067684203811574 0.3149603711095597
1.0919514989170864 13.05267573807394 2117.2021478403076 29.347830243960182 0.3196315392821972
1.1184460580553075 13.058506663820861 1869.8254664681926 30.685410435432566 0.32440062165390676
1.1450717451458563 13.06396410516898 1653.1050269422335 32.08392691992537 0.32927637247157127
1.1718319853523964 13.06898248535004 1463.1296633491493 33.54520730991637 0.3342557576787737
1.1986835934328475 13.073437578171179 1296.3074468983448 35.07384502800113 0.33935269544092955
1.2256263782489443 13.07731334030026 1149.7911062249464 36.671927455109184 0.3445643450040981
1.2526175931937995 13.080477963238318 1020.8712095402384 38.34438296172438 0.34990440057081296
1.2796565529189161 13.082926851661506 907.3502690855669 40.0935578118647 0.3553700898667344
1.3066970584633053 13.084519072423891 807.333177856356 41.92488217824231 0.36097573492097745
1.3337300284486149 13.08523371277425 719.1233802687669 43.84174061048155 0.3667227320562792
1.3607353432478397 13.085037823406466 641.0853331764766 45.84898502995087 0.37261975471634456
1.3876645570972193 13.083790038022888 572.2266681055929 47.95186212703348 0.378676292772807
1.4145173560579567 13.081505956321179 511.18743253789853 50.15502470545814 0.38489748291774245
1.4412389168120905 13.07806273981692 457.19823831718725 52.46388175624802 0.3912912924083147
1.4678323365439099 13.073472941157881 409.3239100333441 54.88474831370019 0.39786890397052593
1.4942379806732007 13.067612429349303 366.8099709158445 57.423807899027246 0.404639367984048
1.5204487172498773 13.060481017645989 329.09148384388567 60.087681574351066 0.41161244404195013
1.5464311831371969 13.052006713400935 295.5278677168382 62.883467325239856 0.418798659330843
1.5721464018912246 13.042136170479793 265.6736997792548 65.8187832129939 0.42620937177515944
1.5975687069421531 13.030822868035514 239.10788355993057 68.90181467924737 0.43385683850319756
1.6226565931935073 13.018020425035402 215.40166915473225 72.14136643300986 0.4417542902608431
1.6474068958854984 13.003691214929768 194.24807541034252 75.54691940418674 0.44991601247451957
1.6717570500134342 12.98777442365149 175.3685303787513 79.12853860788577 0.45835678767341365
1.6956953563085686 12.970239959138834 158.49000572500788 82.8961322415951 0.467088724656374
1.7191590652455133 12.95100817446819 143.39896550704398 86.86255659701827 0.4761339157753497
1.7421639376054934 12.930124536305978 129.89123682294755 91.03953804734448 0.4855073272420097
1.7646436257086737 12.907493968477247 117.76870644825271 95.44083053691514 0.4952295779293856
1.7865743050784095 12.883076622812792 106.90936308988172 100.08041826567857 0.5053194733805094
1.8079146303365095 12.85683943268216 97.16379147008271 104.97464413168609 0.5158020377271647
1.828629000963126 12.828725379449152 88.40280864085891 110.13994808898423 0.5266994781574238
1.848713259819504 12.798778513596412 80.53238207583487 115.5939928431042 0.5380353470902975
1.8681016136551816 12.766898089162822 73.44469562729475 121.35709247426483 0.5498394149988004
1.886776252544327 12.733071984224388 67.06190284377057 127.45053994747974 0.5621410595614473
1.9047033839628509 12.697279501324271 61.307820441377835 133.89695373699757 0.5749702687837089
1.9218506098923875 12.65949064172965 56.11905639168322 140.7215672311655 0.5883618136763293
1.93817144264204 12.619624768142318 51.43358914913728 147.95223182530106 0.6023546607575831
1.9536759638632732 12.577816625200345 47.20359800313853 155.61765298755273 0.6169853614672114
1.9682982540838687 12.53390944700224 43.37355411777946 163.75112138704569 0.6323003768028717
1.98202310403668 12.487941751236491 39.912212128868184 172.3863461900127 0.6483411578043318
1.9948202770224566 12.439889722617233 36.77432208194904 181.56282619572147 0.665161684393364
2.0066601982608754 12.389746123081318 33.9330644433429 191.32233694760802 0.6828157297086659
2.0175223378993907 12.337517095983545 31.35373190256617 201.71084530395805 0.7013624391582206
2.0273686573969387 12.283165158323973 29.014470738425462 212.77850718447147 0.7208653127057617
2.036189132696862 12.226727387240594 26.890899041344845 224.5801701778276 0.7413927490722642
2.043945379771959 12.168165419044906 24.961754952240746 237.17747466663909 0.7630236282546307
2.0506165371668374 12.10749271672213 23.205383203155844 250.63668577750346 0.7858387924327914
2.056195827460135 12.044758415113197 21.60992567943607 265.03114643082716 0.8099274268171125
2.06066234063507 11.979963890414588 20.156169608154208 280.4427058317612 0.8353898443973888
2.0639869289506065 11.91311441233592 18.835640521040343 296.9602696267683 0.8623306254272042
2.0661562497054202 11.844234413429682 17.631734629838704 314.6843651939957 0.890871081801667
2.067164470832295 11.773376556448857 16.53547948315538 333.72454194723343 0.92113793941557
