M[M_sun], R[km], Lambda[1], P_c[MeV/fm^3], rho_c[fm^-3]
0.24162668629717493 15.618656898711224 2160425.4255784233 3.5677272577965504 0.1711233750220791
0.2536409835422728 15.27737117767717 1723431.3724325297 3.7847808553817286 0.1738876900453247
0.2660356779550997 14.981339566196407 1383112.9933572474 4.0113200252476355 0.17666567673534142
0.2788085189787454 14.723661728903219 1116539.8468086824 4.2476020639805565 0.1794560510613787
0.291960164509173 14.498549654307112 906038.8255149412 4.494251547026975 0.18226536819206032
0.30549247276632296 14.301399181968844 738787.1548360178 4.751420910105873 0.18508927234076533
0.31940570704997073 14.12833228140772 605235.9868721993 5.019797607029225 0.1879344959431657
0.3337005405078462 13.976174542205339 497803.57185779954 5.299598566416681 0.1907975227788464
0.34837845810445217 13.8422200294539 411143.92942696455 5.591560579995138 0.19368481524718167
0.36343932142095975 13.724151755999186 340752.608513048 5.8958405752562975 0.19659124536724665
0.3788887433348596 13.620164419223606 283394.6293336635 6.213306828750587 0.19952458248371252
0.3947168455993168 13.528645954549562 236488.91815701933 6.5442242822979395 0.202481139235341
0.4109381603059738 13.448059038935606 197945.50420450862 6.889280210205468 0.2054643717622163
0.4275416717301846 13.377247541511055 166151.77174001784 7.249186180521082 0.20847747418053506
0.4445340174632835 13.315065623037036 139869.29257246116 7.62421197367824 0.2115161668899351
0.4619103920164998 13.260711837995707 118040.26852970975 8.015284875450337 0.21458627736773273
0.479675682485851 13.213245180067435 99857.97082167045 8.423119439608788 0.21768961231971284
0.49782272220852053 13.172111734027165 84684.33390378076 8.848171207677929 0.22082385343801603
0.5163566715524041 13.13651629734943 71975.9387615683 9.291283979782337 0.22399199357376523
0.5352691543654349 13.105958874853178 61310.0057582322 9.75335576793475 0.22719715115189418
0.5545727639111818 13.079908915295768 52333.07022004667 10.235195542296545 0.23044067611727506
0.5742509174859568 13.057909466615262 44756.661166569866 10.737295047868102 0.23371952967854767
0.594301835400132 13.039587944075747 38352.38290758647 11.260857587961357 0.23703938276796108
0.6147332658367242 13.024557529911581 32923.343145424056 11.806839502421923 0.24040209981528995
0.6355292118484339 13.012479126937684 28312.118528757583 12.376219002822355 0.24380931234648023
0.6566960319768719 13.003072276470734 24387.70617016074 12.96971324724741 0.24725929208112574
0.6782229785796305 12.996005005859637 21042.72858071022 13.58859226336002 0.2507561933188825
0.7001038490701492 12.99107821184486 18185.663331252927 14.234079614115705 0.25430295806933356
0.7223328266761913 12.988024399636325 15740.284584184927 14.907363951454965 0.25790156897329086
0.7449151976805451 12.986651243433748 13644.732122722999 15.609511057420612 0.261552289633568
0.7678292696527687 12.986758296681053 11844.651061564258 16.341714099900408 0.2652562910368829
0.791068267929117 12.988121885874131 10297.580558103245 17.10562247535515 0.269018614144651
0.8146351296533566 12.990646797150966 8963.526892004998 17.902689863778534 0.27284168884527804
0.8385114313247981 12.994109097937049 7813.47128065061 18.73432537111383 0.276726994616006
0.8626875663249308 12.998374912595752 6820.317288781222 19.6017845111925 0.28067422389513874
0.887156462366725 13.003312896976631 5960.7360110846375 20.507193638160977 0.28469011822646867
0.9119085674122636 13.008808885270463 5215.675683301081 21.452345055617428 0.2887776873343395
0.936926155897582 13.014694274606775 4569.359509051464 22.438778469725438 0.29293730682682817
0.9621966793113172 13.020896663167624 4008.3722044402034 23.468405903774897 0.2971718748337296
0.9877149045324878 13.02728276910308 3519.8492403698115 24.54370128828989 0.3014879269561104
1.0134505889239034 13.033743221606866 3094.7792783393584 25.666672306318468 0.3058875885150335
1.039408004745921 13.040193395412514 2724.1081605324316 26.839146289043114 0.3103711366265101
1.0655553289024946 13.046532837248453 2400.4995882366075 28.06428077738122 0.3149477803552706
1.0918773652799778 13.052649450231305 2117.915305801419 29.34420665747 0.31961849659572594
1.118370302072947 13.058492982520292 1870.4738888554787 30.681523439341127 0.32438691002332315
1.1449969693275799 13.06395348079986 1653.7263662051598 32.079789197820126 0.3292621556659669
1.1717526755260401 13.068970922748386 1463.6163934039105 33.54077034131597 0.33424080463711975
1.1986018922845867 13.073424622217942 1296.7831190140296 35.06908787867103 0.339336964837761
1.225542662152989 13.077296095689594 1150.2211254088247 36.66686392660873 0.344548010844973
1.2525324167001903 13.080468893787497 1021.2691236533633 38.33895481393176 0.3498872053885742
1.2795691508730116 13.08291502735309 907.68061271017 40.087779191267835 0.35535221274512013
1.306607699773951 13.084508351571747 807.7039538732739 41.91872920601518 0.36095713355376363
1.3336395476455514 13.08523234813044 719.3634915581164 43.83514432473254 0.36670312448368536
1.3606442514618202 13.085036162295477 641.3345219765682 45.84195924821784 0.3725993246974453
1.3875702815993247 13.08379112968244 572.4445910292111 47.94437685017253 0.3786549872585608
1.4144228855073158 13.081514599829708 511.3959986797482 50.1469978840891 0.3848749908796924
1.4411500517344806 13.078091653148219 457.4013522157891 52.455326128851326 0.3912678018609999
1.4677339801154459 13.073490022926764 409.499418340893 54.875626010167686 0.39784434837002697
1.4941402084895634 13.067639336125412 366.9548035883458 57.41407798237444 0.40461367564337186
1.520349492094912 13.060511196753579 329.22519995907084 60.07729976619622 0.41158553770878986
1.5463302702314177 13.052040966985848 295.64213838119286 62.87238570389758 0.4187704557234989
1.5720448620803116 13.04217811284814 265.7830576572618 65.80694988113478 0.42617978107213655
1.5974671124206168 13.030872724358014 239.1986915769671 68.88917339770187 0.4338257637814584
1.6225539195383054 13.018071560217694 215.49837811680587 72.12785621687846 0.4417216268771087
1.6473064811983908 13.003754543943725 194.33390487549184 75.53247407693955 0.4498816473833284
1.671655272928203 12.987845201911087 175.4503816635542 79.11316170333839 0.45832091353102783
1.6955942115991234 12.970319937196113 158.5581934188795 82.87967379566918 0.467050903195571
1.7190585359864416 12.951098157924676 143.47002933295784 86.84493192121688 0.476094004556165
1.7420638495878755 12.930223361473734 129.94631779033284 91.02073980420342 0.4854655080704054
1.7645498347154207 12.907607044991119 117.8222046953042 95.42067771491188 0.49518535813800396
1.7864764706308183 12.88319082055323 106.95574456671501 100.05889331960653 0.5052730234807193
1.8078174688195674 12.856964095411199 97.20488004125147 104.95163548895928 0.5157531788261064
1.828543714017254 12.828883432669869 88.44450748460928 110.1152367481172 0.5266476545605696
1.8486188224135909 12.798926417360738 80.56699142063323 115.56754005721568 0.5379807047628066
1.8680106287300584 12.767054445553914 73.47479759889964 121.32875282401224 0.5497817258562093
1.886687536651575 12.733242014094207 67.09207449655663 127.42015439301474 0.5620800759960867
1.9046175244607684 12.697459534316545 61.33326584462616 133.86445988619937 0.5749061158329821
1.921752284796873 12.659633083704376 56.146922447050656 140.68666695071494 0.5882938146581058
1.9380983391125266 12.619859713821521 51.458248543887144 147.9147162136516 0.6022824976120573
1.9535939042761026 12.578019964674695 47.22180466898401 155.5774160990373 0.6169091085357054
1.9682274424772586 12.534139272290835 43.39415794668742 163.70779309903645 0.6322192474419522
1.9819557330580824 12.48818903775209 39.92871071333709 172.33978172643955 0.6482551816135971
1.9947533015873908 12.44014836848771 36.789321504264755 181.51273042444964 0.6650704342513752
2.0065997947716907 12.390021012449727 33.94760116881544 191.26838471280774 0.6827187391291057
2.017466784619847 12.337805655177583 31.367431829627314 201.65267793097502 0.7012591978089139
2.027317963815214 12.283468677331417 29.026985877520083 212.71587517791846 0.7207557417574512
2.036143643747072 12.227047219927087 26.90269627676661 224.51249414211452 0.7412757694333962
2.0439047853733845 12.168501043409679 24.971531582422752 237.10442504818525 0.7628990719447146
2.050582661531461 12.10784411312301 23.215564134629734 250.55757659445075 0.7857054322319174
2.0561675015271432 12.045124014105815 21.618650719960296 264.945547077204 0.8097849845194659
2.0606396495640182 11.980345829317404 20.165446105269993 280.34997040121505 0.835237473196261
2.0639719162855275 11.913513178269463 18.84309919794123 296.85983669243575 0.8621679060779003
2.0661471569633476 11.844649473801505 17.638082914097414 314.5752665713221 0.8906964363648142
2.0671613607093797 11.773812529639317 16.541994614589445 333.60605845034576 0.9209508041966309
