M[M_sun], R[km], Lambda[1], P_c[MeV/fm^3], rho_c[fm^-3]
0.24162668629717493 15.618656898711224 2160425.4255784233 3.5677272577965504 0.1711233750220791
0.2536450486583944 15.277278672638053 1723153.293870406 3.7848471114488453 0.17388851589523832
0.26604256955970423 14.981207817372727 1382952.8737587319 4.011459308584807 0.17666735989227172
0.27881961428071556 14.723426846150417 1116287.3258834765 4.247819086616467 0.17945856819690914
0.29197622818586233 14.498308697969316 905814.4683081704 4.494552003651945 0.18226871384631171
0.3055126812778522 14.301137948807922 738611.612423406 4.7518150024360075 0.1850935292900673
0.3194310905299346 14.128038022869983 605014.9632271255 5.020288237882651 0.18793958642763609
0.33373110658407945 13.975860347560126 497591.5526926053 5.300198652530552 0.19080356465029016
0.3484147109660412 13.841911896226927 410930.44696959306 5.5922716194636095 0.19369169474963935
0.363480314319921 13.723849213115749 340607.7180111379 5.896678542276576 0.19659911573083383
0.37893492529089745 13.619896115898994 283241.497469617 6.2142818636172965 0.1995334736276785
0.3947696488451307 13.52835144172743 233236.83255705645 6.545335372503947 0.20249088199543835
0.4109972071581191 13.447770345217151 197824.99228953416 6.890548804853908 0.2054751756465875
0.4276086302503035 13.376963601536794 166036.50357253058 7.250624183561856 0.20848937041116278
0.44460573067026665 13.314844217693635 139766.82406110942 7.625815410463533 0.2115289312777525
0.4619870447749802 13.260513754332997 117939.65263268448 8.017081713149455 0.21460017736001627
0.4797561436726487 13.213084212565809 99779.99136219553 8.425123689204476 0.21770468147478286
0.49791716677663095 13.171904340213194 84616.70214795729 8.850375479064663 0.22083981330466868
0.5164588098605134 13.136325147496885 71916.32265746045 9.293723944127567 0.22400917107486967
0.5353797347298315 13.10577509782633 61254.78535697597 9.756047968232815 0.2272155833801994
0.554688992638558 13.07976288609664 52286.10217923161 10.23815305620123 0.23046034429611278
0.5743754284361287 13.057785551437066 44711.91450104721 10.74051394657356 0.23374019600532675
0.5944360716122955 13.039473889435037 38313.69349812102 11.26438180730699 0.2370614021542079
0.6148747541182784 13.024472637164973 32889.5025551093 11.810689861027944 0.24042551641979604
0.6356825338068067 13.01242302957896 28280.510315266307 12.380417618096395 0.24383417265906754
0.6568565883959187 13.00300523161722 24359.833372275847 12.97424083853557 0.24728516993630267
0.678391427724697 12.99596176385711 21018.588240017078 13.593513121717223 0.2507835913398385
0.7002837799007988 12.991040601918966 18164.405546102098 14.23942012336333 0.2543319305926455
0.7225207344224583 12.988005688084288 15721.879377419278 14.913152190582284 0.2579321735754503
0.7451127334171042 12.986643958425102 13627.766293663506 15.61572043531638 0.26158402785452806
0.7680369084842145 12.98676471926835 11830.882017583135 16.34842870195728 0.26528976164405604
0.7912852040557352 12.988148395208052 10285.129100242037 17.112875999436884 0.2690538855760112
0.8148643696158729 12.990673126140901 8951.859442177934 17.910518241820238 0.2728788339393301
0.8387500963764084 12.994146588796186 7803.773159033669 18.74269388172744 0.2767654435922918
0.8629343088258049 12.998417998660024 6810.4296169514255 19.610801961623878 0.28071467950821594
0.8874190317710052 13.003371742087664 5952.004112932353 20.51690342737023 0.2847326680283102
0.9121784596833384 13.008868689676296 5208.37775865635 21.46279355434601 0.288822424780146
0.9372027548762443 13.014764230410814 4563.203671465497 22.449922154341206 0.2929835913484702
0.9624897479029527 13.020979246831956 4002.2354932345884 23.480384614190953 0.2972205239359509
0.9880143931413805 13.027355582983008 3514.934399253605 24.55657140463183 0.30153905381860585
1.0137603923831533 13.03381861171154 3090.4152581541957 25.68038401146629 0.30594050462592426
1.039727709070725 13.040281444835555 2719.7908751436544 26.853867204288044 0.31042674959351696
1.0658831265395992 13.046605884536723 2396.745752081018 28.080079807471744 0.31500622783752025
1.092218808730763 13.052738278245284 2114.4541191732324 29.361027809634287 0.31967904241527734
1.1187194617749354 13.058570076471979 1867.0923183288542 30.699567531760426 0.32445056172856024
1.1453550223732625 13.064023775923095 1650.8855844709567 32.09899734040289 0.3293281529519553
1.1721214781873561 13.06903014133812 1461.1344518387791 33.56136783211506 0.33431022030480284
1.1989808219013591 13.073489825969125 1294.569169844974 35.091171927873866 0.33940999080147555
1.2259302923060198 13.077350911973781 1148.2846443371118 36.69037045056483 0.34462383925252366
1.25292832237753 13.080516775482863 1019.4759245984912 38.36407798890371 0.34996658433698724
1.2799744835790237 13.082950661054767 906.0920211377739 40.11460585830515 0.35543520549072316
1.3070278690395178 13.084548866544342 806.2388997824261 41.947293985405764 0.3610434892094065
1.3340606392348853 13.085239686542762 718.0609230016079 43.86576745640078 0.36679415226812084
1.3610709875513065 13.0850321725702 640.1343699702071 45.874576569591774 0.37269417143727246
1.3880134566433764 13.083781261174128 571.3796854124087 47.97912767124714 0.37875389931314823
1.4148585617711975 13.081452243187488 510.4646457798628 50.18426323504756 0.3849794124998046
1.441590703402251 13.078007562272578 456.54910368303547 52.495046855105066 0.39137686009322264
1.468185710852386 13.07340133109309 408.7196727312761 54.91797797983181 0.3979583522555271
1.494597564767117 13.067526277198388 366.25821367925977 57.45925130857885 0.40473295811286586
1.5208105274414017 13.060373433708397 328.61222948860683 60.12550008242855 0.41171045754429775
1.546794900591817 13.051876575739168 295.0747864483946 62.9238355665965 0.4189013997145132
1.5725129177624642 13.04198431073531 265.2667030773243 65.86189031370188 0.42631716638705847
1.5979263842386393 13.030640846279988 238.73916193396042 68.94786559183093 0.43397004057762484
1.6230347844838595 13.017825731619759 215.06803040760985 72.19058340904554 0.4418732811754861
1.6477772188545592 13.003462813389643 193.9463178185044 75.59954362011662 0.45004120423711147
1.6721263244876743 12.987516563253715 175.11020077945292 79.18455717179066 0.45848747834210973
1.696061654822781 12.969954794575706 158.24161500228027 82.95609171119168 0.4672265113428766
1.719541610131051 12.950727789466136 143.17083952951032 86.92676563245828 0.47627931764917486
1.7425234492167538 12.929777302732436 129.68195925745056 91.10802337498278 0.48565968188746195
1.7650040848974684 12.907110423064054 117.5835058598291 95.51425191115929 0.4953906808186735
1.7869147299274966 12.882631583201912 106.74341633924321 100.15883961694128 0.5054887032543204
1.8082658702987924 12.85638671193584 97.01232493725767 105.05847212026626 0.5159800466366251
1.8289686478695135 12.828226353417648 88.2661915383291 110.22970714074704 0.5268872723524107
1.8490502188185873 12.798250544178186 80.40408415839703 115.69037186445638 0.5382344328905677
1.8676988718037777 12.766998947535729 73.5537850466908 121.60282651214706 0.8920634066672852
1.8691058619455423 12.736957749207887 71.50231098564495 130.25375322281127 1.9922136164717705
