M[M_sun], R[km], Lambda[1], P_c[MeV/fm^3], rho_c[fm^-3]
0.24162668629717493 15.618656898711224 2160425.4255784233 3.5677272577965504 0.1711233750220791
0.2536333151257067 15.277552576507748 1723540.3717140153 3.784623565645239 0.17388572950463843
0.26601742538927575 14.98173970304561 1383525.0176658845 4.0109893850150025 0.17666168114326056
0.27878022116881096 14.724180204248247 1117153.807473035 4.247086901778498 0.17945007595616772
0.2919218869510641 14.499180222123117 906588.8323869781 4.493538359709699 0.1822574266857603
0.3054443891511562 14.302015389757896 739301.7406942693 4.750485499176594 0.18507916811747052
0.31934566110873425 14.12900810976379 605674.3840870486 5.018633097922187 0.18792241371172094
0.3336309836937017 13.97678915786408 498284.8717920237 5.298174321499395 0.190783182995779
0.3482945655107192 13.842925289999643 411560.3826965463 5.589873059634156 0.1936684880234683
0.36334109206521453 13.72487339346368 341160.68760161113 5.893851891646872 0.1965725672299366
0.3787768768962237 13.620873255590602 283765.6649067887 6.210992939911402 0.1995034826036027
0.39459148844568587 13.529299091665887 236830.3794762089 6.541587606906466 0.20245801915413175
0.4107985094108749 13.448677353044388 198239.9661632702 6.886269880101043 0.205438734527811
0.42738566437967745 13.377843075689894 166421.0916508509 7.245773976047235 0.208449245887396
0.44436227774848175 13.315650305990717 140102.50691489436 7.620407340787352 0.2114858795657527
0.4617232165917634 13.261272858137596 118248.11976679858 8.01102149561376 0.21455329667790224
0.47946635386967845 13.213790056571689 100048.82157994763 8.418364102457954 0.21765385883217797
0.49760170264126 13.172565414910718 84855.43580020136 8.842941459161977 0.22078598782426093
0.5161156754825755 13.136927866112174 72134.49571344162 9.285495243516579 0.22395124050956863
0.5350121594098445 13.106327402649406 61444.92837543382 9.746968836683504 0.22715342283974846
0.5542948396668446 13.080241472112967 52448.551611632494 10.22816882828955 0.23039388094311852
0.573951043670531 13.058222533361022 44860.56933834266 10.729659088279325 0.23367050445266346
0.5939886033224119 13.039854857853344 38443.714617037054 11.252497631562708 0.23698714960909803
0.6143954197047699 13.024782594723002 32726.02509236435 11.797706216578005 0.240346554198808
0.6351706131768673 13.012670933226302 28384.731805423497 12.366259979457347 0.2437503442301469
0.6563125422654886 13.003191828019885 24452.737266788885 12.95897421619317 0.24719791218336665
0.6778222737340495 12.996131209512631 21100.137575433386 13.576920845546274 0.2506912099914555
0.6996819662773108 12.991159842711083 18236.433735352708 14.221413299257812 0.2542342426930498
0.7218871170193016 12.988062838504963 15785.811764266718 14.89363621577983 0.2578289852600673
0.7444464706172227 12.986671082014599 13684.761863570799 15.594784949187037 0.26147701953649166
0.7673371091921741 12.986730426062461 11881.539807940977 16.325790362415624 0.26517691519933256
0.7905527714052601 12.98807583654193 10329.229888259886 17.088421282117896 0.268934970566751
0.8140923658009992 12.990568298182747 8992.801927177243 17.884126099691294 0.2727536051120568
0.8379487153020395 12.994022359801084 7839.4908390106675 18.714430854603936 0.2766353739504451
0.8621040006781168 12.998274294990575 6842.869395129861 19.580402419277334 0.2805782959336951
0.8865428649057857 13.00319186164044 5980.7234858661395 20.484170696992006 0.2845892281285028
0.9112723766121082 13.008656480568048 5233.6510027692875 21.42757144090662 0.2886716138902643
0.9362668139752292 13.014542653202025 4585.351952923635 22.412357320046013 0.2928275684129812
0.9615087258364396 13.02072598451231 4022.247796478134 23.44000597251535 0.29705653427444284
0.9870043998947452 13.027103834232317 3532.4532645612658 24.513189061805218 0.3013667163651208
1.01271565982952 13.033565967049295 3106.2153746485715 25.634128763420204 0.3057618672909687
1.0386426693374333 13.040004817754 2734.2562701884412 26.804248538764273 0.3102392992099787
1.064771692884346 13.04635067186151 2409.691138733582 28.026828617180527 0.3148092285292408
1.0910704544638792 13.052473877930707 2125.8609319053144 29.30433272363884 0.31947497491665394
1.1175381628427887 13.058326428191487 1868.398851145806 30.638752191405377 0.32423603167472204
1.1441448027796604 13.063792517138753 1660.2302456613181 32.03393842660937 0.32910364066653713
1.170875090121369 13.068812591329065 1469.432432194791 33.49194997724422 0.33407627497660775
1.1977017680892 13.07328913170724 1301.9843162266318 35.016746110816094 0.33916388480135007
1.224622025260678 13.077174749617376 1154.8614434990209 36.6111525095735 0.34436829443755934
1.2515955898964388 13.08038812686807 1025.418269449181 38.27923351642284 0.3496980214102761
1.2786073730680685 13.0828422527393 911.4960313740152 40.02420354556702 0.35515553093657276
1.305627537651602 13.084468106344872 811.0724178501424 41.851034408818 0.3607524759418653
1.3326480713845998 13.085247547096063 722.4591012450644 43.762577020213854 0.36648741692560954
1.359626622234619 13.085070648974076 644.1105609002778 45.7646690091014 0.37237457518118
1.3865386091949514 13.08385884554594 574.9256936048347 47.86199402338308 0.37842040391042564
1.4133663468719027 13.081602649768287 513.6609632601817 50.058700610958844 0.3846275721898208
1.4400884759779962 13.07825205105974 459.4347967832152 52.36121448566149 0.3910094065493862
1.4666542311772424 13.073689775553921 411.3344760574801 54.77528382281469 0.3975742452478216
1.4930544790427862 13.067906817513895 368.65192260049423 57.30705539273447 0.40433107704246
1.519248323139486 13.060828037436961 330.72345412190606 59.96311021895938 0.4112895948483989
1.54522634942187 13.052429887025783 297.0000895141605 62.75050263301138 0.41846025361795974
1.5709196384846233 13.042623365153366 267.0242909887981 65.48654095567368 0.4253659489241258
1.596210958168494 13.031328055449665 240.42857886509438 68.75611590659598 0.4515665999647896
1.6209257118171039 13.018272722076963 216.83645508877515 72.00203262889796 0.47630024156833106
1.6450547083286269 13.003366562555629 195.91773473159336 75.42469943091768 0.5021614844552255
1.668536649391655 12.986452021676408 177.3000384385371 79.03646047236974 0.5292812537543071
1.6913587267577146 12.967464263221709 160.70512092688142 82.84968099537409 0.5577906422535585
1.713481336343521 12.94634803828918 145.89007517347684 86.87807106211464 0.5878353542471599
1.7348659972772438 12.923011047908872 132.6588113174191 91.13680447354162 0.6195759020302581
1.755491684817595 12.897451198693764 120.80286368666759 95.64265381938547 0.653188173311746
1.77527993108448 12.869494413321405 110.18681922757791 100.41260802610729 0.6888553201350025
1.7942172529265268 12.839131997756109 100.67134126213872 105.46759272247472 0.7267917884858374
1.8122713908518435 12.806381362444084 92.10525694806837 110.82797620636622 0.7672167919637612
1.8294015172772016 12.771185111860015 84.41590181321479 116.51807581286619 0.8103808634256006
1.845559175954066 12.733453886377374 77.48988736691902 122.56402933190614 0.8565544292679234
1.8607081676182924 12.693173336828131 71.25319566390361 128.99376597133823 0.9060306096403207
1.8747983139746678 12.650287477778866 65.63065062747471 135.8398496061651 0.9591369482089677
1.8878073550037244 12.604810016618332 60.5644768950195 143.1365532635793 1.0162267466190646
1.8996715482820872 12.556642261425276 55.98662450827605 150.92296581878605 1.0776911822672433
1.9103744766004722 12.5058327615071 51.84863352053098 159.24178919021995 1.143957931910947
1.919877032587881 12.452356063513934 48.11146585461141 168.1408073679692 1.2154976013534051
1.9281266581124488 12.396152512691106 44.732160818284875 177.6721905753758 1.2928257929318625
1.9351087233645212 12.337296331189469 41.670724897033026 187.89550843574878 1.3765118270968457
1.940776763718906 12.275700365117801 38.90610467190555 198.87601779966374 1.467180056058517
1.945105481796445 12.211433910656973 36.40209167232509 210.68702597188096 1.5655181218057865
1.9480880577573554 12.144555172342507 34.13788695485322 223.41008392174948 1.6722822625027138
1.9496862658380336 12.075055795344982 32.086165663050025 237.13685889070993 1.7883051059862367
1.9498645415791382 12.002884811368666 30.23384761396645 251.96962618177983 1.914501657717155
