M[M_sun], R[km], Lambda[1], P_c[MeV/fm^3], rho_c[fm^-3]
0.24162668629717493 15.618656898711224 2160425.4255784233 3.5677272577965504 0.1711233750220791
0.25364153122619687 15.27740628599733 1723219.8192934017 3.7847953282038094 0.17388787044207002
0.26603839946548846 14.981246073485949 1383021.6690467084 4.0113504496823875 0.17666604439668013
0.27881137611051227 14.723552750206402 1116443.489432907 4.247649468998676 0.17945660088815107
0.291963089922318 14.49852169855092 906020.1078363748 4.494317176225289 0.18226609898841528
0.30549771216312627 14.301298347740296 738708.0871807497 4.751506991496348 0.18509020218407127
0.3194117168623046 14.128240620955586 605179.7528914738 5.0199047743421845 0.18793560784540042
0.33370826475551757 13.976047582276557 497765.7389711268 5.299729640594024 0.19079884247832085
0.3483869905084014 13.842143743370825 411072.9584030877 5.591715887918999 0.1936863178940688
0.36344770258921955 13.724097269734067 340718.5525194781 5.896023605559542 0.19659296442658805
0.37889934015704846 13.620106532054026 283359.5568704808 6.213519795800057 0.19952652448677466
0.39472754670915805 13.528589925391296 236454.41882052214 6.544466964603596 0.20248326723131388
0.4109510686425523 13.447999595523672 197918.4956775481 6.889557291965643 0.2054667315067588
0.42755644743123017 13.377157188299215 166119.42148731588 7.249500261155483 0.2084800724891315
0.44454935044867605 13.315014721783152 139846.18366661711 7.624562184754858 0.21151895479528995
0.4619277632861566 13.260673974922023 118017.75433355116 8.015677324461686 0.2145893132781169
0.4796897429888971 13.21326702706772 99842.91073007401 8.423557185988479 0.2176929035605299
0.4978433929597949 13.172074343675353 84667.99762054729 8.848652637103806 0.22082733919275835
0.5163788256485426 13.136471943660174 71962.95487589997 9.291816881925246 0.2239957452380739
0.5352938037573111 13.105908199879742 61298.16460966174 9.75394375501535 0.22720117682268767
0.5545962899844675 13.07989582683203 52319.93420287367 10.235842445984986 0.23044498424348214
0.5742758489633056 13.057899109109155 44748.102504931274 10.737998057228266 0.23372404321640497
0.5943303013759962 13.039573121941475 38343.61501804863 11.26162727327336 0.23704419177571892
0.6147642796938523 13.024536567009386 32915.613647089536 11.807680409335124 0.24040721393234443
0.6355622766613853 13.012458808973411 28306.41235217755 12.377135960522928 0.24381474172106632
0.6567307628057039 13.003050309049614 24381.49387992097 12.970702045005236 0.24726494364363388
0.6782602187777711 12.996003619223401 21037.86329018742 13.589666939521154 0.2507621768278247
0.7001431377868866 12.991080856029436 18180.96935162256 14.235245929254413 0.2543092853858831
0.7223738470995462 12.987999796930223 15736.355725676447 14.90862803620396 0.25790825266585915
0.7449577820357223 12.986657890507802 13640.398947500875 15.610867104945934 0.2615592208490156
0.7678754289912124 12.986750477662419 11841.64751903089 16.34318046995567 0.2652636005238301
0.7911151779282767 12.988120196140757 10293.727484061163 17.10720652517226 0.26902631684250733
0.8146867794941035 12.990659284862055 8961.039106633112 17.90439943827425 0.27284980065401976
0.8385648510018983 12.99410861548074 7811.3853690963015 18.736152888509057 0.2767353911128541
0.8627413613217444 12.998386530671896 6818.423791823482 19.60375372809733 0.2806830585294706
0.8872122843027733 13.003323408584581 5958.864704851928 20.50931402948221 0.28469941011001015
0.9119690670825759 13.008825272602762 5214.071970009754 21.45462674495927 0.28878745686735374
0.936984338925989 13.014714549418173 4567.908484198194 22.44121195383479 0.2929474141344027
0.9622593652182329 13.020909662223632 4006.905908720576 23.47102171340767 0.29718249841388106
0.9877800971072639 13.027310192231443 3518.671471692353 24.546511731927282 0.3014990915145015
1.013518949649362 13.033756505278008 3093.979118657294 25.669666507027447 0.30589914371221993
1.039477856572481 13.040216024815525 2723.16136363418 26.8423608416817 0.3103832806275357
1.065628593040649 13.04654908342522 2399.6923062555115 28.067730724251774 0.3149605432088966
1.0919526472697931 13.052668493549568 2117.1649125973804 29.3478797738006 0.3196317175592112
1.118447049607973 13.058508445094464 1869.7988682816942 30.685463565879203 0.3244008090750001
1.1450736505575472 13.063965612886191 1653.0919756522517 32.083983477600476 0.3292765667981722
1.1718330512385111 13.06898240826454 1463.097739556273 33.54526795808254 0.33425596206934677
1.1986841530688421 13.07344092205096 1296.2940482749075 35.07391005282792 0.3393529104604035
1.2256270784957495 13.077307423008628 1149.7996215453468 36.67199666793466 0.34456456827395915
1.2526188177008153 13.080482282733039 1020.8894747469843 38.34445715868451 0.34990463561051705
1.2796575417393845 13.082926807903673 907.3470806950154 40.09363679958079 0.3553703342283399
1.3066984988372319 13.084515201042857 807.3400239875557 41.92496628313696 0.36097598918281587
1.3337320458229849 13.085234316143497 719.1352811942937 43.84183077526669 0.36672300007265046
1.3607366823192018 13.085038450561775 641.0888081292112 45.84908106574218 0.37262003397538024
1.3876656187423868 13.083784414865264 572.2209723729808 47.95196444392214 0.3786765839997007
1.414519751966507 13.081506285518067 511.2034906137568 50.15513442507538 0.38489779036420135
1.441240201001481 13.078060444819192 457.19421779713724 52.463998704457794 0.391291613504282
1.467833301856509 13.073470963220773 409.3176510122036 54.884873008196564 0.3978692396256844
1.4942400937814864 13.06761148275422 366.81467027803296 57.42394089943117 0.40463971917839114
1.520450648734647 13.060480931148593 329.08867044069706 60.08782348596365 0.4116128118315558
1.5464325147579245 13.052004630382399 295.5231577917287 62.88361880317013 0.4187990448542186
1.5721473459839928 13.04213611688936 265.6735722377155 65.81894496670233 0.4262097762602196
1.5975700898612524 13.030821718502919 239.1078475937999 68.90198747755237 0.43385726327494445
1.622658430119204 13.018021334021933 215.404880818673 72.14155110960972 0.4417547367498252
1.647408502227589 13.00369214263434 194.25048491490145 75.54711686375634 0.4499164822261562
1.67175852850144 12.9877727222881 175.36305344917486 79.12874880210482 0.4583572780541219
1.695696262824977 12.970240718227712 158.48961312131033 82.8963572205856 0.4670892416574389
1.7191596019262723 12.951009202764435 143.39677959672932 86.86279751853982 0.47613446134406034
1.7421646952669385 12.930123887623534 129.88522621430823 91.0397950116929 0.48550789889309975
1.7646463404209822 12.907492851213917 117.7710316064395 95.44110601868802 0.4952301823979074
1.7865753973173741 12.883074335938826 106.90579282852502 100.08071250471983 0.5053201083355953
1.8079155376895095 12.85683888578083 97.16257483942725 104.97495865329667 0.5158027056144641
1.8286291125027994 12.828723396852483 88.40091994988542 110.14028588716309 0.5267001865737228
1.8487121679495757 12.798778023321564 80.53013610409185 115.59435444754617 0.5380360940402946
1.8681029799956947 12.766897162547 73.44221002689575 121.35747987301771 0.5498402036006954
1.8867774625744373 12.733070056169494 67.06125466240523 127.45095531481013 0.5621418932003652
1.904704098200401 12.697276736582905 61.305233600897395 133.8973979258475 0.5749711457504182
1.9218517451221744 12.65948798251421 56.11823303387267 140.7220443174404 0.5883627432218196
1.9381722784558828 12.6196209720737 51.43320306183664 147.95274466498307 0.6023556472302269
1.9536771240582278 12.577812694821406 47.20273336072199 155.6182030290329 0.6169864038508763
1.9682990041376207 12.533906745520275 43.37335786628839 163.75171369050943 0.6323014858520332
1.9820249722768573 12.487938073702498 39.911672942042564 172.3869827347376 0.6483423331145679
1.9948206494127747 12.439886084616967 36.773116192777714 181.5635110166507 0.6651629318041822
2.006660991933507 12.389743694300762 33.93259277572404 191.32307449018518 0.6828170555978024
2.0175230606037977 12.337513141015933 31.353449175595816 201.71164047191866 0.7013638505029138
2.0273693446011554 12.283161063405641 29.014306413045414 212.77936338881543 0.7208668105840365
2.0361897742786725 12.226723020352713 26.890751246040868 224.5810953400981 0.7413943482372738
2.043945854251298 12.168160399258365 24.961577401830098 237.1784732924345 0.7630253310033471
2.0506170184744983 12.107487917964516 23.205308168682663 250.63776724574575 0.785840615543794
2.0561966878936673 12.044753075414853 21.609395979011598 265.0323166287833 0.8099293740944985
2.0606623410385088 11.979958595375367 20.156765031160194 280.44397137316554 0.8353919201798441
2.063987654081304 11.913108071937499 18.835493180983946 296.96164262215126 0.8623328499257394
2.0661561848180505 11.844228658265656 17.63150623575238 314.68585666365726 0.8908734693512457
2.0671649918901727 11.773370480629808 16.535333110784016 333.7261617241945 0.9211404977238932
