M[M_sun], R[km], Lambda[1], P_c[MeV/fm^3], rho_c[fm^-3]
0.24162668629717493 15.618656898711224 2160425.4255784233 3.5677272577965504 0.1711233750220791
0.25364552441346533 15.277229585527323 1723116.4526843752 3.7848465065008328 0.1738885083548532
0.26604237921204676 14.98121032532117 1382914.571794924 4.01145803684895 0.17666734452409444
0.27881898752996137 14.723451071139422 1116397.2296451482 4.2478171050531826 0.1794585452137612
0.2919761463356762 14.498328438619104 905816.2306977153 4.494549260248199 0.1822686832978743
0.305512486321827 14.301157853838072 738650.9008193966 4.751811404022837 0.1850934904203374
0.31943095628372126 14.128033055158754 605012.977626939 5.020283757937222 0.18793953994647317
0.3337308501192929 13.975856869951802 497577.18234182394 5.300193173087482 0.1908035094813905
0.3484142867400634 13.84186424127796 410928.87317567936 5.592265126825664 0.19369163193158118
0.36347991671208657 13.7238525893019 340609.68140899605 5.8966708905531435 0.19659904386422808
0.3789354664686353 13.619886098235131 283244.7964961377 6.214272960188151 0.19953339243912513
0.394769512802472 13.528340396516931 236362.78783370313 6.54532522659676 0.20249079302953876
0.4109965911672002 13.44776729579795 197821.7275003809 6.8905372205706055 0.20547507698996972
0.4276070730119495 13.376963445409347 166042.32995787944 7.250611052168859 0.2084892617785138
0.4446052934749411 13.31482359379122 139762.63550202144 7.625800768239552 0.2115288147162347
0.4619865780205546 13.260504783513063 117944.77537369526 8.017065304657164 0.2146000504270627
0.47975593397943295 13.213081217630792 99780.90742517245 8.425105386459311 0.217704543863726
0.497916390456952 13.17190287277959 84614.37246422311 8.850355349539273 0.22083966755830417
0.5164575157706985 13.13633025357176 71913.64377263685 9.293701662008374 0.22400901420736144
0.5353783561362939 13.105789299383018 61255.78972790015 9.756023382400926 0.22721541505258025
0.5546887415874856 13.079744569295267 52285.294715118194 10.23812626942808 0.23046016753725326
0.5743742981372483 13.057787869604134 44714.4648142032 10.740484550235053 0.23374000727172767
0.5944341734737533 13.039483582921166 38313.49513274457 11.26434962232028 0.2370612010618285
0.6148739640337766 13.024469298921982 32888.627272323116 11.81065469720768 0.2404253025650993
0.6356826899164909 13.012395264485928 28280.873120775286 12.380379273389863 0.2438339456172149
0.6568551203365808 13.002992253322322 24360.57711011953 12.974199489031157 0.2472849335994916
0.67839017566648 12.99597223267574 21019.39867960457 13.593468180130388 0.25078334111712364
0.7002820102411766 12.991052633549586 18164.09609818439 14.239371348657516 0.2543316659874861
0.7225198927099868 12.988000519953228 15722.288833016584 14.913099326231062 0.257931894061698
0.745110925720057 12.986651564333316 13627.836318443258 15.615663724197017 0.26158373798490386
0.7680346239221204 12.986751729787251 11830.688307542152 16.34836737592564 0.2652894559491695
0.7912823824084947 12.98815854729438 10284.87451217355 17.11280975062252 0.26905356343046066
0.8148604313399551 12.990676718929194 8951.597230357509 17.910446741937722 0.2728784946775
0.83874772245009 12.994150508840947 7803.827928231493 18.74261744794088 0.2767650924185905
0.8629312236357515 12.998416342746854 6810.518332254567 19.61071959989097 0.28071431000306324
0.887417145901037 13.003374638134623 5952.171818486018 20.516814741170357 0.28473227939163137
0.9121760618665402 13.008865286375897 5208.38034554391 21.462698120000923 0.28882201615791686
0.9371991279040938 13.014761784980081 4562.7975974668225 22.44982036945076 0.2929831685919828
0.9624870468302616 13.020974246704379 4002.3429787662853 23.48027520112878 0.2972200795769956
0.9880105252609104 13.027355135753947 3514.8382578055434 24.55645384824735 0.3015385868228969
1.0137576575194804 13.033818181605882 3090.43499534743 25.68025876687758 0.3059400212829357
1.0397255097583507 13.040274998947318 2719.9284358571167 26.853732739978977 0.31042624161157023
1.0658803319253132 13.046603427129291 2396.7958790497505 28.079935493828657 0.31500569395860206
1.0922174923735952 13.052731632498555 2114.5493913379505 29.36087415822313 0.31967848936453963
1.118717057204307 13.05856532399981 1867.279871450182 30.699402707667492 0.3244499803008921
1.1453517897642849 13.064021105467873 1650.9136416199244 32.098821881684515 0.32932755009308096
1.1721188688100332 13.069030721667373 1461.1722296221524 33.56117968011559 0.33430958621316537
1.1989773638808914 13.07348291087239 1294.6109305444995 35.09097019427969 0.3394093237231697
1.2259267144768697 13.077350369452214 1148.3173241233028 36.690155720916295 0.3446231465679169
1.2529275402383937 13.080515165292821 1019.6468594679882 38.36384939153573 0.3499658645057903
1.279970795837795 13.082950362125944 906.1069526307758 40.1143607942338 0.35543444734435703
1.307023878421018 13.084549287297227 806.2409178256931 41.94703304095246 0.36104270033479124
1.334057903410656 13.08524240497378 718.0887079820521 43.86548770509174 0.36679332070255366
1.361068250031039 13.085029712060763 640.202678916265 45.874278597742915 0.37269330497561237
1.3880091091015652 13.083779521565104 571.3877237725409 47.97881020576464 0.37875299570390497
1.4148536745873252 13.081456475326524 510.4882264219342 50.18392279375328 0.3849784585457806
1.441586471685193 13.078007062951178 456.5604185360032 52.4946839785831 0.3913758637702514
1.468182075312832 13.07340178117121 408.72296687992707 54.917591060819284 0.39795731073913126
1.4945940786178105 13.067526818960811 366.2721815478086 57.45883860959864 0.40473186836018094
1.5208062826251916 13.060373205394615 328.6175039708889 60.125059724128434 0.4117093162761336
1.5467915136985417 13.051876411600917 295.0827471464954 62.9233655149241 0.4189002033956361
1.5725089270731671 13.041986874148371 265.2727848297425 65.86138836578759 0.4263159112045079
1.5979221499421596 13.030641855365428 238.73923544258096 68.94732936043029 0.4339687224168432
1.6230314568382185 13.017826213999738 215.0737162710125 72.19001030538038 0.44187189559403034
1.6477732262865583 13.003465629936569 193.94551826867385 75.59893083493108 0.45003974643567707
1.6721213533393513 12.987519545148489 175.11223249615782 79.18390485537003 0.4584859564953634
1.6960570618859945 12.969958307083449 158.24391394076576 82.9553934969541 0.46722490684859225
1.7195375062631737 12.950731975582165 143.17386933632827 86.92601792492631 0.476277624459494
1.742519317139087 12.92978080952987 129.68327652691593 91.10722586297577 0.48565790771679995
1.76499969089568 12.90711602301847 117.58400590359675 95.51339690914875 0.4953888047533497
1.786910487559869 12.882634112601444 106.74159070466933 100.1579263803654 0.5054867325294092
1.8082611524105465 12.856393664507552 97.0120538032461 105.05749591192404 0.5159779736561642
1.8289635797372166 12.828232306167612 88.26744102846365 110.22866279340498 0.5268850888999229
1.8490453517023773 12.798256093039994 80.41015275823024 115.68924946848632 0.5382321144078027
1.8684176626487483 12.766301111221125 73.32687717195427 121.45914519277481 0.5500471569355375
1.8870933182767122 12.732465612373998 66.95642844751615 127.55979280939749 0.5623600647826354
1.905013367059067 12.696630393805268 61.211587411836675 134.01396932026236 0.5752012938780897
1.922150981689789 12.658793447196278 56.03193230958278 140.84725077091773 0.5886066930068014
1.938459552160379 12.618886355533755 51.35374289371124 148.0873359817252 0.6026145403243159
1.9539515569032384 12.577023065422209 47.12976516568166 155.76255943230197 0.6172599736853509
1.9685605552356158 12.533068174011012 43.30831542222685 163.90678670412763 0.6325912798965878
1.9822706587535939 12.487053890288255 39.85045220107124 172.5540460659032 0.6486507972892385
1.9950529476279844 12.438950928854286 36.71861683459624 181.74324700950436 0.6654903234073458
2.0068839230571456 12.388770588862114 33.87791096648254 191.51665033664264 0.683165049218572
2.0177236695572187 12.336475451481896 31.304707897415422 201.92034372146458 0.7017342781839798
2.0275540663563123 12.282072305874365 28.971287036424084 213.0040895989965 0.7212599556438062
2.036354872245285 12.225579899735957 26.85011378323021 224.82392457162942 0.7418140843449197
2.044090951257842 12.166963269634781 24.924392045724634 237.44058855945994 0.7634722616119441
2.050742061066436 12.10623167489283 23.170877036940382 250.92127591135252 0.7863179889193189
2.0563060499991965 12.04346034297838 21.57924248240752 265.3393461078312 0.8104400826203437
2.0607430297783376 11.978587539575383 20.12864790473761 280.7761617379333 0.8359367896946934
2.0640397738673153 11.911665499596168 18.8090692969259 297.32204477252395 0.8629167659866023
2.066187252262268 11.842736985923029 17.60792477236889 315.0773646659923 0.8915001966592866
2.0671722731573063 11.771827532202728 16.512536250712913 334.15135779725085 0.921812060956863
