M[M_sun], R[km], Lambda[1], P_c[MeV/fm^3], rho_c[fm^-3]
0.24162668629717493 15.618656898711224 2160425.4255784233 3.5677272577965504 0.1711233750220791
0.25364387168353736 15.277299884337744 1723172.9510048393 3.784817591014572 0.17388814793726623
0.2660396347141554 14.981257338586847 1383045.112200102 4.01139725037502 0.1766666099554307
0.27881455995147875 14.723532012877927 1116428.8948614437 4.247722390729378 0.1794574466703365
0.2919695673912487 14.498417299146064 905910.9921098578 4.494418132325219 0.1822672231580187
0.3055043692302192 14.301235978582012 738665.464481854 4.75163940967 0.1850916325530706
0.319420580030474 14.12814824753031 605114.1020930576 5.0200696298117755 0.18793731828452578
0.3337177567805973 13.975996406080501 497686.5653750837 5.299931273283302 0.19080087258493275
0.348398827919065 13.842044991023752 411016.5389164662 5.591954801044978 0.19368862944428536
0.36346076370962704 13.724009901485033 340658.31204231904 5.896305166310548 0.19659560890474612
0.37891442948245907 13.620012682460542 283312.80007225694 6.213847411140161 0.19952951194420188
0.3947462113189209 13.528461099582007 236404.30768007587 6.544840294175388 0.20248654082731493
0.41097106787914695 13.447881322160216 197869.69249656485 6.889983542428582 0.20547036163457025
0.4275786258858134 13.377074805371814 166089.475615352 7.249983431994733 0.20848406963765853
0.4445730106116919 13.314945322537058 139801.44081038903 7.625100940344409 0.21152324363620148
0.46195476884640907 13.260576310386067 117983.1230918024 8.016281061384886 0.21459398367131818
0.4797186192903718 13.213162412183532 99817.74850996335 8.424230611610163 0.2176979667797732
0.4978747463423836 13.17199993662339 84647.6072026765 8.849393268242375 0.22083270167864893
0.5164133729706336 13.136413989402227 71941.85889755854 9.2926367034998 0.22400151683306865
0.5353295840126457 13.105872288947838 61278.88514998329 9.754848325042042 0.22720736998790722
0.5546366799171173 13.079840221354088 52303.090797156605 10.236837660182228 0.23045161198180147
0.5743195120910549 13.057859085748985 44733.21761336433 10.739079591314809 0.2337309870002579
0.5943752767292806 13.039529200565083 38330.4870660767 11.262811390792029 0.2370515901634037
0.6148121391183857 13.024513913258634 32904.522310845095 11.808974104725532 0.2404150817588012
0.6356168308193234 13.01245736264022 28297.843234665328 12.378546664557597 0.24382309460433402
0.656784601206293 13.003023617133415 24371.961841547032 12.97222327955818 0.2472736383965269
0.6783160938538844 12.995980154597678 21029.328051187982 13.591320304791537 0.25077138232268714
0.7002041049477793 12.99105859788731 18173.7821340103 14.23704028933024 0.2543190198768682
0.7224366876967129 12.988006930569668 15731.123175915105 14.91057282466636 0.25791853549555344
0.7450238360932219 12.986646161450604 13634.53444247005 15.612953387616862 0.2615698845421434
0.7679449154059073 12.986758642494356 11837.313379714136 16.345436497079437 0.2652748462532109
0.791188339965807 12.988137650938292 10289.685330522605 17.10964361799084 0.26903816759961524
0.8147609415532225 12.990662274034316 8956.862545107444 17.907029668560202 0.27286228090865616
0.8386442545603219 12.99411962263123 7808.205366958606 18.738964590670022 0.27674830942947
0.8628239149990169 12.998391923397882 6815.154983743859 19.60678345771987 0.2806966510155365
0.8872993462404748 13.003340554039163 5955.858395706366 20.512576366859033 0.28471370617822883
0.912059923855479 13.008841616228151 5211.656706921555 21.458137268734237 0.2888024879135561
0.9370783141939624 13.014735445931517 4565.710729246613 22.444956041325824 0.29296296494228025
0.9623558805636271 13.020933418300826 4005.071028271023 23.475046345500513 0.2971988436406448
0.9878809511550717 13.027326525274452 3516.904345052274 24.550835849842287 0.3015162691822227
1.0136221765587572 13.033782922572263 3092.056008070201 25.67427337386908 0.3059169224985943
1.03958600906233 13.040241841894366 2721.6983461536347 26.847306771235502 0.3104019654587787
1.0657359946654674 13.046565435870294 2398.5671384140906 28.073038865249952 0.3149801803306055
1.0920664006731764 13.052704834852273 2115.8481148575006 29.35353131477372 0.3196520596366506
1.118563835218675 13.058534541818565 1868.7845858667813 30.691525972666682 0.32442219460777705
1.1451948294635428 13.063985927895695 1652.265764902303 32.0904369655085 0.3292987403469812
1.1719569418299285 13.068999821684178 1462.24229494736 33.552188216535654 0.3342792840538423
1.1988118873375853 13.073463132396933 1295.5836273024809 35.081329739335985 0.3393774453522041
1.2257576728775526 13.077324316755655 1149.193319941562 36.679894253249884 0.34459004466166615
1.2527525861372326 13.080489486666483 1020.2857546183546 38.35292349687473 0.3499314551138978
1.279793568592108 13.082930663322022 906.8068737042291 40.102649822881915 0.35539821751137707
1.3068370745382598 13.084523923259795 806.8628023150575 41.93456324280218 0.36100500224581683
1.3338734622742925 13.085239955690664 718.6638337217188 43.85211925423329 0.36675358275294867
1.3608808516025634 13.085037797947187 640.6733090710051 45.86003950870836 0.37265189963893397
1.3878115858220328 13.083779899023122 571.8686155875085 47.96363965113388 0.37870981540826426
1.4146678037441387 13.081486373606397 510.88066912122844 50.1676544001242 0.3849328727140179
1.4413909938913654 13.078037132650257 456.9376797064349 52.47734357472605 0.3913282535181478
1.4679854557662444 13.07344305329116 409.05574030942154 54.89910185470641 0.39790754112148663
1.4943938599280278 13.067577536775422 366.58167682588095 57.43911758842282 0.4046797939989495
1.5206056169550977 13.060432368635341 328.86816054297964 60.10401709728769 0.4116547805035688
1.5465880551431321 13.05194932885992 295.322334940021 62.90090410142006 0.41884303731250677
1.5723040868933922 13.042073610374784 265.4973383749822 65.83740291984854 0.42625593264427625
1.5977284106793697 13.030747775328999 238.95000669123755 68.92170582841489 0.4339057348056198
1.62281484823975 13.017929863146255 215.26244592653063 72.16262500616378 0.44180568669490594
1.6475672281375449 13.003591768303316 194.1272505270555 75.56964955500968 0.44997008696466106
1.6719174251288187 12.987659693274232 175.25909379418374 79.15273477144102 0.45841323704616593
1.6958535506226258 12.970117069450282 158.3861618678207 82.92203044820823 0.4671482386597432
1.7193340057871753 12.95090858510817 143.29925375747462 86.89029014021604 0.47619671860552976
1.742319882797659 12.929969885997908 129.7938289527432 91.06911847189107 0.485573132798463
1.764800083858987 12.907328435036229 117.69403449092474 95.47254274901853 0.4952991616037333
1.786727064069155 12.882893071823345 106.83364765395821 100.11428987643686 0.5053925668470476
1.8080664396300536 12.85664377057122 97.09720550355553 105.01085075228953 0.5158789225619081
1.8287778486891113 12.82851406874138 88.34162484321232 110.1787621245313 0.5267807598752733
1.848857994105223 12.798553045765894 80.47439620197886 115.63561989377165 0.5381213342125857
1.8682452019440867 12.766649784555849 73.39207012934344 121.4016891251077 0.5499301974370672
1.8869162444618777 12.73280464495949 67.01904090475213 127.4983565344413 0.5622370270699439
1.9048385138971495 12.696995971369386 61.26427268710438 133.94808845830144 0.5750712246007529
1.9219822597500593 12.659184219601942 56.08237868041487 140.77648938064138 0.5884688229093462
1.938297913313937 12.619301682844196 51.399579087452814 148.01127023680093 0.6024682240794473
1.9537953139877835 12.57746526656437 47.16788275226356 155.68097442025663 0.6171053619207502
1.9684137983924768 12.533544244128462 43.344665615031886 163.81918793995175 0.6324276446771108
1.9821310780053774 12.487549830323639 39.8850994076123 172.45962682785722 0.6484764624897725
1.994921064806687 12.439482603519073 36.74952730975577 181.64166496974255 0.6653052903134049
2.0067609299952274 12.389327288443926 33.90895788486418 191.40724571785523 0.6829683712232668
2.0176094354023486 12.337062558515472 31.332428457572533 201.80238870486383 0.7015249196648164
2.02744905937452 12.282682988129057 28.994965478271478 212.8770779615047 0.7210377563828791
2.036261443851247 12.226225512955537 26.873246133366383 224.68668047376661 0.7415768546544453
2.0440097963802355 12.167639129576642 24.945966269732534 237.29244327323525 0.7632196602900733
2.050672307079868 12.106941941736514 23.191121885977886 250.76115892321837 0.7860485730153267
2.056248066488971 12.044204042321477 21.596552452373917 265.165869513556 0.8101516138540193
2.060698470884401 11.979365278782554 20.144848560790052 280.58840665409843 0.8356288276575913
2.0640075159572526 11.912472235814446 18.82441683110486 297.11834274633844 0.8625867322046257
2.066171313026739 11.843582952069951 17.620904636622104 314.85607962830994 0.8911459628373742
2.0671685861451006 11.772700051209357 16.52562470347439 333.91102998519085 0.9214324823749643
