M[M_sun], R[km], Lambda[1], P_c[MeV/fm^3], rho_c[fm^-3]
0.24162668629717493 15.618656898711224 2160425.4255784233 3.5677272577965504 0.1711233750220791
0.2536442158239442 15.277263328983 1723220.4655109446 3.7848225083939977 0.17388820923002857
0.2660403480762696 14.981235922119428 1382916.9870421072 4.011407587701158 0.17666673487591641
0.2788158527537582 14.723482377922247 1116387.266580818 4.2477384977436135 0.17945763348742888
0.2919702648948539 14.498420464728305 905891.7207388929 4.494440431701864 0.18226747146675304
0.3055056872928423 14.301204478721797 738620.5951513264 4.7516686585919485 0.18509194849725005
0.3194216441955899 14.128147892584886 605104.420488557 5.020106043748035 0.187937696093169
0.33372035514846565 13.975967117116053 497665.38366146927 5.299975810930262 0.1908013210051363
0.34840147628011103 13.842023636517307 411004.43849685247 5.592007573616398 0.19368914003343107
0.36346265351461254 13.72404494532798 340625.3720422836 5.896367359434579 0.19659619303572848
0.378917583348563 13.619999448272091 283305.94066724443 6.213919777459336 0.19953017183789803
0.3947495988321188 13.528468814166398 236413.60651010228 6.544922758569133 0.20248726392864413
0.4109749738882689 13.447873282216932 197859.1595105937 6.8900776968892075 0.2054711634934673
0.4275835804148917 13.377052863919511 166082.24497133464 7.25009016007496 0.20848495257171418
0.44457844692631887 13.314923961719426 139801.76829450985 7.625219947072073 0.21152419100627476
0.4619600866570265 13.260565214252042 117980.95131544479 8.01641442254839 0.21459501532773576
0.47972468682353764 13.213148331483238 99804.28350963104 8.424379367160755 0.21769908521355721
0.49788259871787044 13.17197657665856 84639.68285308649 8.849556869706243 0.22083388622314884
0.5164197995602431 13.136406133787318 71936.70109525195 9.292817798492054 0.22400279175310409
0.5353383677052581 13.105867572788506 61272.51615981016 9.755048141458131 0.22720873803686076
0.5546440235152865 13.079835766683487 52299.47826255898 10.23705750053077 0.23045307603276274
0.5743278214100204 13.05784331947884 44727.73673396512 10.7393185003956 0.23373252087056134
0.5943856905499734 13.039519918945327 38328.57263742899 11.263072961497897 0.23705322446190744
0.6148227336321359 13.024500204730396 32901.29934765403 11.809259882321594 0.24041681976339466
0.6356266125515836 13.012456458884126 28059.743208170457 12.378858290715383 0.24382493976593786
0.6567970138767009 13.003029188344366 24370.57226269337 12.972559323239047 0.24727555908440554
0.6783305500778215 12.995966087611304 21027.389485141142 13.591685537953344 0.25077341584308027
0.700217138028208 12.991063047747549 18171.98864276302 14.23743667033272 0.25432117026315204
0.7224509441213565 12.988009405637584 15729.24652401918 14.911002437699201 0.2579208070216019
0.7450396114148704 12.98665305718457 13537.543406042905 15.613414259013657 0.26157224021101577
0.7679603728281451 12.986758883082521 11836.444136818354 16.34593486808289 0.2652773305076674
0.7912050507073224 12.988136513658178 10288.652553964688 17.110181989872732 0.26904078551976884
0.8147797178038352 12.990659438770363 8956.238654456154 17.907610708425814 0.27286503790127214
0.8386611976643691 12.994128494241775 7807.44305896861 18.7395857213609 0.2767511632036129
0.8628415332962303 12.99840927164315 6814.526411973028 19.60745275554509 0.28069965373277417
0.887322534052023 13.003358806282387 5955.251997322333 20.51329705319664 0.2847168643375044
0.9120794672905105 13.008842165804472 5211.229324992749 21.458912785557285 0.2888058084520128
0.9370989472668816 13.014743730677207 4565.144696816164 22.445783158091892 0.29296640031443766
0.9623826917615083 13.02094434023017 4004.49640005877 23.47593544205752 0.29720245452593913
0.9879024386174315 13.027330820062122 3516.5307894687558 24.55179111116103 0.3015200639819582
1.0136449286277303 13.03378880158891 3091.810940214933 25.675291102234308 0.3059208501083591
1.039609439700518 13.040249110422607 2721.4570242649247 26.848399408717935 0.31040609324643653
1.0657605796037781 13.046571563740743 2398.27447199303 28.07421152653164 0.3149845185145987
1.092092165429302 13.05270013365248 2115.76870518304 29.35477984370415 0.3196565535741995
1.1185844549921935 13.058552326592494 1868.4005358234542 30.692865275559093 0.3244269190855147
1.1452222012403064 13.063995902938313 1652.0819314562245 32.09186267112484 0.3293036389310526
1.1719848416200116 13.069008028438082 1462.0400696426273 33.55371704837573 0.3342844363747725
1.1988409391457477 13.073462646532505 1295.4185113266608 35.08296891323684 0.3393828656559132
1.2257857250029025 13.077331877919825 1149.043587736738 36.68163901242255 0.34459567298467425
1.2527816918311663 13.080492687930127 1020.1538936494982 38.35478268741727 0.34993731432371494
1.2798239636184503 13.082939599008153 906.688054089256 40.10464102579235 0.355404377627964
1.3068677771880675 13.084526111216416 806.7211346715816 41.93668346053273 0.36101141198522785
1.3339051972102494 13.08523288165092 718.5673444625849 43.85439225809423 0.36676033929593443
1.360914633959911 13.085031401517945 640.6300053649604 45.862460535970534 0.37265893965734065
1.3878440070986595 13.083772881542382 571.7961925628746 47.966219042774455 0.37871715718951904
1.4147012885170083 13.08148277765269 510.80280667140477 50.17042044016501 0.38494062346303615
1.4414237551273288 13.078031040214935 456.8723486606377 52.48029187212959 0.3913363484381864
1.4680188037003579 13.07343571012592 409.008961944584 54.90224546427803 0.39791600315308756
1.4944275017523958 13.067569209235913 366.52224739634806 57.44247062242788 0.40468864785608216
1.5206397683122015 13.060424260319806 328.83203398972597 60.107594820129044 0.4116640528192665
1.5466230511061545 13.051938817828978 295.2861895754861 62.90472303376321 0.4188527567989387
1.5723395197810106 13.042056598323859 265.4588557072794 65.84148095324528 0.42626613026879967
1.5977632971629436 13.03073074642617 238.9147931629772 68.92606235160649 0.43391644398454615
1.6228499375973424 13.017909028549042 215.2373579574969 72.16728104438883 0.44181694350691747
1.6476028363469715 13.003569698310928 194.09269128320832 75.5746279238048 0.44998193038604567
1.6719509533914385 12.987635026547698 175.23319635083206 79.15803425125793 0.4584256006719488
1.6958876384589394 12.970088316357952 158.35437069691946 82.92770274389373 0.46716127357870807
1.7193685657348075 12.950878325085899 143.27568818958014 86.89636445127903 0.47621047393146954
1.7423508184179792 12.929937297429746 129.77827405821895 91.07559732671663 0.4855875458656691
1.7648340340076447 12.907291315195403 117.67683736211185 95.47948856083369 0.49531440226578016
1.7867608271373832 12.882857161538531 106.81711154983631 100.12170869316007 0.50540857633168
1.808099436504071 12.856601691061257 97.08365681749342 105.01878104427351 0.5158957625535587
1.8288096446877118 12.828468330795138 88.330452430163 110.18724585362419 0.5267984970960687
1.848889507897365 12.79850401548643 80.46343356212437 115.64473752912747 0.5381401681009768
1.8682666604432039 12.766565261459867 73.38595355743658 121.41145725567694 0.5499500817712856
1.8869456029266232 12.732747061997793 67.00668260927385 127.508830002316 0.5622580472363993
1.9048681958450553 12.69693438764458 61.254735156036425 133.95928877455788 0.5750933375027104
1.922011241827223 12.659118202649786 56.07376146490497 140.788519358357 0.5884922618807056
1.938324730731307 12.619230988157963 51.390434347771944 148.02420191709288 0.6024930988098801
1.9538204183731704 12.57739167191329 47.159424983810986 155.6948443350534 0.6171316467976881
1.9684388648554096 12.533463405564888 43.33809253651381 163.8340801402146 0.6324554634309646
1.9821549437181023 12.487464545676179 39.87863599798309 172.47567843352655 0.6485061000245946
1.9949456077936147 12.43939169801883 36.745639443784235 181.65893416906732 0.665336746399426
2.0067822612481128 12.389233446373447 33.90200426837325 191.42584465421902 0.6830018067542287
2.0176297760741138 12.33696164505415 31.327621100525302 201.82244108546698 0.7015605106623828
2.02746647317217 12.282579128171424 28.99179697382544 212.8986698313004 0.7210755300672862
2.036277892363333 12.226116185590838 26.869864978346424 224.71001168363307 0.7416171832061368
2.0440230113718454 12.16752442551166 24.94150176858712 237.31762748665653 0.7632626016874178
2.050684627773716 12.10682014491103 23.18749157379046 250.7883780887653 0.786094372503421
2.0562574820902477 12.044077395926807 21.59304944120626 265.19538152048824 0.8102007235481661
2.0607053152032457 11.979230562109024 20.141947890067712 280.6203236776919 0.8356811790049067
2.064012088475871 11.91233791823016 18.8206455339771 297.1529703522837 0.86264283513087
2.0661744119676704 11.843439921999172 17.618121870132075 314.893695875546 0.8912061790506527
2.067168430534052 11.77255179877305 16.52402808214982 333.9518829708311 0.9214970064024697
