M[M_sun], R[km], Lambda[1], P_c[MeV/fm^3], rho_c[fm^-3]
0.24162668629717493 15.618656898711224 2160425.4255784233 3.5677272577965504 0.1711233750220791
0.25363057835928776 15.277635794603041 1723734.285683398 3.784580184444382 0.17388518877889755
0.266012703799894 14.981838404709999 1383665.8326269984 4.010898196415258 0.1766605791828485
0.2787730239348243 14.724286463560464 1117133.3736232484 4.246944828284504 0.17944842811773756
0.29191132753650206 14.499326235409105 906688.7571128056 4.493341681020893 0.1822552366229137
0.30543124341860173 14.302200366823016 739473.6723062494 4.75022754620205 0.1850763817330348
0.31932959452064613 14.129174507851037 605846.4006410633 5.018311978741763 0.1879190819762834
0.3336073221016577 13.977084416519556 498435.31163648644 5.297781592622666 0.1907792288676454
0.3482712404940215 13.84312899539192 411676.6391584497 5.589407748969518 0.1936639860147854
0.3633141491947881 13.725101398419099 341275.2995746567 5.893303558087369 0.19656741716510598
0.3787462309712778 13.621071437502168 283873.41288131755 6.210354960179869 0.19949766499662872
0.3945574150414223 13.529464725672117 236896.69450295935 6.540860651799066 0.2024516447399081
0.41075947978994015 13.448852744112994 198318.98837490927 6.885439932649434 0.20543166634703916
0.4273434233882047 13.378026971394277 166496.46402827196 7.24483326302364 0.2084414636096359
0.44431606243998395 13.315797055935768 140169.13561250977 7.619358469964392 0.2114775298795802
0.46167143556929596 13.261397030596767 118309.16436470143 8.00984619450771 0.21454420477365682
0.4794094981242607 13.21392438602704 100104.0153989017 8.417053224177492 0.21764400286008315
0.4975411631166939 13.172685769229627 84899.20818502664 8.841499843467227 0.22077554991067594
0.5160491174768284 13.13704400654686 72174.41555219963 9.283899590037592 0.22394000700959918
0.5349406806926468 13.106433743374668 61480.18837689211 9.745208348037956 0.2271413696026001
0.5542184741882825 13.080333160309147 52480.66252791529 10.226232051958144 0.23038098276829025
0.5738694466446446 13.058289281563729 44889.58538994114 10.727554442710193 0.23365699197617204
0.593901113353405 13.039932426023228 38132.48936169539 11.250193508401033 0.23697275340588778
0.6143011023769487 13.024851788178022 33027.24413233055 11.795189031939234 0.24033124551637441
0.6350726030762988 13.012705810028104 28404.422287516274 12.363515303173681 0.2437340927982082
0.6562073045343468 13.003242563620061 24471.150795859157 12.956014650404706 0.24718099651894684
0.6777121809595503 12.996144888273898 21117.444181807576 13.57370442421016 0.25067330181918684
0.699565100268158 12.991185709897053 18250.97358499274 14.217922812425654 0.25421530663163205
0.7217638586489474 12.98807242364931 15798.651531719015 14.88985334922991 0.2578089838186556
0.7443163616269036 12.986666057415 13695.582389798887 15.590727072566143 0.2614562783629016
0.7672013217296578 12.986723548478919 11891.00742827247 16.321402608673093 0.2651550433474127
0.7904127807967248 12.988079117299502 10338.08541333604 17.08368167704731 0.2689119234722577
0.8139437810550145 12.990545496508128 9000.226356780011 17.87901121417746 0.27272933534602556
0.8377930401018922 12.993995327340258 7846.396271592284 18.708915696282666 0.27660983099319003
0.8619400096318569 12.998243661846034 6848.994619330755 19.574511336906742 0.2805518663624095
0.8863733624227124 13.003145706786356 5986.186794771065 20.47782773864339 0.2845614323015279
0.9110959812252023 13.008616608851437 5238.5180733473835 21.420746380392654 0.2886423909575922
0.9360820318877489 13.014505120156471 4589.438750767646 22.40507855766471 0.2927973365779481
0.9613190395484263 13.02068574024049 4026.1012587922164 23.432182329099458 0.2970247601338999
0.986807605160358 13.027061374227852 3536.020214057371 24.504783795465954 0.3013333262321222
1.012514669213193 13.033504353455328 3109.5303312154806 25.625102536134136 0.30572678235060874
1.0384333555587755 13.039952166375738 2737.1114207019286 26.794635755459673 0.31020298384562345
1.0645564289143998 13.046302206902938 2412.08071862507 28.01651255199242 0.31477106491834106
1.0908471077293385 13.052413244573023 2128.0983414035372 29.293349886863485 0.3194354434477588
1.117309538258311 13.058272684277094 1879.660709803142 30.62697172221614 0.32419447530630163
1.1439070702029246 13.06373439792661 1662.0170555876064 32.021305185633494 0.3290599500047909
1.1706334121642463 13.068762653501858 1471.081331821129 33.478504241002206 0.3340309614591587
1.1974537211658796 13.073245792016946 1303.4633164602367 35.00233104307381 0.33911621808026005
1.2243670213436264 13.077147234854998 1156.2358382944415 36.595809871514014 0.34431880146216876
1.2513309870835838 13.08033596281823 1026.730594384898 38.26278717042348 0.3496459229915476
1.27834307419994 13.082819907428371 912.5464478761313 40.00669628755648 0.35510136932908515
1.305358466886501 13.084458469449595 811.9908634882999 41.832268154231535 0.3606954180307365
1.332372415699662 13.085248001345425 723.3134219364566 43.74259501725524 0.3664280200788856
1.3593467103657497 13.085074725136863 644.9402896754951 45.74338716851125 0.37231269047966337
1.3862542361967682 13.083877437938144 575.6545786260011 47.839177192324605 0.37835511524833404
1.4130772563197933 13.081635528264998 514.2725771079376 50.0343897099638 0.384559450366116
1.4397945206646132 13.078294705795876 459.9743746436774 52.33530356481054 0.3909382648687126
1.466358608199543 13.073748770398767 411.84818701951184 54.74765842807726 0.39749988265350733
1.4927542501000552 13.067979238169446 369.0795736300177 57.27759181274066 0.4042532769582711
1.518951505953034 13.060928994929284 331.1465479442537 59.931674657522045 0.41120812390648803
1.544921944917915 13.052540085652083 297.37741012920776 62.71695029921425 0.41837486026091725
1.5706292438975966 13.042762484279208 267.3483175664655 65.64097716912339 0.42576474587414675
1.5960440966760179 13.031544588488202 240.6057253026429 68.71187559063695 0.43338993138585213
1.6211384207977464 13.018849478795032 216.76272956845037 71.93837910176512 0.44126353178376326
1.6458788695111604 13.004623858480493 195.49931228753795 75.32989077956739 0.4493997065197629
1.6702272190781755 12.988810563995008 176.4942695673062 78.89654510353532 0.4578137469553597
1.6941685570348073 12.971416287850593 159.52714112481405 82.64887666577017 0.46652053206325345
1.7176621314987524 12.952350168863578 144.32460839490957 86.59779187965094 0.4755343539572321
1.7406674354024307 12.93158022857491 130.72885594031555 90.757009088945 0.4848785519975137
1.7631487276889832 12.909054149609899 118.54493948719725 95.13811153790928 0.49456534485169884
1.785099421092466 12.884797576545653 107.60970172979371 99.75710097982346 0.5046217687043575
1.8064515885913337 12.858689955719619 97.801674271994 104.62840101259675 0.5150657060830842
1.8272079225012965 12.830777941885605 88.98541196661589 109.768802033669 0.5259211260781825
1.8472987446300806 12.800943482048867 81.06467822885 115.19670863872932 0.5372146950162984
1.8667305906818832 12.769254749298131 73.92898799019702 120.93148906523196 0.5489730424242589
1.8854288377355364 12.735575081023857 67.50577014332609 126.99423216417412 0.5612252534812966
1.9034047046027236 12.699987944831419 61.710721426622165 133.40792201721376 0.5740030805971035
1.9205883194579159 12.662361871548516 56.4927210615378 140.1975080110277 0.5873407470258516
1.9369790149314872 12.622776036828853 51.777029759032345 147.38892949971176 0.6012711207082739
1.9525254723262095 12.581128750243565 47.51124349430222 155.01316906024653 0.6158392715385866
1.9671945065783696 12.537400368299423 43.65801302536261 163.1006062395384 0.6310823301038094
1.9809791103928776 12.491647466439321 40.171166902370615 171.68727940366162 0.6470504074177157
1.9938473326968407 12.44383885538624 37.011095978776794 180.8107835602432 0.6637918283051788
2.0057426998170085 12.393874954465069 34.15053477683548 190.5124445967939 0.6813597765164094
2.016667395884321 12.341843617778622 31.556530003815393 200.83772741792558 0.6998127410364905
2.0265954382369893 12.287735240568795 29.20108576106782 211.83669462547203 0.7192150225364626
2.0354834847378562 12.23150997790812 27.059639671782577 223.56443894438146 0.7396370334541214
2.0433317434067475 12.173202879111482 25.11692865113115 236.07955781539582 0.761149090615031
2.0500948240643355 12.112783959937467 23.349035702215502 249.44950390341302 0.7838374721423617
2.055757831419087 12.050265139372733 21.74203987416043 263.7466483467184 0.8077899473773897
2.0603105744452366 11.985701566151931 20.2799464351718 279.05114991895726 0.8331033081616923
2.0637383313637985 11.91911231975428 18.94772543546632 295.45197643494254 0.8598846001129024
2.0660087712110404 11.850475026602943 17.734458417437967 313.0475675435017 0.8882508906965467
2.067128668154796 11.779882722570465 16.629765047025867 331.94613992339345 0.9183274815761779
