M[M_sun], R[km], Lambda[1], P_c[MeV/fm^3], rho_c[fm^-3]
0.24162668629717493 15.618656898711224 2160425.4255784233 3.5677272577965504 0.1711233750220791
0.2536264177522606 15.27773196296544 1723693.757624055 3.784507713198384 0.17388428545977747
0.2660033877492987 14.982106396848305 1383971.3772255837 4.010745862966572 0.17665873832302217
0.2787604709473531 14.72452454928193 1117427.547572835 4.24670749498387 0.17944567540910386
0.29189421021937456 14.499547313865461 906970.6989498163 4.493013136639188 0.18225157820497226
0.30540794918011377 14.302520684587423 739786.8490845149 4.749796654352479 0.18507172727868998
0.3193026670350296 14.129491075670389 606068.2940559455 5.0177755828103106 0.18791351666146477
0.33357645444502976 13.97738277502468 498691.1231375024 5.2971255934536465 0.19077262404451284
0.348231940894647 13.8434645439758 411891.3188656269 5.588630526622298 0.19365646617476953
0.3632685114461503 13.725408897387673 341474.3352338705 5.892387678191509 0.1965588150273032
0.37869487528846 13.62139098992271 280103.8794287944 6.209289365431878 0.19948794805558664
0.3944992189702534 13.529803883098012 237081.78560562572 6.539646466387806 0.20244099797413548
0.410694385417573 13.449187976983197 198459.78586357716 6.884053752510081 0.2054198610552845
0.42727192519226304 13.378282043995796 166617.30763946695 7.243262111968408 0.20842846587960748
0.4442354193964271 13.316112743180504 140277.75952452433 7.61760670689724 0.21146358471918575
0.46158513716170996 13.261649627451641 118394.88989639787 8.0078833117887 0.21452902028890275
0.4793167494510776 13.214183824964653 100192.37032030789 8.414863953513539 0.21762754260523448
0.49743817383989575 13.172908093115458 84974.7707082334 8.83909227049391 0.22075811805367232
0.5159380560067534 13.137250040231876 72236.94043001399 9.281234815116242 0.22392124682802353
0.5348224232756738 13.106602775056984 61541.07171723652 9.74226834895981 0.2271212408126789
0.5540904679891004 13.080494939388005 52532.6314509147 10.222997713435266 0.23035944333544742
0.5737319077465552 13.05845251944291 44937.711066274525 10.724039824627772 0.23363442703939047
0.5937545321644249 13.04005471859526 38509.80019211967 11.246345845905312 0.23694871314098606
0.6141478354465241 13.02495953562037 33065.38291672688 11.790985653678273 0.240305681963366
0.6349069232563517 13.012792631498076 28437.537001371373 12.358932125886081 0.24370695546540297
0.6560330439915041 13.003290574539554 24501.753031527332 12.95107271684457 0.24715275045325233
0.6775261454452626 12.996198757837886 21143.629242495386 13.568333685786087 0.2506433989865485
0.6993698550142032 12.991216143082013 18273.788854958773 14.212094548274267 0.2541836880141623
0.7215600200750582 12.988083499336438 15819.573285288387 14.883536996288095 0.25777558687968494
0.744099710552891 12.986683298812952 13714.458589768761 15.583903568842437 0.261421170336099
0.7669736974432637 12.986720654651421 11907.158653267144 16.31407650162101 0.26511852454120916
0.7901770653118054 12.988053070281326 10352.661331502779 17.075768237450475 0.2688734430952137
0.8136949446123505 12.990504592337295 9013.148781983475 17.870471346392474 0.2726888142840156
0.8375316585163634 12.993957723059562 7857.03041063962 18.699707697045984 0.2765671849770277
0.8616692714193946 12.998188223216818 6859.1873098910955 19.564675848826198 0.2805077407303098
0.8860912240564077 13.00308989834807 5995.329971372051 20.46723801340826 0.2845150264835847
0.9108034063310717 13.008550798820288 5246.322982073721 21.409351984543886 0.28859360345423657
0.9357791519773266 13.01441773703502 4597.280193422538 22.392897650791618 0.29274663267691114
0.961003658460838 13.02060011151777 4032.7761260728307 23.419121245479506 0.2969717151924932
0.98647998180999 13.026982397261934 3541.830739301665 24.49075199301673 0.3012775845422008
1.0121733704987197 13.033435085887144 3114.635626530258 25.610034383855652 0.3056682124512176
1.0380842588415078 13.03986361777895 2741.681571283551 26.77858866806778 0.3101423608390486
1.0641966568763155 13.04620408245428 2416.2645228052634 27.99929177394094 0.3147073577721604
1.0904765324345462 13.052330192583403 2131.9321555748033 29.274999360630595 0.31936933828427166
1.1169263673914576 13.058191996772546 1882.9151747282347 30.607307083557483 0.32412510701919645
1.1435118903883301 13.063664275265635 1664.9140577453934 32.000217469714116 0.32898702047981826
1.170228695614978 13.068694071343737 1473.8327756422584 33.45606065011221 0.3339553242438284
1.1970395216755068 13.073178912358115 1305.9298812979325 34.97826993443101 0.33903665451695963
1.2239447007949116 13.077089200826833 1158.3840187374853 36.570200920082655 0.3442361909490317
1.250897158797705 13.080296497915947 1028.659430039352 38.23533655063377 0.349558965445828
1.2778995071634975 13.082788935565992 914.361588494583 39.97747539610186 0.35501096965299367
1.3049046920639655 13.084434371676439 813.5570091663762 41.800946573952835 0.36060018624456835
1.331911663378297 13.085241195401611 724.7203518537523 43.70924489465273 0.36632888626709764
1.3588778782230693 13.085082450438373 646.1805859297892 45.70786824291033 0.37220940626889726
1.385782959642713 13.083924605288665 576.7417944832123 47.80109724965667 0.3782461523295597
1.4126013627487177 13.081701645311803 515.3432973197853 49.99381700685214 0.3844457611807929
1.4393054459986867 13.078369144535845 460.92807434874453 52.29206139221815 0.3908195380642159
1.4658625712443234 13.07384323049101 412.6896897929555 54.70155589878815 0.3973757829360201
1.492253995024154 13.068107491247192 369.8621197789381 57.22842260611059 0.4041234431629168
1.5184412145917592 13.061067333401924 331.8300918391215 59.8792156405427 0.4110721668778997
1.5444086251346631 13.05271835089819 298.02517273718723 62.660882927014 0.4182320055569348
1.570112857611252 13.042968694145607 267.9186734328733 65.58119414919145 0.4256152510733859
1.5955313387139582 13.031787675731847 241.1212938460237 68.64801654479014 0.43323295346608376
1.6206224500289996 13.019128524231851 217.22512257861712 71.8701368718024 0.4410985438870129
1.6453634357149924 13.00494018334795 195.91738183265906 75.25693210615474 0.44922613956471186
1.6697105175234848 12.989175579776807 176.8943902888831 78.81850815358106 0.4576309858649796
1.693659250640071 12.971812594565012 159.86308640364342 82.5657654513717 0.46632954273462485
1.7171506440982554 12.952780514282548 144.64005316222358 86.50880060520579 0.47533283250515385
1.7401609175460586 12.93206154685177 131.02365178549655 90.66167386371073 0.4846657220810561
1.7626397809956855 12.909573651709985 118.80369832958834 95.03637508207957 0.49434211235096176
1.7846028310464863 12.885376041009744 107.85585948446024 99.64844802298693 0.5043873003372793
1.805970852105858 12.859341238001432 98.02179129022774 104.51179571701893 0.51481730716302
1.826725330065421 12.83146037589613 89.18355232007609 109.64409166419371 0.5256595886753356
1.8468252150604596 12.80167881048741 81.24194760654036 115.06322369618618 0.5369389611871167
1.8662664069728974 12.770048567986757 74.09690435208886 120.78849814458857 0.5486819653101556
1.8849769952245625 12.73642472195863 67.6563171946041 126.8409354944399 0.5609175882883156
1.9029664544284117 12.700902005479533 61.85281141795846 133.2434442436424 0.5736774745620921
1.9201713706199703 12.663362222379465 56.61697249372717 140.02101399414622 0.5869961607443483
1.9365631636724274 12.623790600874042 51.88958956187439 147.19972621224895 0.6009071787713887
1.9521339480460658 12.582233258261523 47.61624764152303 154.8096448223053 0.615452627518705
1.9668215252375465 12.538576132181383 43.75540689815006 162.88214116552575 0.6306732686649157
1.9806170878728309 12.492860108361919 40.25903399585318 171.4525259464484 0.6466169608263834
1.9935139479999109 12.445148693877849 37.09286755151207 180.55823242876636 0.6633317624467874
2.005431215109011 12.395264095498117 34.22398103875271 190.2404826024312 0.6808708161500485
2.016391488961611 12.34334484995924 31.62425207492129 200.5445942412186 0.6992924585630391
2.0263259316309825 12.289256851766812 29.264055506594563 211.52036790108122 0.7186605000391812
2.035249221976325 12.233122949620963 27.117187675623523 223.22280387593048 0.7390454657592425
2.043122451567787 12.17489730008518 25.17030868863061 235.71080339114908 0.7605191184682485
2.049916299119931 12.114560108376079 23.39830182583849 249.05106513726653 0.7831657944452998
2.055615336543002 12.052142536102275 21.787370469366543 263.3155875413551 0.8070726371531604
2.060193214930929 11.9876369266493 20.319997860472544 278.5842042639424 0.8323360434753176
2.0636537138576774 11.921127683606649 18.985142779530598 294.94551662509093 0.859062615257721
2.065957496653936 11.852573557176266 17.769844060456066 312.4979541558125 0.8873702493800526
2.0671073842508396 11.782051170925214 16.662916215606757 331.34897250788265 0.9173827322527524
