M[M_sun], R[km], Lambda[1], P_c[MeV/fm^3], rho_c[fm^-3]
0.24162668629717493 15.618656898711224 2160425.4255784233 3.5677272577965504 0.1711233750220791
0.2536367636877098 15.277466174254295 1723315.751491277 3.784700869911928 0.1738866930650299
0.26602679286432496 14.981551059336132 1383319.5192126676 4.011151884603849 0.17666364485489108
0.27879343129740225 14.723955138409439 1116761.459805052 4.247340084620291 0.1794530124955941
0.2919407768047344 14.49886471126285 906308.5487314757 4.493888859499053 0.18226132958226154
0.30546777592957886 14.301711867584013 739041.480004087 4.7509452053907575 0.185084133821946
0.3193750395287878 14.12868059227652 605447.1204521453 5.019205386327584 0.18792835142480996
0.33366500949395855 13.976475500004463 498052.84086632985 5.298874245163517 0.19079023006569334
0.34833618119536053 13.84251770542058 411318.6504999467 5.590702355252929 0.19367651168671132
0.3633881573571752 13.724543237757977 340957.66513059265 5.894829174149438 0.1965817460740157
0.3788325575194864 13.620549736893667 283575.9398610608 6.212130019970569 0.19951385140460878
0.3946533671445839 13.528967046496806 236663.0126129802 6.542883293158768 0.20246938057217806
0.410867144807981 13.448358320233131 198086.41248078033 6.887749164051409 0.20545133273068975
0.4274632723642934 13.377554440977557 166296.8146787226 7.24745071998539 0.2084631171602837
0.44444590336232975 13.31537725193793 139985.9872731313 7.622276900442397 0.21150076246272978
0.4618138709504019 13.260998167731133 118140.63089876178 8.013116451892865 0.21456950285842052
0.47956691670284923 13.213541989780985 99955.42977832195 8.42070076848239 0.21767142729408256
0.49771039425963975 13.17234091410743 84768.44609049513 8.845511211139774 0.22080459392655072
0.5162350112769649 13.136727028533832 72056.68112992111 9.288339630188833 0.22397126516906815
0.5351390588691294 13.106131293867785 61377.01191649286 9.750107116025404 0.22717490916131114
0.5544313317316842 13.08008858045859 52392.668049996726 10.231621427241 0.23041687390527196
0.574096276522168 13.058077691367693 44810.29682097969 10.733411001251447 0.23369459289614167
0.5941432748559183 13.039733285755553 38398.96880701894 11.25660522732107 0.23701281394172857
0.6145613999338797 13.02467311934794 32964.150458666074 11.80219372514154 0.240373845738117
0.6353473394450113 13.012568601661938 28349.316842745313 12.371153140975839 0.24377931700258504
0.6564991942504981 13.003124001891868 24421.018771465704 12.964250562863473 0.24722806961726632
0.678018704659144 12.99607476303215 21073.035980880453 13.582655224964052 0.25072313747972147
0.6998900579732744 12.99112554858554 18211.948537245076 14.227636411987115 0.2542680033833254
0.7221059825946 12.988031364691983 15764.51643765262 14.90038073302712 0.2578646460651188
0.7446764741693648 12.986651945920881 13664.700145894636 15.602019897932863 0.2615139997953491
0.7675791919333443 12.986747663553182 11862.938396588672 16.3336136095853 0.2652159121243352
0.7908048823560125 12.988110197548034 10313.295848297545 17.096872030526114 0.26897606369459665
0.8143620012260225 12.990614470734004 8978.387787489659 17.89324614873816 0.2727968790926695
0.8382257197257369 12.994062983875489 7826.1900370719195 18.724230260296565 0.27668061280515127
0.8623883757422952 12.998317780848271 6831.666324848313 19.590906822088826 0.2806254225643301
0.8868441706414353 13.003251912667501 5970.837113668781 20.49548105774419 0.284638791883018
0.9115857495534962 13.008729780042664 5224.928547913114 21.4397416903161 0.2887237233738898
0.936588086489938 13.014617147402555 4577.8058413801755 22.425336800420098 0.2928814777850597
0.9618468300055769 13.020814789053592 4015.22613728367 23.453957355871545 0.29711319498761224
0.987353049020643 13.027194036757802 3526.2608022622244 24.5281779088831 0.30142625993902145
1.0130784651569078 13.033647391064985 3100.5098627124335 25.650134157440803 0.30582376461344696
1.039022063793425 13.040107236367426 2729.260269659281 26.821391326521834 0.31030406157523277
1.0651579806343918 13.046438323801361 2405.0645980493696 28.045225960000252 0.31487728830010875
1.0914680380194228 13.05256417105216 2121.9314785002784 29.323919484582518 0.31954547522971866
1.1179469046148636 13.058401444569636 1874.1219417074885 30.659761877653924 0.32431014470435754
1.1445599988046464 13.063861935797242 1656.9384988779548 32.05646944097515 0.32918156167899437
1.171306371440867 13.068892381212168 1466.5258260598064 33.51593045628629 0.3341570916634704
1.1981492956601163 13.073363033149004 1299.40979505156 35.04245593676653 0.3392489002258186
1.2250743302304234 13.077235963358188 1152.6473468925037 36.638517164947935 0.34445656857983964
1.2520539940480548 13.08042042938193 1023.4078469341054 38.30856734654298 0.34979094455348175
1.2790808196497185 13.082883176378127 909.6730920875597 40.05543018139396 0.3552521357156763
1.3061079615642974 13.084487083886257 809.4305945390568 41.88428504285548 0.36085300363026407
1.33313177371885 13.085230133716465 720.9207558921165 43.79821915552824 0.3665933637845189
1.3601264502136807 13.085056135058515 642.7855641146865 45.802630389167575 0.37248496171774875
1.3870462229081213 13.083831547671048 573.7188090154765 47.90247645625458 0.37853572521172885
1.4138813423185024 13.081552539046255 512.6038471539483 50.10206690998702 0.38474908933876273
1.4406097837044147 13.078171413798138 458.4270164330579 52.40743584701085 0.391136313090004
1.4671827184722652 13.07358674709668 410.44482495172224 54.824564552722606 0.39770690010978765
1.4935887276595554 13.067773926485026 367.8127455853562 57.35961632897794 0.4044698668726724
1.5197920452840328 13.060680767077397 329.98784412275154 60.01919020922014 0.4114349362840212
1.5457698541898053 13.052239483176105 296.33561946858936 62.810360160578085 0.4186125957845015
1.571480819653647 13.042412947260166 266.4047960365102 65.74071803562818 0.42601416018916166
1.5968953056133306 13.031130136772074 239.75066578005647 68.81842065394953 0.4336518398152471
1.62198807549055 13.018372339011329 215.99712411795744 72.05224144082186 0.4415388145207182
1.6467273749748936 13.004095600513514 194.78970884401082 75.45162710397669 0.44968931435058684
1.6710932331538373 12.988237058694443 175.87290125324313 79.0267598899867 0.4581187075717013
1.6950235760766545 12.970756044102522 158.9502927882601 82.78756311595481 0.4668392331218572
1.7185123355468739 12.951617055712315 143.80354694872094 86.74629631982772 0.47587064344865776
1.7415123438134787 12.930775649705302 130.26206791816097 90.91553820636702 0.48523147323853555
1.7639953067378091 12.908195775505591 118.11620335109998 95.3078977656302 0.49493789374674096
1.7859279603953135 12.883830708639916 107.21741458090898 99.93843685168723 0.5050130836488054
1.8072646384109976 12.857633539951486 97.44704566181338 104.82287849930503 0.5154797630886904
1.828011541462332 12.829638844506075 88.65964337584204 109.97695452674039 0.5263576548340756
1.8480869686765948 12.799713773258254 80.75883463393347 115.41951587171368 0.5376749378747789
1.8675002375353702 12.767932764089078 73.66016164712374 121.17017345404105 0.5494589163718039
1.8861905898157907 12.734185770888283 67.25700517113086 127.25013047914439 0.5617388393575935
1.9041231979496984 12.698434472692576 61.48723885934818 133.6824974662118 0.574546639895837
1.9212892008059417 12.660731969043361 56.28051275848249 140.491388960306 0.5879133388723226
1.937647925143043 12.621009892475968 51.582546227073784 147.70480961294845 0.6018787318221003
1.9531603735985401 12.57922847719295 47.337394156456504 155.35228839644353 0.6164824690036894
1.9678192611358856 12.535452507918533 43.499929893837354 163.46537498084476 0.6317653355080215
1.9815668723358453 12.48956544150478 40.025466881543544 172.07926363464904 0.6477741634415648
1.9944026626769416 12.44164458692493 36.87839218138594 181.23246231107757 0.6645599219967305
2.0062573163282496 12.39155583699568 34.028691390638336 190.96654874429308 0.6821761249885289
2.0171445658355016 12.339405516977255 31.441198651511368 201.32726896424015 0.7006816289919072
2.0270260174772865 12.285159681058925 29.095527829394292 212.3649997787363 0.7201411443918919
2.035885111700612 12.22883477426665 26.966938549057087 224.13391064692047 0.7406213788491586
2.0436771530467563 12.17037555664693 25.029749987467405 236.69549402723672 0.7622013428244713
2.050386640129307 12.109810425607487 23.2698236149955 250.11506109930855 0.7849594511328241
2.0560112635479144 12.047198113507324 21.668076515416217 264.46674151346775 0.8089882242433919
2.0605043674255747 11.98247125719638 20.211704177469546 279.83123851265367 0.834385115634915
2.0636497833986995 11.916630325305425 18.913937896605827 296.45554879080896 1.027142257140473
2.063936802552138 11.851776593605427 17.878890529723723 315.1945770493213 1.3451199959523024
