M[M_sun], R[km], Lambda[1], P_c[MeV/fm^3], rho_c[fm^-3]
0.24162668629717493 15.618656898711224 2160425.4255784233 3.5677272577965504 0.1711233750220791
0.25364388415888117 15.277270797559245 1723205.3700749404 3.7848175727393705 0.17388814770947467
0.26603967255645644 14.981276295484692 1382993.729942374 4.011397211956891 0.1766666094911703
0.27881460361270693 14.723515742227779 1116427.0418750967 4.247722330868556 0.17945744597604119
0.2919695728614207 14.498439507539048 905928.8092492867 4.494418049450905 0.18226722223519398
0.30550431884195745 14.301223969823598 738677.337683609 4.751639300968191 0.1850916313788836
0.3194203999460236 14.128152807047186 605198.0414441418 5.020069494481764 0.1879373168804247
0.3337175145107283 13.975974769248404 497706.57011059095 5.2999311077621964 0.19080087091840986
0.34839881808857226 13.842045074376637 411016.589024975 5.591954604919491 0.1936886275467173
0.3634608251687248 13.724009367401594 340659.4233101667 5.8963049351744505 0.19659560673386697
0.3789144499634572 13.620022617982132 283324.06719967816 6.213847142196373 0.19952950949175835
0.3947463906975328 13.528468923860279 236398.79334868517 6.544839987703106 0.20248653813996706
0.41097123688582876 13.447901729150972 197872.36457271577 6.889983192511407 0.20547035865452876
0.42757858120349634 13.37707024140725 166083.70321678795 7.2499830353490635 0.20848406635631056
0.44457306528666274 13.314946419500993 139812.48249060876 7.625100498066534 0.21152324011538523
0.46195418859851534 13.260582103755805 117981.573785727 8.016280565760452 0.2145939798372625
0.4797185962270062 13.213162490478412 99817.68138359065 8.424230058774336 0.21769796262322064
0.4978746307160373 13.17200146917835 84648.02069726578 8.849392660233569 0.2208326972764054
0.5164122711470359 13.136424497358712 71941.13589948659 9.292636030478523 0.22400151209495692
0.5353297491374346 13.105881805714183 61277.87789331064 9.754847582445045 0.2272073649036951
0.5546367297705042 13.079852685173304 52303.70846601044 10.236836843169005 0.23045160654081212
0.5743194794897467 13.057858791363136 44733.07844366785 10.739078703435295 0.2337309812997964
0.5943742759007072 13.03953912549496 38331.347966640074 11.262810418693807 0.2370515840897164
0.6148120966653573 13.02453244271597 32904.979072062684 11.808973042665924 0.2404150752997068
0.635616938999661 13.0124408781415 28294.668449262823 12.378545506435703 0.24382308774700834
0.6567845403675946 13.003036715274982 24372.32647246328 12.972222030692214 0.24727363125852117
0.6783163568970371 12.995986930668334 21029.140109776 13.591318947447473 0.25077137476535905
0.7002041391162834 12.991068505135953 18174.485853899816 14.237038816230147 0.2543190118852283
0.72243753831999 12.987998692066682 15731.274531694908 14.910571228064848 0.25791852705371937
0.7450241428011469 12.986647402539004 13634.977888966034 15.612951674848786 0.26156987578760915
0.7679443930791737 12.986762221692267 11837.377838905048 16.34543464495041 0.2652748370208122
0.7911882968141268 12.988142720184182 10289.611326036365 17.10964161720545 0.2690381578704734
0.8147626432492533 12.990668926913397 8957.191614553223 17.907027509206777 0.27286227066267854
0.8386448902472801 12.994125505157879 7808.080825304037 18.738962282326092 0.276748298823824
0.8628237726192234 12.998395502555747 6815.243729002013 19.606780970371613 0.2806966398563735
0.8872978839232875 13.003349542526701 5955.764180284911 20.51257368853486 0.284713694441397
0.9120591328732711 13.008839611473938 5211.56577665728 21.458134386643 0.28880247557327604
0.9370781836252259 13.01472877288453 4565.693421539584 22.44495296747316 0.29296295217524626
0.9623549695386197 13.020937635459411 4004.943058392752 23.475043041312073 0.2971988302213538
0.9878803246172029 13.027327579553287 3516.8934142437656 24.55083229976574 0.30151625507945384
1.0136220766341326 13.033791518780793 3092.154511613978 25.674269591646098 0.3059169079022674
1.0395861365063896 13.040240268878286 2721.730868427186 26.847302710628274 0.3104019501185357
1.0657359176046421 13.046565821810026 2398.572396214411 28.07303450725102 0.3149801642084724
1.092067122109707 13.052697917636285 2115.8662842472263 29.353526674828448 0.31965204293569655
1.1185638635641801 13.058531522055397 1868.7759013699788 30.691520995379623 0.3244221770500744
1.1451933408987376 13.063987874720173 1652.2432101739169 32.090431667124264 0.3292987221422548
1.1719569300028836 13.069003606832268 1462.2458945949827 33.55218253490585 0.33427926490616405
1.198812055300957 13.073461981357218 1295.5477649186992 35.08132364764491 0.3393774252086332
1.2257576003024204 13.077324408197665 1149.2108272241555 36.67988776917499 0.34459002374504427
1.2527530342038895 13.080494315039417 1020.2823233719882 38.352916545814644 0.3499314330944633
1.2797936879137422 13.082937245271353 906.8039122053584 40.10264242295632 0.35539819461847943
1.3068368514752193 13.084518795116301 806.8574941163837 41.9345553634235 0.36100497842526136
1.333873508648583 13.08523806510794 718.691435353626 43.85211080706234 0.3667535576435881
1.3608805939655804 13.085033730838521 640.6948493905106 45.86003051144449 0.3726518734761128
1.387811420976873 13.083780405697214 571.8564556285038 47.96363006534791 0.378709788124023
1.4146676807102954 13.081486388084281 510.88098295759795 50.16764412070723 0.38493284390995874
1.441390882383313 13.07803720577627 456.9352668489616 52.477332617996026 0.39132822343507234
1.4679851966565267 13.073440423868567 409.06005970444727 54.89909017214924 0.3979075096741438
1.4943935164625246 13.067576677809821 366.57192671191126 57.43910512759484 0.4046797610954983
1.520604579716513 13.060435819967665 328.8774722738993 60.10400380146347 0.41165474604503605
1.5465879326507685 13.05194919126031 295.32365578185636 62.9008899092061 0.4188430011921939
1.5723038889488707 13.042071760907247 265.4949000477913 65.83738776475661 0.42625589474710324
1.5977281861027182 13.030745664707581 238.94875440197035 68.9216896383932 0.43390569500740656
1.6228146730651836 13.017930027833458 215.26588079104866 72.16260770307942 0.4418056448615793
1.6475671700252332 13.003592543522466 194.12261937685176 75.5696310540766 0.4499700429513797
1.6719172849627348 12.987658831228298 175.257055649773 79.15271507719083 0.4584131910997056
1.695853059149954 12.970116461281062 158.37847101115213 82.9220093684981 0.4671481902186307
1.7193338770952988 12.95090869385727 143.29932256975175 86.89026756653676 0.4761966674872527
1.742319837636606 12.929970369578713 129.79470813712194 91.06909439484639 0.485573079235901
1.764799519624255 12.90733247073283 117.69548194453836 95.47251693667314 0.4952991049656839
1.7867269011090245 12.882894750081595 106.83473259053599 100.11426230631541 0.5053925073519216
1.8080663408590167 12.856644414186043 97.09837449535013 105.01082128143125 0.5158788599804789
1.8287780643762 12.828512973300336 88.34235608131186 110.17873059700109 0.5267806939595943
1.8488579543124841 12.798553625376176 80.47651573562864 115.63558601053771 0.5381212642215165
1.868245249606976 12.766650543064685 73.3904447001501 121.40165282452344 0.5499301235423802
1.8869159039039327 12.732805399242363 67.02069307139529 127.49831761270796 0.5622369489543357
1.9048389980704343 12.696996171346596 61.26419788765133 133.9480468354808 0.5750711424243811
1.9219820208080216 12.65918517447482 56.082290118699646 140.7764446746714 0.5884687358051159
1.938297789200398 12.619301502484497 51.39931672841385 148.01122217997116 0.6024681316397442
1.9537959939053047 12.577464835258407 47.168168046274 155.68092287681043 0.61710526424076
1.9684139164836336 12.533544424939462 43.344331978879225 163.8191325975491 0.6324275412970427
1.9821309549712534 12.487550610283183 39.88425764550647 172.45956717695353 0.648476352350901
1.9949214432156852 12.439482558743666 36.749661931415396 181.64160079410533 0.6653051734165919
2.0067610978966495 12.389328082332442 33.90837137594926 191.40717660075418 0.6829682469706253
2.0176098504202584 12.33706235605022 31.33045659077125 201.8023141865974 0.7015247874022442
2.0274490297701853 12.282684173014642 28.995158407475472 212.87699772232435 0.7210376160092337
2.036261955356391 12.22622552839728 26.87280383331597 224.68659377102213 0.7415767047866874
2.0440097119095637 12.167639630474103 24.945657778659676 237.2923496845487 0.7632195007127655
2.0506720674945975 12.106941844894108 23.19092979106236 250.76105777246585 0.7860484028171375
2.0562479458942797 12.044204619607447 21.596417794942063 265.16575984242263 0.8101514313548817
2.0606974109851945 11.979363179740531 20.143646890394407 280.58828804573454 0.8356286331122686
2.0640081154738037 11.912475171771982 18.824909432366578 297.11821406526803 0.8625865237182344
2.0661708148010103 11.843583773356986 17.620772181803957 314.85593984127166 0.89114573906582
2.067168189609988 11.772701024949535 16.525922912735556 333.91087817025897 0.9214322425954063
