M[M_sun], R[km], Lambda[1], P_c[MeV/fm^3], rho_c[fm^-3]
0.24162668629717493 15.618656898711224 2160425.4255784233 3.5677272577965504 0.1711233750220791
0.2536412585046837 15.277383038311456 1723259.4319690345 3.7847865660629694 0.17388776122621144
0.2660364283294638 14.981314067572454 1383035.4078953697 4.011332030091089 0.17666582180678977
0.2788087706285609 14.723646729785385 1116511.043379397 4.247620768976175 0.17945626801114006
0.2919617054708859 14.498536361096116 888875.3023236488 4.494277442850193 0.18226565654806196
0.3054942549850954 14.30138268372447 738801.0118523532 4.751454875856376 0.18508963923569538
0.31940814771849246 14.128297559584075 605206.3380486786 5.019839892740446 0.1879349346737404
0.33370291824363213 13.976127890344154 497787.3490339578 5.299650285137509 0.19079804350054827
0.34838261521285335 13.842176769478295 411103.56849478366 5.591621860682707 0.19368540815469165
0.3634427841297673 13.724120767579114 340738.1670888191 5.895912794405186 0.1965919236647762
0.3788932319631076 13.620139186161206 283377.34684987937 6.213390860061157 0.19952534874808464
0.3947217509402423 13.528603739959618 236473.85880947183 6.544320038353349 0.20248197888658684
0.41094325427489453 13.448035289649697 197934.1860426293 6.889389539222068 0.2054653028539998
0.4275474001551251 13.377205169464482 166140.88209572012 7.249310108120174 0.20847849940180244
0.444540369867052 13.315039840121713 139856.58852295484 7.624350157179589 0.21151726691945755
0.4619171336682731 13.260690823475315 118029.81470395657 8.01543972464005 0.21458747525140534
0.47967904691028895 13.213265289829277 99847.96845416028 8.42329216160417 0.2176909109476572
0.4978309835916191 13.172095419954088 84680.44893789283 8.848361165497355 0.2208252288137914
0.516365356405057 13.136504930354903 71971.26906217872 9.291494246920836 0.22399347386752888
0.5352799615472067 13.105927597722706 61306.925906324745 9.75358776960818 0.22719873955815612
0.5545828627645111 13.079895521638655 52328.37005600357 10.23545079030285 0.2304423759694245
0.5742601835407161 13.05791001151163 44754.06759726012 10.737572433091076 0.23372131057760234
0.5943135918967443 13.039589419818988 38349.3213207291 11.261161280985185 0.23704128024746968
0.6147446588405411 13.024553143932433 32920.80561773565 11.807171296739124 0.24040411767832515
0.6355425168294967 13.012491587424979 28078.30197311513 12.376580803792118 0.2438114545968689
0.6567102502275439 13.003062030326909 24385.183793417513 12.970103393460764 0.2472615219968943
0.6782370423467056 12.996003615868041 21040.64419049163 13.589016293712865 0.25075855420628257
0.7001204716578816 12.991080739409973 18183.540153639296 14.234539801436847 0.2543054546080102
0.7223491453185408 12.987998457656968 15739.377118242652 14.907862714575334 0.25790420612191844
0.7449324919235084 12.986642415211929 13642.837754697624 15.610046105192962 0.2615550244428691
0.7678484128258823 12.986756658076962 11843.869677597815 16.342292676198454 0.2652591750946167
0.7910875416200389 12.988114674732113 10295.97108764743 17.106247482949296 0.269021653344936
0.814655231447031 12.990656132227894 8962.534209241105 17.90336439784828 0.2728448894612075
0.8385332907883998 12.99410168476652 7812.560136929386 18.735046440222323 0.2767303075554683
0.8627093523188379 12.998376978705583 6819.621283304897 19.602561488481136 0.2806777097022189
0.8871789017657938 13.003324663276636 5960.056158219294 20.508030261897538 0.2846937844414028
0.9119327847736901 13.008817709231264 5184.40476222504 21.453245320002285 0.2887815420057306
0.9369475280716341 13.014704188315745 4568.729570393508 22.43973862523173 0.29294129476617164
0.9622207696342661 13.020905796016526 4007.8680182135327 23.46943799618014 0.2971760664676518
0.9877399767615901 13.027297084270565 3519.388324978893 24.544810173799043 0.30149233203182557
1.0134761052328736 13.033753965439315 3094.420057270258 25.667853693448944 0.30589214771549234
1.039434316124924 13.04021237840518 2723.7823578143793 26.840414616050293 0.3103759281375562
1.0655837708331082 13.046539128694356 2400.1814088402148 28.065641979044955 0.31495281603212055
1.091907474658298 13.052660953341602 2117.473476417916 29.345655910555003 0.31962371301698606
1.118399900181679 13.058501012954178 1870.1781126521068 30.683078040812223 0.3243923939807481
1.1450268370441554 13.06395693495467 1653.5033640496629 32.08144407503755 0.3292678416610871
1.171785037389728 13.0689698486382 1463.4648998415507 33.54254489919328 0.33424678508013084
1.1986344080097853 13.073430298384828 1296.596713638186 35.07099048941628 0.3393432562556966
1.2255763507306048 13.077301973472586 1150.070347474103 36.66888907050331 0.3445545436456914
1.252567395113332 13.080475691946218 1021.0933828158041 38.341125782939216 0.3498940825424661
1.2796047016747547 13.082918175528523 907.5735103301353 40.09009032774793 0.35535936262928874
1.3066439157542127 13.084516913351157 807.5219735453763 41.92119005979359 0.3609645730875535
1.3336760968922827 13.085229702172434 719.2376043448036 43.837782475550156 0.36671096643226647
1.3606807590537489 13.085041632944314 641.2291465608423 45.84476917003286 0.3726074955683843
1.3876081971064824 13.083793587559123 572.3546548650224 47.94737054042813 0.37866350826741246
1.4144600476424611 13.081512113221034 511.32615600794384 50.150208156348455 0.38488398641634247
1.4411885238055158 13.078088167247168 457.3197422025795 52.45874788865772 0.39127719673140565
1.4677724645150036 13.073483180071165 409.42696731914276 54.879274402670625 0.3978541691864958
1.4941804201308553 13.067628557571311 366.91496658770313 57.417969379204244 0.4046239510749737
1.5203890664987803 13.060498747786218 329.170463040248 60.08145187524458 0.4115962986502084
1.546371203354376 13.05202826734356 295.61612602380916 62.87681769004988 0.4187817354806151
1.5720859124411553 13.04215984361958 265.74354473014824 65.81168249917086 0.42619161556613144
1.5975072858604435 13.03085402230876 239.163425046635 68.89422913873736 0.4338381917734541
1.6225948123725633 13.018052772756471 215.4614238019275 72.13325946987713 0.44173469021557743
1.6473469901116766 13.00372950818508 194.3022995818988 75.53825130702653 0.44989539127679473
1.6716958137167253 12.987817197113653 175.4188980695075 79.11931149746708 0.45833526093037186
1.6956347807310603 12.970290061150562 158.52834050172612 82.88625612671706 0.4670660293731482
1.7190984794067503 12.951064495832165 143.4483844654319 86.85198065730627 0.47610996647536336
1.7421033092898122 12.930184224214093 129.92225411609476 91.02825787991898 0.4854822330215683
1.7645890865855176 12.907565899878174 117.80222871073106 95.42873751888044 0.49520304314757774
1.7865153438343575 12.88314642364269 106.93557056485385 100.06750186862736 0.5052916003560349
1.807856169643273 12.856915175987549 97.18819490531222 104.9608374022397 0.5157727191082453
1.8285809203414203 12.8288317080844 88.42782290427566 110.12511960617377 0.5266683804796708
1.8486573298042093 12.79886849173882 80.55248851500653 115.57811935557481 0.5380025579425813
1.8680472544043027 12.76699246846384 73.45948622682957 121.34008671707726 0.5498047975090812
1.8867228525757782 12.733174838126743 67.07928640327206 127.43230648194586 0.5621044651416083
1.9046526633270793 12.697386942968414 61.323265570337384 133.87745512262896 0.5749317724646793
1.9218013786297932 12.659605534202774 56.13461975988835 140.70062455917298 0.5883210093871922
1.938129503500778 12.6197782375828 51.4476729564483 147.92971973455474 0.6023113576309863
1.95362422496362 12.57793391119479 47.21709707487416 155.59350790105168 0.6169396041113347
1.9682546114017772 12.53404843950669 43.385477954449264 163.72512119401026 0.632251693156652
1.9819829906113746 12.488091320642233 39.92496426748653 172.35840401110173 0.6482895656261073
1.9947808783405863 12.440046620685989 36.78276158169756 181.53276492197173 0.6651069273664058
2.006623773158133 12.38990952242207 33.941557077511995 191.28996145234433 0.6827575278925447
2.0174881910093023 12.337690918060016 31.360810281839807 201.6759403452525 0.7013004862996085
2.027337501539734 12.283347463912836 29.021561694037846 212.740923040225 0.7207995614939905
2.0361625844447415 12.226921258548701 26.89822701854223 224.53955914808895 0.7413225519405494
2.0439215273197386 12.168369390995524 24.968224583078133 237.13363898511432 0.7629488843908167
2.0505962236683515 12.107703689784042 23.211243721985515 250.58921377882814 0.7857587653735433
2.0561784512727876 12.044977677357018 21.61489656651911 264.9797797051174 0.8098419496011875
2.0606487407955694 11.980193526201347 20.161798518345133 280.38705863787123 0.8352984149653097
2.06397814572939 11.91335383623833 18.840086117236428 296.9000012967972 0.8622329799337044
2.066150424938201 11.84448306549254 17.635760910040357 314.6188965789574 0.8907662794256762
2.0671626138313712 11.773639035088998 16.538862592392547 333.65344145350923 0.9210256418652
