M[M_sun], R[km], Lambda[1], P_c[MeV/fm^3], rho_c[fm^-3]
0.24162668629717493 15.618656898711224 2160425.4255784233 3.5677272577965504 0.1711233750220791
0.25364435002410807 15.277308148293494 1723031.7527818196 3.78484475462812 0.17388848651860495
0.26604249223172943 14.98121466130595 1382985.9742013742 4.011454354022877 0.1766673000193148
0.2788238117397401 14.723276278399789 1116317.9844105202 4.247811366636805 0.17945847865677883
0.29197518314582066 14.498327654286209 905782.1741231427 4.494541315618537 0.18226859483257915
0.3055126221902397 14.30112129693644 725349.79701736 4.751800983373691 0.1850933778574385
0.31943022684729905 14.128030384030685 605003.2303658023 5.020270784462891 0.1879394053416697
0.3337323283851748 13.975805241065737 497598.46536886605 5.300177305174377 0.19080334971783514
0.34841345252701383 13.841922373516258 410943.3160312898 5.592246324809793 0.19369145001690535
0.3634787442893875 13.723853767593818 340593.7123390253 5.896648731953114 0.19659883574596732
0.37893303340030915 13.619913290621675 283252.0300712056 6.214247176788032 0.1995331573255613
0.39476810736996243 13.52834289403493 236355.6735237232 6.545295845120793 0.20249053539368697
0.4109948765718014 13.447772758673825 197822.88172180406 6.89050367372242 0.20547479129093318
0.42760523070017104 13.376966004687556 166041.54363952577 7.25057302507082 0.20848894719007724
0.4446027674527216 13.31483676403969 139767.51218540707 7.62575836595265 0.21152847716676637
0.46198464063046685 13.260478748433991 117947.66439819254 8.017017787467669 0.21459968284318598
0.47975354161191114 13.213094381370029 99792.97373745134 8.425052383741923 0.21770414535738766
0.4979139021735456 13.171910761481701 84619.17818576025 8.850297056688731 0.22083924549315964
0.5164546059999227 13.136340636831129 71920.46040615793 9.293637135511558 0.2240085599368011
0.5353757934604497 13.105785191897727 61256.076299118045 9.755952184639373 0.2272149275950175
0.5546856523744921 13.079762531150738 52286.93157817703 10.238048698017025 0.23045965566394655
0.5743700967079328 13.057801045439053 44312.518851565495 10.740399421854692 0.23373946072115628
0.594430556500488 13.039482910458881 38315.03425353402 11.264256418373238 0.23706061872188075
0.6148704688142728 13.024467690042947 32889.36430355301 11.810552866945672 0.24042468326720626
0.6356784089458494 13.01240006197775 28281.80169787036 12.380268231698626 0.24383328813112146
0.6568508601426427 13.002993427144563 24361.239026090017 12.97407974584115 0.24728424919652053
0.678386685870827 12.995954761947178 21019.602218052107 13.593338034749786 0.25078261650251243
0.7002767148997345 12.991055617810787 18164.851389179712 14.239230103081592 0.25433089972334316
0.7225146266352015 12.987990898267972 15722.79114534405 14.912946237599138 0.2579310846243938
0.745105971064693 12.9866476925765 13628.58710261204 15.615499495849768 0.2615828985585297
0.7680295585675475 12.986755532925642 11831.110360004166 16.348189783431792 0.26528857069512934
0.7892916182518604 12.986819403325967 10399.999392440133 17.10000276365028 0.402611293664245
0.7990196066887385 12.973878123892684 9728.232862914045 18.181721452532937 0.6931248507329882
0.8022878757744332 12.9462938253466 9370.500837433017 19.440710492055025 0.9106111311594747
