M[M_sun], R[km], Lambda[1], P_c[MeV/fm^3], rho_c[fm^-3]
0.24162668629717493 15.618656898711224 2160425.4255784233 3.5677272577965504 0.1711233750220791
0.25364111429835284 15.277371577311031 1723127.0221679262 3.7847843090646163 0.17388773309381578
0.2660366238932757 14.981295543425148 1383025.9317748211 4.011327285485624 0.1766657644710328
0.2788082131956805 14.723656083174664 1116551.0766601798 4.247613376303338 0.17945618226727567
0.29196044550413974 14.498586478350944 906041.1456296603 4.494267208179768 0.18226554258263145
0.3054936507489003 14.30138602424435 738780.239457152 4.7514414517426085 0.18508949422964638
0.31940721818509304 14.128313180169291 605239.2545746865 5.019823180360435 0.1879347612763474
0.3337010030791392 13.976159536899772 497801.2147384146 5.299629844581783 0.1907978376980691
0.34838163054064275 13.842179972654021 411111.94608631876 5.591597640980575 0.1936851738224109
0.3634407722178508 13.724146284761419 340728.0382520459 5.895884251525328 0.19659165558400826
0.37889135203212815 13.620177062538936 283391.42493349256 6.213357648689383 0.19952504590036316
0.39471978949484315 13.52860479807863 236480.30753629195 6.54428219303555 0.20248164703427626
0.4109412410154932 13.448044645141188 197938.56774708437 6.889346329487375 0.2054649348617669
0.42754574936045286 13.377197439215369 166141.35409188634 7.249261128609589 0.20847809420686372
0.44453794597257457 13.31504845524683 139860.51960020003 7.624295543326276 0.21151683215806857
0.46191423497181205 13.260699399402373 118032.47845238535 8.015378524022152 0.21458700181514734
0.4796758252441972 13.213270678561312 99857.09911762096 8.423223897128572 0.21769039769423268
0.497827876235622 13.172099612850445 84679.59236409038 8.848286088914 0.22082468522725016
0.5163623011759334 13.136505081769139 71974.00233137225 9.291411143487224 0.22399288881417537
0.5352764332535328 13.105929437796247 61308.48255883369 9.753496076030327 0.2271981117753859
0.5545788154708735 13.079905967045164 52331.03453679047 10.235349909066137 0.23044170413974188
0.5742564138145393 13.05792433084961 44755.06245899105 10.737462802548283 0.23372060671555833
0.5943076224079494 13.03958819554492 38351.34212607324 11.261041252784937 0.23704053030910244
0.6147404296515231 13.024553774458548 32922.00479428188 11.807040162030157 0.24040332016050117
0.6355376956001983 13.0124670498144 28309.663405957872 12.376437809508975 0.24381060791710782
0.6567028611500004 13.003077240367151 24386.591608042785 12.969949196241462 0.2472606406688203
0.6782315498452945 12.99600228392505 21042.227890120816 13.588848704398222 0.2507576211138785
0.7001143977369243 12.991074973901117 18184.783440856052 14.234357921722788 0.25430446790168476
0.7223426917981799 12.988013881691868 15739.757239510736 14.907665588451929 0.25790316384179673
0.7449249713524713 12.986659015906246 13546.847642848772 15.609834638193947 0.2615539435638417
0.7678400538625243 12.986752513957274 11843.951557445893 16.342064005291256 0.26525803522749697
0.7910797536892745 12.988118216032813 10296.573222327666 17.106000460851426 0.26902045216012277
0.8146465643796234 12.990657477030295 8962.68957003669 17.9030978012292 0.27284362447931254
0.8385235618293502 12.99411423487739 7812.700044230063 18.734761451397556 0.27672899817927565
0.8627002722668339 12.99837929053454 6819.8266460935765 19.602254402845848 0.28067633200264214
0.8871694452748455 13.003326608682247 5960.233740840718 20.507699601945934 0.28469233543822525
0.9119239435761112 13.008813481196215 5215.339386106062 21.452889507073117 0.2887800185178067
0.9369380083676151 13.014698327471896 4568.914046061479 22.439359141269144 0.29293971860583645
0.9622109748133624 13.020897232132269 4008.0858141651925 23.46903008024191 0.29717440979982307
0.9877303233712624 13.027291666056207 3519.6262191425285 24.544371906522947 0.3014905910039929
1.0134672533616784 13.033743115429095 3094.606687661679 25.667386770983907 0.30589034577177554
1.0394243096546851 13.04020476477883 2723.9052332495685 26.83991333184384 0.31037403437609024
1.0655734042149962 13.046534060871442 2400.3048350875324 28.065103987435062 0.3149508257672189
1.0918957821672235 13.052661970241159 2117.642928282544 29.34508311786398 0.31962165131499487
1.1183884733303229 13.058497674771612 1870.3217369883646 30.68246361059912 0.3243902265383573
1.145013865987386 13.063951542332576 1653.6004810951165 32.08079001220257 0.3292655943656087
1.1717717920441375 13.068966723095413 1463.5301951094127 33.5418435341385 0.3342444214075825
1.198621225959434 13.073431130826783 1296.6404007347394 35.07023851309889 0.3393407696738763
1.2255626496720406 13.077301953304842 1150.1071928607944 36.66808866453246 0.3445519616599296
1.2525534422776907 13.080473891065415 1021.1605000406347 38.34026774137547 0.3498913644548936
1.2795896671613314 13.082920758465676 907.5123518341386 40.0891768867168 0.35535653674789935
1.306629304699179 13.084515010482265 807.5760815329875 41.92021744480758 0.3609616327251003
1.3336620480248105 13.085234909247717 719.317395494994 43.836739785935876 0.3667078670194935
1.360665618463114 13.08503834091741 641.2915518098256 45.84365858990925 0.3726042661522458
1.3875933109533898 13.083789291232502 572.3859726125862 47.9461873278961 0.378660140462597
1.4144450497141559 13.081513603842616 511.35721233257664 50.14893934207272 0.3848804310589156
1.441173340261245 13.078088263360106 457.3502166416859 52.45739548618319 0.391273483540912
1.4677573568688913 13.073486934281329 409.44766910626447 54.877832425975186 0.39785028764456554
1.494164071335427 13.067631481538701 366.9224556138357 57.416431357501416 0.4046198898503027
1.5203736886488364 13.060502564940524 329.19863318257114 60.07981080959274 0.4115920455318202
1.5463326770593602 13.052038814829064 295.6382046671556 63.16054923281829 0.44420233712549123
1.5694348268689726 13.040878360300423 268.2088569256857 65.93239254490821 0.5873135752863025
1.587512346966883 13.023364901557128 247.05503701271704 69.35648246559943 0.741250860377071
1.6014985968953277 12.998550521526505 229.9973045898891 73.15821566303876 0.8908973617171801
1.612092870668421 12.966478418012047 215.81232016973837 77.35311313262658 1.036202606213322
1.6198760237370209 12.927399049476904 203.6071374731667 81.9535550311616 1.1780281457374517
1.625243401382609 12.88151202299061 192.87146093089703 86.9754828244404 1.3168895286734816
1.628624207928898 12.829333242560976 183.24301462292908 92.43632750740773 1.453337217457987
1.6303361021742497 12.77121915027236 174.4244714489785 98.35555279026948 1.5878828318610931
1.6306177175967436 12.707465591708646 166.19514565023775 104.7535388978871 1.7202625634051583
