M[M_sun], R[km], Lambda[1], P_c[MeV/fm^3], rho_c[fm^-3]
0.24162668629717493 15.618656898711224 2160425.4255784233 3.5677272577965504 0.1711233750220791
0.253643809212188 15.277298917965082 1723269.2329852686 3.784816301486858 0.17388813186392538
0.2660395168935099 14.981260193259226 1383006.1996129109 4.011394539530092 0.17666657719646958
0.27881432832234604 14.723535671003345 1116484.0654012228 4.247718166854838 0.17945739767975707
0.29196786123008484 14.498470044831963 905894.5527709828 4.494412284583074 0.18226715804205273
0.30550490556521614 14.301208179121543 738678.8671623889 4.751631739502057 0.18509154970061809
0.31941989739019216 14.12815101235238 605105.6574692493 5.0200600807174895 0.18793721920898696
0.3337152176724095 13.976026353087526 497699.27683231846 5.299919593861267 0.19080075499253252
0.3483981344250775 13.842050851693033 411020.1105824349 5.591940962134466 0.1936884955490192
0.36345931140673204 13.724037180046368 340662.4733251946 5.896288857001668 0.19659545572426568
0.37891358626686483 13.620018935268513 283303.05321458244 6.21382843406785 0.19952933889615226
0.3947443857593709 13.528485864499537 236410.60389067806 6.544818669042569 0.20248635120411423
0.410970230391252 13.447912230348171 197877.3211147816 6.889958851764797 0.20547015135851643
0.4275772265376721 13.37709894437379 166090.23896607332 7.249955444107255 0.2084838381010381
0.4445721851670732 13.314960689977932 139810.34774446324 7.625069732588746 0.2115229952023999
0.4619533151258386 13.260595006599571 117989.55372097665 8.016246089425765 0.21459371313494077
0.4797150773541041 13.213189195969553 99818.55806214508 8.42419160274366 0.2176976734876305
0.49787375489707014 13.171993589417868 84645.361726696 8.849350366300099 0.22083239105025626
0.5164120550971063 13.136403084649723 71939.76794931367 9.292589214198397 0.22400118250542617
0.5353284439563794 13.105860194108654 61280.202199317195 9.754795926394578 0.22720701123903048
0.5546363901641521 13.079804765482791 51818.262878116846 10.236780010636576 0.23045122805831658
0.5743165718758618 13.057850423832294 44331.940379130036 10.739016941358042 0.23373058476812894
0.5943731992236008 13.039542713011208 38331.50095938273 11.262742798265526 0.23705116159605685
0.6148090297920044 13.02451764350669 32903.683422217146 11.808899164421362 0.2404146259967167
0.6356129937795719 13.012437197892215 28293.876450127736 12.378464945988062 0.24382261074262004
0.6567816073361875 13.003023025584556 24372.85678413132 12.97213515798764 0.24727313472976567
0.6783135538806512 12.995977548200795 21029.70492421956 13.591224528883489 0.250770849068091
0.7002002092421608 12.991070816505596 18174.403930433422 14.236936345555021 0.2543184559768147
0.7224344134365439 12.98800101162056 15731.630259088835 14.91046016649925 0.2579179398293571
0.7450204568624084 12.986649250389613 13635.54655337352 15.612832532612035 0.26156926681152504
0.7679406062784229 12.986754699411803 11837.654484176717 16.345305808622705 0.2652741948040319
0.7911840562921473 12.988135056716807 10289.946556534465 17.109502440190628 0.2690374810997796
0.814756614760793 12.990674265532274 8957.211125000464 17.906877302040517 0.27286155794041494
0.8386395091768287 12.994125846340166 7808.442748239427 18.73880171123313 0.2767475610827336
0.8628200855245065 12.9983895657492 6815.466425834912 19.60660794756158 0.28069586361214466
0.8872936885144848 13.00334013695034 5956.036013547441 20.512387381263032 0.2847128780140445
0.9120534938905925 13.008838133364055 5211.789155049905 21.457933905140592 0.28880161716953956
0.9370731419539198 13.01473083650075 4565.813860617867 22.444739146865896 0.2929620640861747
0.9623510648557433 13.02092551016574 4005.217654973241 23.47481319834148 0.2971978967607572
0.9878754147611444 13.027326703381142 3517.013186531912 24.550585352597903 0.30151527407558737
1.013616983876222 13.033780764680396 3092.292537208737 25.674006496170236 0.3059158925661567
1.0395790211659337 13.040240380123738 2721.7930766229665 26.84702025050159 0.3104008830350396
1.0657296175225226 13.046567971146809 2398.626477431387 28.072731360309998 0.3149790427361192
1.0920614944280713 13.052700060214601 2115.9565559768353 29.353203915465865 0.3196508812001665
1.1185581022455044 13.05853077016747 1868.8524300679692 30.69117477024967 0.32442095571849366
1.1451876088599233 13.063985786945011 1652.344017804121 32.09006310621736 0.32929745580328046
1.1719508399494407 13.069000678440007 1462.2821359136806 33.5517873151385 0.3342779329747992
1.198804749950564 13.073462132402208 1295.6072831381607 35.08089990370953 0.3393760240023161
1.2257506734603953 13.077326594878908 1149.2292099747858 36.67943673072276 0.34458856876481664
1.2527451368628453 13.08049418736673 1020.3443288681065 38.352433023535745 0.34992990140188235
1.2797858730598972 13.082936686298376 906.834888580992 40.10212767727435 0.35539660216730484
1.3068291422592528 13.08452070855271 806.8756771733503 41.93400726664333 0.3610033214456586
1.33386601787403 13.085238357639625 718.726034197337 43.85152321427435 0.36675181101394155
1.3608725505623607 13.085032415862752 640.7041733836166 45.8594046538245 0.3726500535671702
1.3878024851194082 13.083777572069136 571.8964758939032 47.96296326974738 0.3787078902084976
1.4146599274996865 13.081487822832415 510.913709803205 50.16692907571142 0.3849308402750809
1.4413818714464068 13.07803924390932 456.94701911291463 52.47657045869172 0.3913261308311791
1.4679764738681296 13.073441782048912 409.0811459352005 54.89827752387741 0.39790532217114766
1.4943848861413769 13.067579047735409 366.59199520148064 57.43823834234989 0.404677472304895
1.520596570262077 13.06043665558909 328.89293083330205 60.10307893341935 0.41165234908225723
1.54657906899291 13.051953946729457 295.33643599326143 62.89990268780207 0.4188404886352331
1.5722948269778643 13.042077036728127 265.50134618095535 65.83633356506843 0.42625325859100865
1.597719086049302 13.030750258852922 238.95952101209028 68.92056344848478 0.4339029266141939
1.6228060139349165 13.017935202411067 215.27150110338636 72.1614040879944 0.4418027349050687
1.6475582125836623 13.00359830214683 194.1311094127384 75.56834411608311 0.44996698135639146
1.6719074318079605 12.98766627571538 175.2651389411698 79.15134513150754 0.45840999503209967
1.695844201538089 12.97012422969892 158.3883773527324 82.920543049665 0.46714482062222284
1.7193249976101477 12.9509163341853 143.30026931689298 86.88869732662967 0.47619311166643585
1.7423112705564427 12.929979854858495 129.79718835416202 91.06741958025385 0.4855693533899097
1.7647909992606456 12.907338049932049 117.69704839675312 95.47072141396407 0.4952951651879395
1.7867178304835505 12.882906346205193 106.8380744287585 100.11234451209762 0.5053883688352008
1.8080578629873574 12.856655997535176 97.10271766613114 105.00877127135422 0.5158745067797833
1.8287686849460292 12.828526888049383 88.34556838618954 110.17653752420647 0.526776108827755
1.8488494227702397 12.798566653857495 80.47756247609348 115.63322907442162 0.5381163956048168
1.868236423016438 12.766664742133504 73.39347311490023 121.39912773692404 0.5499249833893692
1.8869069363990492 12.732820541511128 67.02012750770534 127.49561019740509 0.5622315151934257
1.9048306607693313 12.697012555018485 61.265868051967104 133.9451515319476 0.5750654261962228
1.9219748694665821 12.659202816318334 56.08380304916962 140.77333490676804 0.5884626767946552
1.938290604253071 12.619321746287897 51.400304344564525 148.00787932580147 0.6024617014934315
1.9537889945215239 12.577485333803015 47.16935013192202 155.67733749313885 0.6170984695798004
1.9684075257733085 12.533564995050984 43.346210428301745 163.81528295809565 0.6324203501385509
1.9821244761775798 12.487572448399257 39.88619219825765 172.45541783793973 0.6484686910500913
1.9949162664988818 12.43950477984249 36.751357627940514 181.63713671445595 0.6652970420336126
2.0067551416242027 12.389352199113429 33.90702506217444 191.4023687928261 0.6829596039166521
2.017604866134399 12.337088462568842 31.332257387333506 201.79713067373527 0.7015155871782253
2.027444424776854 12.282710708955635 28.996299597765738 212.8714162629035 0.721027851579905
2.0362584215234425 12.226254025200143 26.87497187590183 224.68056270668734 0.7415662799484054
2.0440057989092018 12.167669435500976 24.946544585283167 237.28583963481466 0.7632084004799455
2.050668714289207 12.106973663491372 23.191453973746732 250.7540217064901 0.786036563798071
2.056244672996377 12.044237149021612 21.596429393228863 265.15813110039903 0.8101387366849339
2.0606950052761044 11.979400582779318 20.144808222745713 280.5800376317806 0.8356151005131172
2.0640048817586885 11.912509667098954 18.824116278063563 297.10926299641716 0.8625720213828334
2.066170360309411 11.843620639187058 17.62128301131531 314.84621624457566 0.8911301734999939
2.0671671276793444 11.772739589100029 16.526062745189954 333.9003179171732 0.9214155635192044
