M[M_sun], R[km], Lambda[1], P_c[MeV/fm^3], rho_c[fm^-3]
0.24162668629717493 15.618656898711224 2160425.4255784233 3.5677272577965504 0.1711233750220791
0.25364196305384196 15.277338421022698 1723092.5163779787 3.784804825753577 0.17388798882444612
0.2660381687874469 14.981281172558742 1383077.9130488615 4.011370415303473 0.17666628566942805
0.2788117416890238 14.723602945245561 1116457.960955906 4.247680578031411 0.17945696170605047
0.2919650549115066 14.498521896439476 906007.9549096468 4.494360244862214 0.18226657856768316
0.30549943561638815 14.301297199422052 738716.5962114162 4.751563481963188 0.18509081238892683
0.31941484981834883 14.12822903791459 605192.8851495207 5.019975102621691 0.18793633752844452
0.3337160239133002 13.975918674861854 497727.2488651599 5.299815658052781 0.19079970853140177
0.3483923089950108 13.842093465895022 411051.33117572824 5.591817809176762 0.1936873040102752
0.3634522379805481 13.724079535031091 340685.2684212129 5.896143720196701 0.1965940925686792
0.3789053744265953 13.620068361685501 283323.89905300626 6.213659557157352 0.19952779894206957
0.3947359114661646 13.528527143488667 236439.75169986623 6.544626227429143 0.20248466375114038
0.4109597570446091 13.447936306089291 197901.2964402804 6.889739130519338 0.20546828012018764
0.427563168038208 13.377169042483223 166109.86388049112 7.2497063815221265 0.20848177767010062
0.44455950968810337 13.315006675317695 139831.72358623391 7.624792017106847 0.2115207844085935
0.46193955422759075 13.260617612415874 118005.79096897335 8.015934877223126 0.2145913056569491
0.4797020147874583 13.213208051972098 99832.4614821275 8.423844467193996 0.21769506351358364
0.4978566427516741 13.172039307888529 84661.53325608707 8.84896858739474 0.2208296268078599
0.516393599231781 13.13644307560883 71954.38063527571 9.292166613829421 0.22399820737248252
0.5353106286121321 13.105895868372915 61291.77501780457 9.754329639415735 0.2272038187915532
0.5546147948788095 13.079841906701484 52311.961596614026 10.23626699781204 0.23044781159303213
0.5742948544605256 13.057888695659427 44741.20120678945 10.738459431751396 0.2337270053837594
0.5943496515233739 13.039550849225545 38336.38903132435 11.262132408125765 0.23704734786741782
0.6147846229275095 13.024523537419205 32909.91404811778 11.808232288107599 0.24041057027607046
0.6355826589612547 13.01247205547855 28300.404244055895 12.377737752923382 0.2438183049785242
0.6567544420519427 13.003031280051177 24377.434940032155 12.971350987541046 0.24726865273305715
0.6782839594862646 12.995990225299309 21033.500826555024 13.59037224621682 0.2507661037865432
0.7001700094679616 12.991063943247164 18041.575252338745 14.236011381195167 0.25431343800001954
0.7224007653264718 12.987997260169301 15734.244711108888 14.90945765738958 0.2579126391857956
0.7449871655211122 12.98665220429329 13638.601104110565 15.611757084231506 0.26156376983277685
0.767904355143499 12.986747263877488 11839.309759408983 16.34414285795338 0.2652683977866234
0.7911465200434925 12.988129335511966 10293.503815549302 17.10824615105252 0.26903137219111617
0.814719003582797 12.99065996853752 8959.294002957648 17.905521451339943 0.2728551245257887
0.8385985742277728 12.9941266725423 7809.8887180705 18.737352312529225 0.27674090184562816
0.8627771617186176 12.998389758337954 6817.005109575537 19.60504615629221 0.2806888568396892
0.8872498365311347 13.003336811790936 5957.344690211606 20.5107056811396 0.28470550854335186
0.9120077184091112 13.008829094905838 5213.110348094931 21.456124265201034 0.28879386881536656
0.9370244676949552 13.014717529105015 4566.958793045891 22.442809105109333 0.29295404779151707
0.962299904939913 13.020920563307461 4006.1603574107567 23.472738535740454 0.2971894709394921
0.9878230968371969 13.027319580288161 3517.9345012796425 24.548356304700082 0.30150641912646803
1.0135627858321197 13.033781924413224 3093.3385852620886 25.671631690913472 0.3059067277353092
1.0395224790743018 13.040227951488793 2722.550592265362 26.844470657508573 0.31039125113181604
1.0656723013103635 13.046552921994786 2399.309738049038 28.069995046041967 0.31496891991980114
1.0920007590436238 13.05268243091136 2116.5522608933384 29.350290577379393 0.3196403949718539
1.1184977011229758 13.058517927741647 1869.3804271159813 30.68804962875807 0.324409931579378
1.1451253367172562 13.063982692495584 1652.8265846953457 32.08673636052858 0.32928602543276514
1.1718854110533856 13.068991801770231 1462.776061548424 33.54821994613906 0.33426591057345995
1.1987395589262253 13.073444393414821 1295.9981913693343 35.07707507579185 0.33936337633330554
1.2256831524957779 13.077320375022545 1149.5927648861639 36.675365542506256 0.3445754357418366
1.2526758311712607 13.080484858825173 1020.6134778971185 38.34806863800233 0.3499160759852809
1.2797144075258917 13.08293104528347 907.1043506266885 40.09748147070838 0.35538222835638705
1.3067572575472792 13.084516171831625 807.1141988756498 41.92906003525058 0.360988365215656
1.333792719383973 13.08522868987682 718.8775474720281 43.84621949663868 0.36673604562224754
1.3607997907679668 13.085036545061831 640.9277252227553 45.85375556212592 0.3726336267758818
1.387728491494585 13.083782012517467 572.0893954883938 47.95694467734742 0.3786907593516834
1.414582790414547 13.081495844527842 511.06846573623153 50.1604749934631 0.3849127552253665
1.4413043780531904 13.0780512540257 457.0670861419299 52.46969113139158 0.39130724277587414
1.4678972227940108 13.073459950669804 409.21083775124424 54.89094249366575 0.39788557758899423
1.4943056203618454 13.067596202139763 366.71284414848583 57.430414684389255 0.40465681353742233
1.5205157990003169 13.060462065802213 328.9948780207559 60.09473103503538 0.41163071399405704
1.546498559437184 13.051981476610392 295.43358172898377 62.89099200558529 0.41881781024056075
1.5722142312253145 13.042108433082797 265.59709624704266 65.82681835748839 0.42622946464311184
1.5976373919292384 13.030790831440315 239.0384843320941 68.91039848126061 0.4338779391533228
1.6227185210863415 13.0179497261041 215.3485212581766 72.15054030913227 0.441776469760653
1.6474761473178212 13.003650060430498 194.19361655576768 75.55672829710653 0.4499393475983215
1.6718251454459931 12.987724483111272 175.32432371237738 79.13898011678448 0.4583811475942157
1.6957632571215486 12.970187096890244 158.44450901658917 82.90730821359742 0.46711440700748563
1.7192279953687577 12.950953330823497 143.3581532858928 86.87452454811572 0.47616101729624144
1.7422314348368475 12.930060033272131 129.8430292171148 91.0523029596685 0.48553572447333526
1.7647121292018366 12.907421525363787 117.7420232429431 95.45451534605348 0.4952596054563045
1.7866401783117583 12.882998264409226 106.87490611315634 100.0950348863517 0.5053510154137979
1.8079799752839967 12.85675474955383 97.13547439703287 104.99026833929553 0.515835215764773
1.8286923365844958 12.828635885107445 88.37805126167149 110.15672862386033 0.5267346695976252
1.8487742839684647 12.798682620004955 80.50615685850899 115.61195601960851 0.5380724528143398
1.8681636105593744 12.76679190073988 73.4196525806581 121.37633705758869 0.5498785899180947
1.8868364567256817 12.732956343023128 67.04430252160962 127.47117395445169 0.5621824718487984
1.9047621608730512 12.69715591304943 61.28822990296465 133.91901954039312 0.5750138335309829
1.9219081229475212 12.659358708692958 56.10172033678744 140.7452673226371 0.5884079904672053
1.9382257101344997 12.619486426566203 51.4164977607006 147.97770809054387 0.602403665621301
1.9537275227053725 12.577666393578491 47.19013789861861 155.64497738168333 0.6170371439292993
1.9683480002078682 12.533752164223934 43.361216411935814 163.78053789620733 0.632355446074192
1.982071485298247 12.487774308113933 39.89836330963312 172.41796795937094 0.648399543943999
1.994865148735515 12.439714434492164 36.764564677953295 181.59684627668406 0.6652236524425525
2.0066998935161897 12.389561666474066 33.92137524523879 191.35897619388462 0.682881596521119
2.017559821619016 12.337320539979014 31.343950051756355 201.75034733861034 0.701432551373174
2.027403272502966 12.28295529114701 29.005759736563988 212.82104146799674 0.7209397238900439
2.036220674363423 12.226510499812028 26.88360524270601 224.62613026625976 0.7414721921792737
2.043972797848026 12.167937793931777 24.954414812877182 237.22708440321261 0.7631082174127166
2.0506412009890944 12.107255249878136 23.199095218901636 250.690411127419 0.7859293612287299
2.0562144180183415 12.044509568453016 21.60281137730056 265.0892798833162 0.8100241642595366
2.060679033657446 11.979703736537655 20.151991576321862 280.505575968541 0.8354929660546039
2.0639979751870596 11.912844545928577 18.830765780277964 297.0284781320399 0.8624411354274202
2.066162581403141 11.84395287973975 17.62687639341027 314.75845958681134 0.8909896923513194
2.067165181650904 11.773085346606958 16.530694951720196 333.8050107574421 0.9212650334734914
