M[M_sun], R[km], Lambda[1], P_c[MeV/fm^3], rho_c[fm^-3]
0.24162668629717493 15.618656898711224 2160425.4255784233 3.5677272577965504 0.1711233750220791
0.25364086581294887 15.277403122664996 1723174.4468026266 3.784779209730332 0.17388766953307394
0.2660350696150582 14.981349445612299 1383103.1616506726 4.011316565807458 0.1766656349300485
0.2788075602374985 14.723676844273104 1116583.1420527482 4.247596673762221 0.1794559885429689
0.2919597647350039 14.498556002529456 906044.437563604 4.494244084637647 0.18226528509662324
0.30549180573485635 14.301420052818017 738774.1055009811 4.751411122221611 0.18508916661293484
0.319405114041096 14.128337927517297 605234.5289048108 5.019785421603446 0.18793436951467007
0.33370021306225506 13.976145525942274 497796.2805510336 5.299583662710258 0.19079737272325245
0.3483771427729304 13.84223863685307 411125.87893505703 5.591542920852188 0.19368464439011576
0.363438128821547 13.724155442156626 340761.8572567607 5.895819764023186 0.19659104990374113
0.3788877878299869 13.620183349447467 283393.1729366494 6.213282613662971 0.19952436167127033
0.3947152695266087 13.52865002371398 236494.0836852159 6.544196688551992 0.20248089727546636
0.4109366922171938 13.448065882811836 197948.74891395518 6.88924870521693 0.20546410345251334
0.42754062562670264 13.377223052800357 166152.12922926128 7.249150468749629 0.20847717874620197
0.44453215811763086 13.31509350940721 139869.29067106714 7.624172153877822 0.21151584989871972
0.46190837571746385 13.260713706491037 118038.2655764491 8.01524025321677 0.21458593217868055
0.4796690158151896 13.213301734163547 99863.69353485608 8.423069667103773 0.2176892381000558
0.49782039080901136 13.172114350304097 84688.71707539131 8.848116468461704 0.2208234571027023
0.5163538497280963 13.136518380504839 71976.83864088202 9.29122338819988 0.22399156700524728
0.5352680547603529 13.105946154954456 61314.449434568574 9.75328891330302 0.22719669342969714
0.5545699296387621 13.079917374909076 52334.7140372756 10.235121988984051 0.2304401862809071
0.5742446263806978 13.057965049311472 44757.44633757869 10.73721511548437 0.23371901648788415
0.5942973404907971 13.03959840426253 38352.639706448026 11.260770074722396 0.23703883598366038
0.6147296676844257 13.024558807873433 32924.363842630206 11.806743891526658 0.24040151834152348
0.6355255145361366 13.012489122988358 28312.281545695594 12.376114745235716 0.24380869502957353
0.656692242702844 13.003063775063836 24388.109676357 12.969600821724468 0.24725864950293885
0.6782177067885444 12.99601148638194 21043.241399679362 13.588470073837614 0.25075551300035825
0.7001003241395852 12.991074051307045 18186.23289925121 14.233947005673715 0.2543022386620638
0.7223291337136263 12.988016731886313 15741.92041530598 14.90722022710346 0.2579008090484672
0.7449103337104698 12.986644404529263 13644.66421143496 15.609356877374365 0.2615515015674433
0.7678241221130645 12.986752621151036 11845.22951318807 16.341547376810468 0.26525545996409516
0.7910627507406323 12.988125404881009 10228.623214579988 17.105442372786936 0.2690177383668496
0.8146299504943991 12.9906423614565 8963.693392613002 17.902495489855976 0.2728407665549139
0.8385066218043211 12.994109759468847 7764.225846027703 18.734117587838213 0.27672603995936446
0.8626809311490284 12.998366518087211 6820.4545959999 19.60156061767598 0.2806732194261324
0.8871502280414066 13.003310825054207 5960.9374948650275 20.506952557225823 0.28468906177243064
0.9119030797349199 13.008804369330237 5215.725050325446 21.452085636340815 0.2887765765761215
0.936916565667667 13.014698473189648 4569.492476753096 22.43850179254766 0.29293615766734776
0.9621883694914007 13.020895640700386 4008.307612343675 23.468108497706044 0.29717066697931604
0.9876937659423194 13.027275326399856 3520.60438993978 24.60602673976458 0.30172370068273846
1.0114634042126835 13.031756531571894 3122.6462049696884 25.70150546051533 0.3931693634704668
1.031805523939086 13.030381679706236 2811.9528661393947 26.978430829413043 0.4796903546889516
1.0495038524430982 13.02260175705027 2558.556333382721 28.375780181062222 0.5628664257756562
1.0650862264259549 13.008425995655795 2344.860543033991 29.896111520490965 0.6427787719652823
1.0790116508576284 12.988247782434607 2159.4538956201563 31.541966957746673 0.7196264437347434
1.0916167777709 12.962368604888665 1994.7822543784573 33.31612930886702 0.7936866148562534
1.103182655600661 12.931173338667717 1846.4195558260897 35.22182252212432 0.8652762252079453
1.1139466511621194 12.895121819578423 1711.041371114106 37.26172761488226 0.9344721825567115
1.124101001913518 12.85456343886053 1585.7019136544654 39.44018638526496 1.0017285630207273
1.1338115424262067 12.809832862565417 1469.0294479334514 41.76254198083621 1.067399565882672
1.1431825812667715 12.761203280494955 1359.797782873376 44.23248467371834 1.131272855243844
1.1524022756136194 12.70922786940098 1257.1430955766325 46.85546822928985 1.1934882778194569
1.1614975982727431 12.653989283979174 1160.7250759297167 49.637936408490305 1.2556781387278702
1.1705355806529028 12.595881596144924 1069.967588995272 52.58828732303291 1.3181305485716863
1.179596441361152 12.53522592136295 984.7203202789422 55.711543399700346 1.3808629237007122
1.1887242141075975 12.47234426721511 904.7157796488336 59.01903131805295 1.4442406186701053
1.197920421252761 12.407345187408048 829.9310029201325 62.51973644584791 1.508428697092128
1.2071968423406696 12.340432150304895 760.0815848498933 66.2236490312294 1.5736118071656064
1.2166048986151372 12.272029716772565 695.0872497473505 70.14186027696311 1.6399892100140254
1.2261275574318327 12.202159195139554 634.7455990025918 74.28665116903544 1.7077719950880907
1.2357638461838447 12.131026277990909 578.7856424913571 78.67076238401944 1.7771543624966093
1.2455056291080544 12.05877991305617 527.1477177174692 83.30649190320776 1.8482898208705523
1.255336289628584 11.985601466253415 479.62236969320924 88.21260517440483 1.9215080443943755
1.2652627824690965 11.911642191916648 436.0062775682902 93.40083442673719 1.9968896433710857
1.2752241672397409 11.836919037357067 395.9766069768924 98.892444470746 2.0747697295926146
1.285237887105816 11.76174012559312 359.42528921366676 104.70544962762857 2.155355885846482
1.2952322717487648 11.68578294734358 326.04935414111605 110.85982429216814 2.238895294468204
1.305206974419824 11.609484531174012 295.7126493138106 117.37768055853007 2.3259168717279533
1.315112924647505 11.532728020675817 268.13621841012394 124.2848127295467 2.4118936863145066
1.3250183015385404 11.455379958489093 242.9513064897872 131.58836426760357 2.4656485557591643
1.3349884392734976 11.377667949533643 220.00262397075898 139.30525721700113 2.522018927064591
1.3449522284402289 11.299421395200424 199.08205241313664 147.46632980391678 2.581177307575386
1.3548965065040501 11.221189855284901 180.10669546713112 156.10195417111288 2.6432797142763094
1.3647420982690581 11.142901477750385 162.96829040787745 165.2488953162952 2.708529046137066
1.37444128745506 11.064633478309371 147.5058617431801 174.9451192220016 2.777124563022379
1.3839437446084686 10.986416101426265 133.56376097140537 185.23179443264107 2.849278882181435
1.3931979121792168 10.908249549253286 121.0305103254253 196.1536705571448 2.9252195429379806
1.4021254153036484 10.830165712114391 109.76688328909667 207.76172381482647 3.0052124622667837
1.4106893629711375 10.752038801864222 99.65654698794303 220.10964157597292 3.089525260931336
1.4188228786078627 10.673843496740279 90.5875211725673 233.25629284876996 3.1784480217944275
1.4264749950814835 10.595588642465732 82.46560696328855 247.26720904871385 3.272304661348205
1.4336100730890928 10.51729910199506 75.17091106957916 262.2144407073848 3.371447769321468
1.4401703814142202 10.43875332815857 68.62809728000565 278.1753804257313 3.4762418987216894
1.4461069049705182 10.360004771861538 62.76672305725017 295.2369598901022 3.5871007651801863
1.451387426946091 10.281033702066196 57.506883601859855 313.4941317356384 3.7044658704233315
1.4559775459455786 10.201731913360875 52.79598462588148 333.0520311676168 3.828821720198492
1.4598341437193656 10.122050001265455 48.5525807699893 354.0267495247645 3.9606957784292907
1.4629328344082613 10.042058320592968 44.74881059411973 376.5466668484615 4.100663120787655
1.4652356719078101 9.961701388041815 41.33201702232763 400.7540873726898 4.24935287503637
1.466720025620927 9.88086344635646 38.262947578958034 426.8055669442733 4.40743832166472
1.4673685298763164 9.799458916487042 35.49640405267081 454.8772521621787 4.575681047611285
