M[M_sun], R[km], Lambda[1], P_c[MeV/fm^3], rho_c[fm^-3]
0.24162668629717493 15.618656898711224 2160425.4255784233 3.5677272577965504 0.1711233750220791
0.2536353992801823 15.277480918270639 1723384.5080653545 3.784660896322835 0.17388619481352577
0.2660226453695547 14.981611595636984 1383462.0615576538 4.011067856418569 0.17666262942386202
0.27878640032371405 14.724077843518545 1116977.0765437065 4.247209163436558 0.17945149400715682
0.2919310489985272 14.499008465604236 906423.6974042875 4.493707614398703 0.18225931137600435
0.3054550683923838 14.30189517440478 739162.4763640394 4.750707487543514 0.18508156601550443
0.3193606827239827 14.128836651993481 605571.9838267664 5.018909449438703 0.18792528096536668
0.3336473064835596 13.976668266376969 498166.32411201805 5.298512304264141 0.19078658592140518
0.34831476354862906 13.84275004958116 411451.12874046114 5.590273511595421 0.19367236250635408
0.36336424069648654 13.72470332649676 341052.1674467245 5.894323800601793 0.1965769994987078
0.37880369391598306 13.620730257720448 283671.74252187624 6.211542007998242 0.19950848944343366
0.3946225631922531 13.52911801523374 236742.26753803442 6.542213258172243 0.20246350527051915
0.41083112851071946 13.448532207178067 198181.9193969992 6.886984180912066 0.20544481781326238
0.4274229372564218 13.377695287081737 166365.76511199403 7.246583618890249 0.20845594385514257
0.4444038600602908 13.31550809500441 140043.56863439403 7.621310082482137 0.2114930659701042
0.4617675715879087 13.261121388430361 118202.05361086389 8.01203306650484 0.21456112199656469
0.47951554835231763 13.213666265276418 100003.0753648847 8.419492378073327 0.21766234188750522
0.49765367236596186 13.17246371149396 84811.98885698513 8.844182274935193 0.22079497186061878
0.5161718264999688 13.136836311615362 72096.74607528791 9.286868659089272 0.2239609094408229
0.5350736424446287 13.106225860373344 61413.74454909976 9.748484149075669 0.2271637974704868
0.5543604913180074 13.080163985626685 52417.430590550015 10.229835898776761 0.23040498298223702
0.5740215251010943 13.05813731133925 44836.44830045485 10.731470671233877 0.23368213537638988
0.594063134104938 13.039819730425476 38421.28418064666 11.254480940838652 0.23699954136134468
0.6144760808305091 13.024725832036497 32983.067144092725 11.799872949173675 0.24035973154810317
0.6352557759869848 13.012613387964832 28368.995944096736 12.36862256128996 0.24376433325248842
0.6564026115632914 13.003155101305056 24437.423811817378 12.961521799204505 0.24721247312317385
0.6779173881712783 12.996085455775193 21087.67653367803 13.579689563655494 0.25070662547210365
0.6997810888537351 12.991138236772601 18223.86475446881 14.22441797268872 0.2542505431930556
0.7219929461762665 12.988036771690497 15775.491589426407 14.896892615934181 0.25784620307519274
0.7445574528974305 12.986668007987886 13675.176636840417 15.598278122329726 0.26149487432048374
0.7674534129455062 12.98674309937361 11873.040083397114 16.329567553825655 0.2651957435511592
0.7906749848930369 12.98809580917802 10252.541641906648 17.092501415811324 0.2689548108752529
0.8142232101927661 12.990602910210498 8985.635181158577 17.888529352954603 0.27277449823394356
0.8380852053276624 12.994027758958003 7833.443678264265 18.719178751339985 0.2766573634050202
0.862242538405146 12.998293422208818 6837.310749119719 19.585473994649327 0.280601048893914
0.8866892757487138 13.003211629384873 5975.885458358598 20.48963135798775 0.284613157591675
0.9114237878068143 13.008692034558651 5229.386727556725 21.43344722003893 0.28869677227495966
0.9364229131634272 13.014583463771615 4581.424646679178 22.418623762268453 0.29285359564640207
0.9616721617824955 13.0207675807132 4018.8263249512997 23.446741602213145 0.29708388966799615
0.9871723509085983 13.027148792687699 3529.436413894856 24.52042552462343 0.30139546339658735
1.0128899053633218 13.033610600851784 3103.547960255787 25.64187512725072 0.30579189142534396
1.0388288999585469 13.040055037874081 2731.845345694218 26.812524804058476 0.3102705654499569
1.0649579925870425 13.046387955048635 2407.567311106522 28.03571050256812 0.3148420864854293
1.091261767598175 13.052509154271704 2123.958343097227 29.313788786350614 0.3195090109363642
1.1177359290448707 13.05835992149689 1875.9761206449868 30.648895142785655 0.3242718115929628
1.1443485271034661 13.063829766519513 1658.5868111568209 32.04481576261433 0.32914125872583017
1.171083299787762 13.06885155856024 1468.044211673808 33.50352700926746 0.33411529076816804
1.1979157531439835 13.073317361554633 1300.879182919014 35.029157930976275 0.33920492732576774
1.2248406456914314 13.077210483237376 1153.8306971086724 36.624363148957286 0.3444109099152484
1.2518201701896519 13.080410725478973 1024.4346664097088 38.293394698612566 0.34974288093101336
1.2788353538987418 13.082861806356608 910.6153477526365 40.039278408749354 0.3552021675270725
1.3058595697200284 13.08447462668798 810.2308563382753 41.86708747468936 0.36080101277627774
1.3328783611859247 13.085219041552618 721.728356976766 43.779783263285594 0.3665385627784324
1.3598684766733011 13.085057527059693 643.5103865016836 45.78299475431238 0.3724278639588892
1.3867821105190115 13.083843534910203 574.3067801400057 47.88155733246918 0.3784761826325955
1.4136149140476963 13.081580515963529 513.1339847802784 50.079635269512806 0.3846862334101361
1.4403416702160587 13.07821254025794 458.9479345004717 52.383527251686395 0.39107066904501964
1.4669097398053366 13.073637750953102 410.8985124053749 54.799073300643805 0.39763828224369324
1.4933121817708699 13.067842771081898 368.22958433141474 57.332428164243964 0.404398075138413
1.5195135532928254 13.06076659330857 330.3644250318861 59.99018155686837 0.41135975511586
1.5454883697070765 13.052338415579193 296.6755609237559 62.77939728525995 0.41853379280515907
1.5711984753794894 13.042527428875742 266.723160959252 65.70765611554268 0.42593148478799286
1.5966177267710846 13.031275211208536 240.03559967383896 68.78310276051737 0.43356502158349836
1.6217120897512542 13.018540233290464 216.2554413586104 72.01449741341888 0.4414475615282602
1.6464436820449726 13.004271616547376 195.02348526505926 75.41127230771941 0.4495933112466315
1.6708087064520665 12.988432038381063 176.08112889669223 78.98359384306043 0.4580176134898815
1.694739400942988 12.970973908541511 159.13143724353486 82.74158808629875 0.4667335826376086
1.7182305363562895 12.95186199272006 143.9801025170851 86.69706575928573 0.4757591604509268
1.7412330391539972 12.93104337233887 130.41062167839755 90.86303160681443 0.4851146653815156
1.7637182332718806 12.908494793790712 118.26393383432737 95.25161026841961 0.49481438640947356
1.7856539297044005 12.884148885482492 107.35019614344121 99.87831947499724 0.504883352958027
1.806994232957544 12.857980819236035 97.56477794113368 104.75849615150779 0.515342841798499
1.827744714167848 12.830015790764467 88.76834150220417 109.90794432176618 0.5262129295008509
1.8477310861912806 12.80013350671068 80.88871030832689 115.3554753519063 0.5641829849900434
1.8665347233587122 12.768245718774839 73.92262284570356 121.15660348092821 0.6189334409644675
1.8840404112511495 12.733905773095955 67.74147536478432 127.3422065435095 0.6764658466153345
1.9001862652734869 12.69684853095035 62.24610456172636 133.94333033594742 0.7371000025406625
1.9149618254558718 12.65699637472589 57.351303632478526 140.99440658932798 0.8011877375426973
1.9283365847250507 12.614191077154654 52.96857339703942 148.5332211829615 0.8691078960670153
1.9402968728703673 12.568377560805763 49.040665038627 156.60153250984018 0.9412742051786402
1.9508355672129833 12.51957292505045 45.51408966493153 165.2459632410673 1.01814444371944
1.9599067908053478 12.467638439125503 42.34369885430381 174.51812915521893 1.1002177290976702
1.9675156585920357 12.412622478893223 39.48168658393657 184.47547578085968 1.1880421800279113
1.97366590646187 12.354567249323129 36.907104736460596 195.1816637893507 1.2822164391242026
1.978332296752462 12.293491164292494 34.57970285366793 206.70810200183377 1.383403697352225
1.9815096204861589 12.229365109443362 32.47364088840112 219.1348624636422 1.4923370525522182
1.9831869292642499 12.16228786390228 30.573385101952983 232.55038322002272 1.6098134613922692
1.9833743056333768 12.092312919279339 28.853958112960914 247.05469031165867 1.7367225786179463
