M[M_sun], R[km], Lambda[1], P_c[MeV/fm^3], rho_c[fm^-3]
0.24162668629717493 15.618656898711224 2160425.4255784233 3.5677272577965504 0.1711233750220791
0.25364501296396635 15.277249312769264 1723210.39788297 3.784837510563364 0.17388839622483243
0.2660411034176995 14.98126148918832 1382893.2688854937 4.011439125413232 0.17666711599055454
0.2788173904421158 14.723486313699311 1116311.0768656454 4.247787638130853 0.17945820344186786
0.2919736154622645 14.498351676546239 888663.2528301115 4.494508464413443 0.18226822902678605
0.3055101458787858 14.301146090461783 738630.8163178929 4.7517578938470875 0.1850929124083136
0.3194283035080343 14.128057657347986 605052.1371214454 5.020217139050924 0.1879388487498153
0.33372511651655823 13.975925267842788 497647.7847849292 5.300111691339744 0.1908026890953934
0.3484093064531902 13.841908768923219 410947.995592822 5.59216857857138 0.19369069780066148
0.3634741558569269 13.723895943786763 340635.11558638717 5.8965571063970925 0.19659797517935515
0.37892845833400757 13.619954493558485 283265.0462273246 6.214140562887619 0.199532185135161
0.3947624674265513 13.5283872787975 236375.83483921248 6.545174353409649 0.2024894700755075
0.41098863224970944 13.447819222510903 197837.74361623055 6.8903649585022935 0.205473609933909
0.4275979347313442 13.37700309845871 166062.19390590457 7.250415784383904 0.20848764637817171
0.44459502307875354 13.314868402697945 139780.28163122974 7.625583034249517 0.21152708141367152
0.4619779968313303 13.260512358797904 117956.9102982659 8.016821306140438 0.2145981629012715
0.4797442148630927 13.21310722081311 99793.72511930428 8.424833220335 0.21770249755495244
0.49790309234463104 13.171939494610989 84627.04460909584 8.850056019171141 0.22083750027854487
0.5164434546979414 13.136354867088155 71923.75458286966 9.29337032261455 0.2240066815573723
0.5353639655692095 13.105806231808405 61263.83839376608 9.755657786914112 0.22721291199235655
0.5546726559120532 13.079786825834843 52295.138709183964 10.237727946095928 0.23045753910651579
0.5743569361150916 13.05781905189444 44718.75319706691 10.740047422934433 0.2337372007790526
0.5944158317038487 13.039496415465694 38321.00698173427 11.263871028186498 0.23705821079701986
0.6148544723449836 13.024489573624862 32893.69592768026 11.810131808293018 0.24042212252807726
0.6356611122258239 13.012436147973698 28284.246947652147 12.37980908529073 0.24383056949117027
0.6568334778627293 13.002999549815733 24364.274140534995 12.97358462018379 0.2472814192612989
0.6783669604650873 12.995967655565046 21022.240498220184 13.592799897869135 0.25077962030053647
0.7002575649408913 12.991045451809365 18167.6195183978 14.23864606892998 0.2543277313095669
0.7224934836823506 12.98800376811081 15724.37316836235 14.912313234668085 0.25792773769928506
0.7450836365713054 12.98665383925755 13630.456332339745 15.614820432336286 0.2615794276362894
0.7680065902165929 12.986757489630087 11832.893051710169 16.347455461889485 0.26528491028641515
0.7912541443784874 12.988147059369552 10286.835442709275 17.111824636615935 0.2690487731546342
0.8148309128147471 12.990675968545329 8953.630343946154 17.909383546618272 0.27287344989173135
0.8387156236092849 12.99414434900759 7805.288846239209 18.74148088741932 0.2767598705110661
0.8628980719489777 12.998418301924536 6811.772631668736 19.609494893432707 0.28070881551756693
0.887381848994092 13.003367725609964 5953.33657188464 20.515495992862114 0.2847265004320695
0.9121389235562701 13.00885934268423 5209.3927343902815 21.461279030130864 0.28881594002604327
0.9371628489961817 13.014751977351873 4563.8441191180145 22.448306850110132 0.29297688229430907
0.9624471227373107 13.020967068399395 4003.1228749918523 23.4786482550455 0.2972134720655386
0.9879715856582847 13.02734547581127 3515.287075919045 24.554705815639338 0.3015316427191753
1.01371543477778 13.033811609945234 3090.7304925862854 25.67839641504639 0.30593283410855043
1.039681246147867 13.040269447984564 2720.4193703234937 26.851733296667575 0.3104186880747786
1.065834857648876 13.046588621985952 2397.274753126342 28.07778959735518 0.31499775535443936
1.0921698312500931 13.052721709537638 2114.852125006831 29.35858941516823 0.31967026569238133
1.1186699073983346 13.058553277945308 1867.6835742149462 30.69695183471257 0.324441334687731
1.1453026833592987 13.064007870560506 1651.4214611036296 32.09621287925927 0.3293185858177242
1.1720678647450495 13.069016841845754 1461.456213261919 33.55838193822504 0.33430015753453496
1.1989262271655106 13.073474725482948 1294.8989564480155 35.087970504782675 0.3393994045632207
1.2258745808370655 13.077342502842273 1148.5863666062842 36.6869627902159 0.3446128466677325
1.2528726708227582 13.080501053548776 1019.7402721639868 38.360450258992124 0.3499551609632736
1.279916288899698 13.08294537703096 906.314217659055 40.110716816121155 0.3554231740934509
1.3069618767589164 13.084521919872214 806.4726073062305 41.943152935217206 0.3610309701873201
1.3340005654868663 13.085238022810373 718.291321623332 43.86132795884625 0.3667809557854497
1.3610101592180728 13.085033077277505 640.343906161473 45.869847928804894 0.3726804211922015
1.387942610770349 13.083770937836753 571.5433600094557 47.9740896849289 0.37873955957778915
1.4147933629703227 13.081457839144036 510.60640057442066 50.17886064591886 0.38496427384968834
1.4415253849642813 13.078019138885711 456.68405296037537 52.489288241521955 0.3913610490978895
1.4681210620797716 13.073413250733484 408.83787498751747 54.911837836854716 0.3979418240949134
1.4945319476133763 13.067542914319363 366.3682703324311 57.45270206501753 0.40471566450154806
1.5207438060504106 13.060392867055125 328.70667930978226 60.11851191581344 0.4116923464468549
1.5467300631293295 13.05189729370954 295.1589091401997 62.91637619968433 0.4188824150326757
1.572444666222282 13.04201385018077 265.3437002214929 65.8539247904589 0.426297247615616
1.5978595392131858 13.03067158323407 238.81301441755605 68.93935603058677 0.43394912242570854
1.6229562520851555 13.017851037778977 215.13925465389323 72.18148873022693 0.4418512931494394
1.6477084755172493 13.003503646144306 194.0008369184494 75.58981924565012 0.450018070180707
1.6720582220779012 12.987564235007058 175.15007181080205 79.1742054861164 0.4584633279778627
1.6959948862480456 12.970003350683134 158.2907936072018 82.94501168814327 0.46720104948218166
1.7194744983065624 12.950786040117295 143.2133698368646 86.91490021842704 0.4762524483242888
1.7424542081051975 12.929832610721403 129.71930582983947 91.09536763170043 0.4856315275170704
1.7649374515339271 12.907179300947355 117.61489510392849 95.50068388419291 0.495360909537916
1.786863976791067 12.88274166603425 106.77687696782708 100.14434749107384 0.5054574298754215
1.8082006144304934 12.856470272588728 97.04016769357192 105.04298072526029 0.5159471506268587
1.8289145169597354 12.828337433513864 88.2900747370084 110.21313448283098 0.5268526233331638
1.8489871744541653 12.798347475634593 80.42607306180439 115.67256069892977 0.5381976411687505
1.8683616682992534 12.766400359305452 73.35096116913813 121.44126559351517 0.5500107606235871
1.8870370481723608 12.73257255776177 66.97595896781246 127.54068996757151 0.5623218319571643
1.9049589854538755 12.696744627702708 61.228988708329815 133.99346785391356 0.5751608176178684
1.9220974387502232 12.658916312596936 56.04712503477176 140.82523042571597 0.5885637890004343
1.9384092881216621 12.619016399987329 51.36633458059217 148.0636648473639 0.6025690077196596
1.9539030840377791 12.577160169198299 47.14167708587318 155.73717062249307 0.6172118593493073
1.9685160144703844 12.53322016288475 43.320203914278565 163.87952631612418 0.6325403572652477
1.982227854689125 12.487208134186123 39.860515031552055 172.5246630107929 0.6485965446906541
1.9950116824059747 12.439115902292388 36.72757646594416 181.7116347424129 0.6654327412245098
2.0068452573633246 12.388945102094876 33.88652872107058 191.48260350429638 0.6831038428197328
2.0176885707980428 12.336657773176983 31.313905843939246 201.88363579095494 0.701669125228264
2.027521380846717 12.28226361712423 28.97865114514389 212.96456301240306 0.7211908062453615
2.036326423397345 12.225780355364712 26.85648565109055 224.78121334045468 0.741740256965024
2.0440657687675037 12.167174682454696 24.930819044850615 237.39448454264706 0.7633936500280911
2.0507209222376654 12.106451741906287 23.177670202302817 250.87144590287474 0.786234143994827
2.05628868501862 12.04369102238946 21.58468592846925 265.2854204505384 0.8103505108130314
2.060729189759651 11.978828111747568 20.133092439475785 280.71772972788654 0.8358409475982855
2.0640290421050604 11.911921915382136 18.813140350909915 297.2586494194192 0.8628140541553226
2.066184969243042 11.84300296777611 17.611281732964013 315.00849670933985 0.8913899526059705
2.0671708268302615 11.772098829428298 16.516558487146444 334.0765628591792 0.9216939283267563
