M[M_sun], R[km], Lambda[1], P_c[MeV/fm^3], rho_c[fm^-3]
0.24162668629717493 15.618656898711224 2160425.4255784233 3.5677272577965504 0.1711233750220791
0.25363845868568996 15.277419115053833 1723150.127445895 3.784734398973171 0.17388711098860335
0.2660301457447086 14.981471751778152 1383164.009473016 4.0112223667660025 0.17666449659022498
0.2787998472486975 14.723810671692283 1116661.428500144 4.247449901711663 0.1794542862083632
0.29194864584658803 14.49875243049089 906181.9895557851 4.49404089041809 0.18226302248182955
0.30547787719147085 14.301604168693013 738920.6414063162 4.751144609060106 0.1850862877621426
0.319387021232796 14.128534604382853 605332.3782226966 5.019453628670204 0.1879309270349274
0.33367917735285074 13.976360302800712 497964.04918770166 5.299177857899793 0.19079328694216302
0.34835441147572027 13.842414777198396 411246.494290501 5.591062093411323 0.19367999225235433
0.363408101117389 13.724437258613573 340870.12725723494 5.895253115190598 0.19658572781798977
0.37885557570568795 13.62039098439189 283510.85951774084 6.212623289767462 0.19951834943122093
0.39467994029810777 13.528840338571447 236604.84070867312 6.543445376569135 0.20247430928434948
0.41089703413498474 13.44821989280244 198025.6447825028 6.888390906022341 0.20545679807461076
0.42749626718312633 13.377394432603317 166231.94670970005 7.248178137204164 0.20846913489651356
0.4444826638522673 13.315243097496051 139935.94072046032 7.623087979640222 0.2115072191746667
0.46185613521728763 13.260852894514322 118093.43862870777 8.014025332218027 0.21457653378253383
0.4796103109971727 13.21343594140945 99916.37155426809 8.421714530811977 0.2176790493695873
0.4977583891253798 13.172236593527348 84737.28418001658 8.84662611530803 0.22081266630909077
0.5162863090883903 13.136638502039785 72025.85810603035 9.28957370824164 0.2239799531554957
0.535194431674946 13.106047846825126 61351.88671984403 9.751468727589378 0.2271842314748211
0.5544902525602526 13.08003456163854 52367.58661094106 10.23311943956467 0.2304268500829711
0.5741600242580404 13.058006600489447 44786.345081483225 10.735038904345354 0.23370504453826582
0.594211815351595 13.039669519042208 38377.73379073912 11.258387487234131 0.23702394953391767
0.6146329187660488 13.0246314726925 32947.65782827091 11.80414086063443 0.2403856875706376
0.6354238739288443 13.012547237915179 28332.407794316565 12.373276326623227 0.2437918885423499
0.6565797476939083 13.003089446444204 24408.412971288402 12.966540049321543 0.24724115538301253
0.6781038082406194 12.996041667078657 21060.372114015267 13.585143501718722 0.25073699153804224
0.6999803221422694 12.991107955600238 18200.185768898686 14.230336807842093 0.2542826531626315
0.7222013085554186 12.988026560118337 15754.901171004993 14.903307432648015 0.2578801206292422
0.7447758508178692 12.986663036178607 13656.284227889402 15.605159459181834 0.2615300471499006
0.7676835735693365 12.986746239737942 11855.15163984458 16.337008518065463 0.2652328348916364
0.7909161700748837 12.988108437404023 10237.687741187958 17.100539307677316 0.2689938964215387
0.8144773622227446 12.990621114564057 8972.256424496152 17.89720394379771 0.2728156585472311
0.8383451740736466 12.994082336099515 7820.957004032046 18.72846102551263 0.27670005098226236
0.8625149015179182 12.998330008073939 6827.083439254722 19.595465524960122 0.2806458745890901
0.886975856592188 13.003278071392078 5966.655021693049 20.50038961683258 0.28466030195002745
0.911721103656898 13.008770670491682 5220.84268271649 21.44502352417315 0.28874633865691535
0.9367281725304673 13.014652124674829 4574.49804629175 22.430969917815712 0.2929048745477104
0.9619930978296113 13.020847206174352 4012.443708333312 23.460012389212533 0.29713778627713566
0.987504415914263 13.027237578004412 3523.6238627561356 24.534683328651266 0.3014521028834926
1.0132352222295016 13.033691545304851 3098.1242567552267 25.6570647966569 0.3058505112849476
1.0391828366902203 13.040145935066043 2727.0704708116696 26.828831838562216 0.31033217048991174
1.065324539600604 13.046475045507862 2403.181383378128 28.053211135999284 0.3149068289383498
1.09163820548179 13.052600490665856 2120.0932033591957 29.332421042314202 0.3195760756175697
1.118123665057422 13.058444101626993 1872.5630249149187 30.66888122197211 0.32434231378235867
1.1447423360156075 13.063898588988232 1655.5742866797966 32.066249310120405 0.32921538427096136
1.171494362213178 13.0689160752438 1465.3086915855715 33.52633964450234 0.3341921717009907
1.1983416544092123 13.073398250473828 1298.343086874917 35.05361599799296 0.33928580352279497
1.225270676566196 13.077261229787648 1151.6343217727454 36.6503957389397 0.34449488702077335
1.2522542972683268 13.080436345130806 1022.514464873989 38.32130096218303 0.3498312818563434
1.2792849393729895 13.082897181206473 908.795239590751 40.06898567230916 0.355294071875971
1.3063179998345182 13.084500511401064 808.6978484448389 41.89871838392273 0.3608966378069519
1.333343908865081 13.08523052314922 720.2369741831249 43.81369199284252 0.36663935705897915
1.3603434474885707 13.085050590513822 642.2041017766484 45.81911033148898 0.37253288315138844
1.387266237590464 13.083817339061781 573.1565198623822 47.92003381822193 0.3785856991315277
1.414105225129186 13.081531806580637 512.0786166992623 50.12089399337523 0.38480184490120395
1.440836441163293 13.078137443664271 457.9931945325279 52.42750279379525 0.39119140940743874
1.4674163864082215 13.073551519825767 410.0386376509416 54.845960116724356 0.3977644931201721
1.4938199559223602 13.067716057297506 367.45288654617826 57.382436448259114 0.4045301245603549
1.5200245499396985 13.060612548906409 329.6460947341106 60.043538648816025 0.4114980396681262
1.5460049632557156 13.05215553878076 296.04126619345305 62.836349219312446 0.4186787400052022
1.5717177740730681 13.042312816677413 266.14326103488736 65.76846932414396 0.42608355570233997
1.5971336967064798 13.031021306869967 239.52843597641925 68.84806595195077 0.43372471370726096
1.6222318631318273 13.018239118958217 215.69072686999166 72.08392364251029 0.4416154119564094
1.646975556617908 13.003954861936126 194.60132729909014 75.48550126177366 0.44976990016922536
1.6713300465263017 12.988072065016617 175.69530594561 79.06299436789885 0.4582035680473665
1.6952541723781023 12.970561337429356 158.7899707222316 82.82615599930813 0.46692791945540246
1.7187304825201477 12.951377938541787 143.66203335147338 86.78762263609923 0.47596422722207826
1.7417471467034635 12.930550475200135 130.1324265837935 90.95961516734056 0.48532952825255554
1.764227844929534 12.907951234116798 117.994242067909 95.35514938977778 0.49504157436089574
1.7861581492533725 12.883564706431489 107.11287839790404 99.98890426419509 0.5051219901355306
1.807503621363332 12.857367383443655 97.3435494779455 104.87682306070485 0.515594314477895
1.82823339225373 12.829326634516324 88.57057417072656 110.0348891754994 0.5264791529711995
1.8483155027290918 12.799401199883816 80.67836573457508 115.48153139107998 0.5378030405378792
1.8677141179832124 12.767565941822788 73.58328553802124 121.23661044052174 0.5495941577298391
1.886398626106832 12.733792184403983 67.1866091225303 127.32136141193395 0.5618817992713405
1.9043366248610931 12.698045953399431 61.42258077350234 133.75881349932976 0.5746975370623896
1.921485933417254 12.660278190669297 56.22386888770546 140.57319828639416 0.5880727345500566
1.9378285209416408 12.620500083219476 51.52761338846895 147.79274638637875 0.6020478825809208
1.9533482312413721 12.578744408474936 47.28923623607014 155.44660077081457 0.6166612003939244
1.9679866683406422 12.534895111193126 43.456154199062766 163.56692953143542 0.6319554897044237
1.9817293891104384 12.488986020202713 39.985015653747325 172.18839941068762 0.6479756707193611
1.9945411716470491 12.440992548190607 36.843371823968205 181.34987030969197 0.6647737822941607
2.006400683183488 12.390912126216326 33.99385843761516 191.09299021170693 0.6824034303309361
2.0172891501520915 12.338764768355169 31.410602615411214 201.46358356839394 0.7009235739679532
2.0271463571626493 12.284447391639363 29.067661238711725 212.5121148439102 0.720399037914752
2.0354345187001677 12.229040173228233 27.010382766949938 224.47169555996848 0.9025110250836537
2.040750651935811 12.172436108325707 25.318603481721148 237.75218111608086 1.121463437978277
2.0429828032591275 12.113116170040334 23.92211685144356 252.48467397280018 1.348074190524352
