M[M_sun], R[km], Lambda[1], P_c[MeV/fm^3], rho_c[fm^-3]
0.24162668629717493 15.618656898711224 2160425.4255784233 3.5677272577965504 0.1711233750220791
0.25364192150839443 15.277336943062098 1723163.7374500732 3.784802294303033 0.1738879572711363
0.2660378267461893 14.981282313300952 1383067.266322562 4.011365093715321 0.17666622136117582
0.2788112536259656 14.723610112677598 1116549.4537039811 4.247672286294921 0.17945686553440257
0.29196492652286005 14.498479665023574 905944.3273213027 4.494348765423747 0.1822664507414716
0.30549956114618554 14.301301330634386 738680.4723736336 4.751548425075111 0.18509064974579909
0.31941414326968737 14.12820951562385 605156.5864285933 5.019956357400755 0.1879361430395423
0.3337107640408894 13.976022405159325 497756.5545631068 5.299792731027689 0.1907994776943019
0.3483907710572438 13.842112480487861 411057.1093307902 5.591790643134954 0.19368704117134758
0.36345230128930334 13.724046571163587 340687.86269129295 5.896111704862502 0.19659379187388526
0.3789042365313373 13.620068903312378 279438.12924864993 6.213622305145947 0.1995274592485799
0.3947339395520938 13.528563078387771 236439.4704009867 6.5445837774479925 0.2024842915221528
0.41095698040404016 13.447953758029769 197913.62094869444 6.889690663138049 0.20546786735163006
0.4275641895583733 13.377118396788143 166108.3493318671 7.249651441985527 0.2084813231693941
0.4445561691573279 13.314995850763031 139827.23846370672 7.624730757290052 0.21152029674106188
0.4619360618388346 13.260659495301189 118006.14305320394 8.015866228694458 0.21459077460507991
0.47969873693360393 13.213221262987926 99833.84745572782 8.423767894711784 0.21769448779556377
0.4978533546938998 13.17204600668343 84661.43459393429 8.84888437331646 0.22082901706195124
0.5163897400281023 13.136457757763385 71956.36136042289 9.292073395422971 0.22399755110908962
0.5353057444387002 13.105890234952591 61290.99214658818 9.754226784719824 0.22720311459386086
0.5546103581435203 13.079850372844527 52313.72241994815 10.236153836468404 0.23044705798262788
0.5742905927996794 13.057880908379973 44743.24389930668 10.738336455457182 0.23372621583785724
0.5943446765505714 13.039553908790893 38337.595366809306 11.261997767661212 0.2370465066313588
0.6147790069561717 13.024540584530092 32911.43805458621 11.808085188189498 0.24040967566313762
0.6355781775226229 13.012451988584523 28302.989974828386 12.377577348657445 0.2438173552129631
0.6567485087387722 13.003041609222953 24378.768311956057 12.971178015521865 0.24726766409592602
0.6782774329755388 12.995989299606435 21034.796488324562 13.590184250440524 0.2507650570764279
0.7001632301556343 12.991072304781564 18042.65599464569 14.235807353799556 0.2543123311414408
0.722393874153531 12.988011193313325 15735.727806267103 14.90923652576123 0.2579114699795203
0.744979075252454 12.986655891982707 13639.111031739852 15.61151986422166 0.2615625573214408
0.7678959608974246 12.986754136572804 11840.011331433832 16.34388633744493 0.26526711909622636
0.791137957934143 12.98812943588282 10292.525663411268 17.10796904280592 0.2690300247075497
0.8147105323514178 12.990648924890781 8959.680830161582 17.905222382780874 0.2728537054668604
0.8385882767873778 12.994127304283637 7809.938172152877 18.737032610071488 0.2767394329782533
0.8627665229383062 12.99839688841667 6817.285590844092 19.60470166350357 0.28068731131780683
0.8872391621314635 13.003331183196687 5958.159378045003 20.510334740229258 0.28470388302276745
0.9119978486711465 13.008821890677574 5213.398100951485 21.45572510486699 0.2887921597264078
0.9370138002766087 13.014715865299396 4567.154365423604 22.44238338798418 0.29295227960494574
0.9622901625636522 13.020926312762201 4006.452193608951 23.472280920045577 0.29718761242618436
0.9878113276175892 13.027312074950615 3498.8109910989406 24.547864636813244 0.30150446596335934
1.013551734440076 13.033770912292766 3076.99302166257 25.671107873848833 0.30590470622437527
1.0395127648043783 13.040217561697181 2722.7563539003168 26.843908288352072 0.3103891266024083
1.065662490973298 13.04656386434562 2399.2917496219047 28.06939149278526 0.3149666871138595
1.0919887286582526 13.052677786663974 2116.7220117096103 29.34964797890853 0.3196380820119163
1.1184838896958815 13.058515974377896 1869.4763785107186 30.68736031419493 0.32440749997759
1.1451117909778759 13.063967097677303 1652.878760543854 32.08600257940883 0.3292835042331122
1.1718718357596383 13.06898981773885 1462.8510763111344 33.54743309258525 0.3342632587958556
1.198723759571594 13.073444123367569 1296.0586395112325 35.07623143667088 0.33936058664744356
1.2256680616833797 13.07731438369317 1149.6188405785172 36.67446756569896 0.34457253900766005
1.252661119639837 13.080485832742111 1020.6987389454561 38.34710599345844 0.34991302653839856
1.279700237267771 13.08292892786863 907.2207839582012 40.096456667529885 0.3553790579577174
1.306741065568591 13.084515102357363 807.1790616306764 41.927968838002286 0.3609850663610588
1.3337765067146954 13.085230144551875 718.9278728966779 43.845049673262025 0.36673256830218404
1.3607816244486903 13.085036547320481 640.9613442039624 45.852509563443824 0.3726300035809704
1.3877117946192434 13.083784998973046 572.1128017503084 47.95561718223443 0.3786869808720671
1.4145662255859974 13.0814967269384 511.10794502546645 50.15905144812162 0.38490876629444176
1.4412882741925883 13.07805616512125 457.1079652221083 52.46817379531311 0.3913030767394994
1.467880508125006 13.07346263249585 409.24460499014714 54.88932464944643 0.39788122264331877
1.494287905075873 13.06760055811897 366.7346427318416 57.42868907056566 0.40465225696619844
1.5204985686220023 13.060465418137968 329.017943794262 60.092889797378355 0.4116259420937206
1.546480852427077 13.05198771193835 295.4544443885806 62.88902664353612 0.4188128082378924
1.5721962347827865 13.042116828798113 265.61892264690357 65.82471966519316 0.42622421660467397
1.59761941414558 13.03079921161281 239.0546480028692 68.90815648259867 0.4338724278857896
1.6227002863650744 13.017960953676722 215.35859493458892 72.1481441860542 0.4417706767010296
1.6474581707018696 13.003660375414796 194.20823514234084 75.55416631051888 0.44993325269294426
1.6718072485557685 12.987737950448869 175.33319332774386 79.13625289385362 0.4583747850143195
1.6957454857843932 12.970200558541823 158.45825362878222 82.90438915159251 0.46710769901150007
1.7192105977547276 12.950966682769213 143.3730889910899 86.8713986236844 0.47615393861538857
1.742213580367028 12.930078256316685 129.86122242291182 91.04896887154779 0.4855283073545004
1.7646940813160301 12.907439746472543 117.74985004232536 95.45094098293394 0.49525176250550373
1.7866227746629624 12.883020430209903 106.88560134768102 100.09121713615473 0.5053427768745012
1.8079629549913736 12.856776954762566 97.14152579297377 104.98618740916606 0.5158265499010891
1.8286756102172668 12.828660495466496 88.38251659283932 110.15234566190313 0.5267254778320015
1.8487576498670273 12.798708213612397 80.51140460594499 115.60726415247011 0.5380627610358708
1.8681470762358972 12.76681929565518 73.42627625495705 121.37131048718875 0.549868357662793
1.8868205647187162 12.73298708442395 67.04877823274498 127.46578446605216 0.562171655188584
1.9047468238215737 12.697188460135088 61.29519536541139 133.9132560661494 0.5750024546432829
1.921893445555845 12.659393656494903 56.107693675134165 140.7390769699323 0.5883959293060642
1.9382119250543992 12.619523135054106 51.423530177782204 147.97105379756633 0.602390865757687
1.953714745031948 12.577706534479194 47.19379650061807 155.63784035335254 0.6170236185461859
1.968335491630972 12.533792850629046 43.36532054326241 163.7728598731797 0.6323410806840642
1.982059047417953 12.487819062183707 39.90142864437124 172.40970844214866 0.648384293648525
1.9948530706897862 12.439760410325293 36.767290898993004 181.58796031063144 0.6652074665321768
2.006690918549617 12.38960831567224 33.92609482018141 191.3494060893961 0.6828643922295038
2.017549932645066 12.337371805682949 31.344889979158584 201.7400294582566 0.701414238153321
2.0273937243905173 12.283010072464542 29.00841958089395 212.8099315469069 0.7209202877477827
2.0362127605809768 12.226566734703557 26.885339064551438 224.61412550164587 0.7414514416578457
2.0439656192547684 12.16799706342641 24.955815292946106 237.2141263243768 0.7630861226979521
2.05063510952386 12.107317221620407 23.200358530568106 250.67637801641115 0.7859057045755997
2.056210476987288 12.044574280221411 21.605101968915097 265.07409533760676 0.8099988962932726
2.0606753071273993 11.979770723551496 20.153775952441283 280.4891541576383 0.8354660304625805
2.063995900489478 11.912914518682776 18.83212637125749 297.010661884575 0.862412269914192
2.066160848468297 11.844026282157284 17.628141173548574 314.73910588028673 0.8909587108737546
2.0671633072280686 11.773163257017451 16.531400015134796 333.7839919788424 0.9212318359916613
