M[M_sun], R[km], Lambda[1], P_c[MeV/fm^3], rho_c[fm^-3]
0.24162668629717493 15.618656898711224 2160425.4255784233 3.5677272577965504 0.1711233750220791
0.2536416587501908 15.277343237471635 1723289.6918719485 3.784793126188092 0.1738878429950064
0.26603709625529603 14.98128987441629 1383037.9778150609 4.0113458206448005 0.17666598845749276
0.2788107242552294 14.723612798952525 1116526.9231597797 4.247642256371707 0.1794565172325474
0.2919632680621715 14.498520770615398 905985.7552731514 4.494307190785589 0.18226598779822673
0.3054960237145395 14.301348803562467 738774.9427675415 4.7514938942401885 0.18509006070870826
0.3194111345882154 14.12825863265367 605210.947085686 5.019888468835783 0.18793543866947818
0.33370656881570027 13.976062175229801 497752.02623369906 5.299709697615593 0.19079864168561944
0.3483859424193231 13.842148024370728 404837.4684682624 5.591692257721057 0.19368608926540323
0.36344615803926733 13.724115208332654 340723.46937750455 5.895995757325944 0.1965927028700848
0.378897778285563 13.62011083850433 283368.3977486902 6.21348739259496 0.19952622900856018
0.39472692687848554 13.528574927840662 236453.68530303545 6.544430040114808 0.20248294345342974
0.41094910612504953 13.448008590836167 197922.53464367654 6.889515133460761 0.2054663724672401
0.42755434019647937 13.377166672929928 166132.931921097 7.249452473106447 0.20847967715084884
0.44454705744868744 13.31504337243869 139849.32374529765 7.624508899284242 0.21151853060868142
0.46192554439386907 13.260675241796482 118022.36596893438 8.015617612267327 0.2145888513560183
0.47968685606615075 13.21324682490484 99844.45908355035 8.423490581543268 0.21769240278821322
0.4978400687172087 13.172075629753863 84671.31859457408 8.848579386022593 0.2208268088236326
0.5163757163029536 13.136477268128491 71965.59682465416 9.291735798941216 0.22399517440881136
0.5352909243577134 13.105914735598253 61301.3091260872 9.753854290485021 0.2272005643011567
0.5545935608421217 13.079893544664982 52319.69476983499 10.23574401687149 0.23044432874398357
0.5742716034420874 13.057903442514498 44747.99733076537 10.737891091222707 0.23372335646151535
0.594325908076682 13.039577396047635 38011.213770814174 11.26151016199927 0.23704346006235913
0.6147600838832662 13.024556295719334 32916.69587189225 11.80755246111028 0.24040643579366047
0.6355577789361766 13.01248240062713 28307.1630453126 12.376996440519411 0.24381391561277269
0.6567262009169299 13.003040525960026 24382.522047570605 12.970551593910677 0.24726408372687275
0.678253563678906 12.996018445120875 21037.86709122258 13.589503421235728 0.2507612664018206
0.7001382326322187 12.991065505335975 18181.805023163866 14.235068467220966 0.2543083226456906
0.7223684009820579 12.987998949014045 15736.775401625939 14.908435697553255 0.2579072356989103
0.7449526156469272 12.986644959332814 13641.533610947177 15.610660773238116 0.2615581662181905
0.7678673802772361 12.986762100892445 11841.98981403608 16.342957351508655 0.26526248833433175
0.7911091463147027 12.988125301155861 10225.955308875726 17.106965500463865 0.26902514482096823
0.8146784997806379 12.990653957897328 8961.658545068034 17.90413931357035 0.2728485663808996
0.8385567216252752 12.994116948305464 7811.776075503181 18.735874817461358 0.2767341135202678
0.8627333697095579 12.998384980702586 6818.665423336781 19.60345409578095 0.28068171426823524
0.887203998425412 13.00333013566947 5959.17519912542 20.508991394123555 0.28469799627184317
0.911960286126066 13.008813475213032 5214.624994595245 21.45427956607016 0.28878597034788905
0.9369751280489822 13.014713765106443 4568.118299575769 22.440841677461684 0.2929458762171522
0.9622492138806493 13.020907813977654 4007.2484644878455 23.470623693786525 0.29718088193793646
0.9877701085040718 13.027300581940482 3518.840887811136 24.546084096088634 0.30149739272032283
1.0135081968729303 13.03375489376458 3094.158448620454 25.669210910058858 0.30589738547577516
1.0394675702075544 13.040207504711137 2723.353024972318 26.8418717150177 0.3103814327950759
1.0656164012431233 13.046544687174096 2399.788905144779 28.06720577890357 0.3149586012077899
1.0919408139896023 13.052666715117454 2117.278495508809 29.34732086996872 0.31962970584858513
1.1184351280261884 13.058503089573374 1869.9078986843392 30.684864032347868 0.3243986941816195
1.1450614203776086 13.063962059686254 1653.1258504910268 32.08334527078226 0.32927437398240567
1.171821780465612 13.068974402806832 1463.199380013526 33.54458359367756 0.33425365569074106
1.198671184835667 13.07344154291876 1296.3488685695813 35.073176301683915 0.33935048414429064
1.2256141828626068 13.077306088469186 1149.8588373605164 36.67121565893088 0.34456204885981057
1.2526062988209932 13.080473209097834 1020.9676173265287 38.343619908179804 0.3499019833844617
1.27964351861769 13.082919781736228 907.385530647252 40.09274548967475 0.35536757681325803
1.306684960993047 13.084512833192026 804.0083666590715 41.92401723046188 0.36097312005279825
1.3337172070127776 13.085233313734669 719.1595644669933 43.84081334222907 0.36671997573548504
1.360722855346926 13.08503834486365 641.1304716992784 45.847997383723836 0.372616882775278
1.3876507905157653 13.083787401737604 572.2637476053212 47.95080988544046 0.3786732977535623
1.4145047287356283 13.08150450346129 511.23571932750673 50.153896333625575 0.38489432109551847
1.4412327306868942 13.078080481197768 457.23549119124743 52.462679044996406 0.3912879902138347
1.4678189619729836 13.073471479685745 409.35395654278824 54.88346593905935 0.39786545204862284
1.4942247828435578 13.067614822513502 366.83906509955756 57.42244010585222 0.40463575625647813
1.5204339995429597 13.060486080924472 329.10763163461553 60.08622213772545 0.41160866164802706
1.5464171092112489 13.052009873995651 295.5406116604246 62.8819095080282 0.4187946945621874
1.5721314125926042 13.042144552386237 265.68756278129194 65.81711971911498 0.42620521200393546
1.5975546779720615 13.030831464612346 239.12207301152807 68.90003760218761 0.4338524701031313
1.622642905020604 13.018028570579622 215.41911608042733 72.13946719903643 0.441749698520232
1.6473934834235562 13.003699741989406 194.26380545513229 75.54488870965403 0.4499111815003503
1.6717424001606536 12.987783732453154 175.3779784297284 79.12637694970054 0.4583517445495985
1.695681252461264 12.970252583687474 158.5054031942089 82.89381853640172 0.46708340776857826
1.7191537160044383 12.951050394504362 143.4143299242793 86.86007893847706 0.47612830509778503
1.742150642265529 12.930138530617674 129.89919162598594 91.0368954039979 0.48550144833328557
1.764634749227359 12.907516955253355 117.7762794737466 95.43799746017072 0.49522336152641305
1.786560371763369 12.88309199171305 106.91421125250999 100.07739228897155 0.505312943454054
1.8079002597888347 12.856857065552227 97.1700744045442 104.97140956892657 0.515795169126365
1.8286145258688875 12.828744647362132 88.40841711543443 110.13647415015947 0.5266921927573268
1.8486977635100155 12.79880183692893 80.53601332523749 115.590274080849 0.5380276654107246
1.8680881845130588 12.766919694371172 73.44646571166393 121.35310844367842 0.5498313049725108
1.8867637464522597 12.733095781909496 67.06683214098818 127.4462682886186 0.5621324863761972
1.9046915682225787 12.697303972419325 61.30917633262 133.89238567823784 0.5749612500173475
1.9218389422500184 12.659517877677063 56.12303545992565 140.7166608563976 0.5883522541924815
1.9381625023162086 12.619652680668567 51.43796459916465 147.9469577639611 0.6023445158381948
1.9536642528321135 12.577848095162611 47.20562777869886 155.61199634450844 0.6169746415624046
1.9682876082720286 12.533942441955892 43.376596928209935 163.74503012410645 0.6322889713148601
1.9820140252895893 12.487975335708457 39.91461230254835 172.37979995250333 0.6483290708925216
1.9948110948509208 12.439926729301064 36.77597979228628 181.55578348889298 0.6651488560052233
2.0066512066230073 12.38978254729631 33.934207923019805 191.31475205522497 0.6828020942566618
2.0175143776173456 12.33755760021748 31.354561295091308 201.702667796837 0.7013479248897253
2.0273617886553033 12.283207921153604 29.015912166027576 212.7697019843753 0.7208499085349919
2.0361834148013114 12.226772494051398 26.892619747207792 224.57065582118665 0.7413763032803056
2.0439397021680867 12.168212707855414 24.96330223966074 237.16720481864115 0.7630061172203899
2.050611945427144 12.107542662465457 23.20697661191199 250.62556398737266 0.785820043608588
2.056191985559527 12.04480985873432 21.61063511271474 265.01911215506647 0.8099074010830699
2.060658600797521 11.980017964898744 20.15788494470018 280.4296722836026 0.8353684358449907
2.0639854759000666 11.913169509532956 18.836901825640584 296.94614980936865 0.8623077487930121
2.066155066894588 11.844292640830252 17.632518700859777 314.6690270048942 0.8908465283777051
2.0671620907329373 11.773437449250173 16.535607097700375 333.7078842660016 0.9211116299386705
