M[M_sun], R[km], Lambda[1], P_c[MeV/fm^3], rho_c[fm^-3]
0.24162668629717493 15.618656898711224 2160425.4255784233 3.5677272577965504 0.1711233750220791
0.2536448040207262 15.27727113359293 1723197.9407449556 3.7848349849087413 0.17388836474376598
0.26604089035683687 14.981273646045324 1382930.4611964421 4.0114338159441445 0.17666705182875406
0.2788176434463445 14.72346478299803 1116420.3354909234 4.247779365179541 0.17945810748809973
0.29197287737139604 14.498368727685216 888667.2257617426 4.494497010849866 0.1822681014886974
0.30550931249296304 14.301168331537253 725432.2112567158 4.751742870721796 0.18509275012988838
0.31942668952613146 14.128083688056964 605054.9644377526 5.020198435656446 0.18793865469487875
0.3337273086742385 13.975910664493089 497654.57373729243 5.300088815211207 0.19080245877073743
0.3484081881114301 13.841966963930627 410969.13691496773 5.592141472548265 0.19369043554243123
0.36347191873754303 13.72392404120807 335707.37053093297 5.89652516143932 0.19659767514555146
0.37892652863399323 13.619956147252655 283261.09696308244 6.21410339235283 0.19953184618463998
0.3947602555188141 13.528380064137258 236376.94504598918 6.545131995846156 0.20248909865689793
0.4109863818652691 13.447813927566004 197836.30230204455 6.890316596114672 0.20547319805952155
0.42759555554614803 13.377006462013739 166060.56772032435 7.250360963270602 0.2084871928571508
0.44459138351604344 13.314883807726071 139784.2001600528 7.625521905889592 0.2115265947926211
0.4619749642705187 13.260520498959506 117964.05566835268 8.016752804197871 0.21459763298336432
0.47974264291136404 13.213110464808896 99796.11066261808 8.42475681055272 0.2177019230602086
0.4978990946337806 13.171950987235325 84628.2736004664 8.849971983250267 0.22083689182257196
0.5164398091335712 13.136366287073415 71929.07470100869 9.293277300445885 0.22400602667550565
0.5353596114558133 13.10581608507082 61265.27348192305 9.755555147676402 0.22721220926980507
0.5546674685517637 13.079782189805542 52295.898649767245 10.237615316214368 0.23045679086761092
0.5743522973501434 13.057826766494669 44721.37860613164 10.739924701887766 0.2337364128719188
0.5944110980504969 13.03952755124949 38321.02797470002 11.26373666580112 0.23705737129840457
0.6148499380490743 13.024477383438757 32895.058729485354 11.809985010683064 0.24042122975368235
0.635655637662589 13.012437369613616 28285.417633692174 12.379649009035921 0.2438296216677874
0.6568273892661615 13.00300270647938 24365.652666527996 12.97341200038869 0.24728043263733618
0.678360513653173 12.995973746098162 21023.645098529065 13.592612282997653 0.2507785757111971
0.7002511581555675 12.99104921502978 18168.43797429942 14.238442452844257 0.2543266266823644
0.7224860053168224 12.988008422610305 15725.138547706256 14.91209254657653 0.257926570838156
0.7450765633660915 12.98664994419604 13630.891475397137 15.614583686131567 0.26157821754673083
0.7679981721187364 12.986758626844937 11833.39388929865 16.347199451119792 0.26528363413693795
0.7912467634415238 12.988146210159565 10217.621296644367 17.11154807618425 0.26904742833490614
0.8148226298754287 12.990677162418391 8953.777844460546 17.909085066217532 0.2728720336235722
0.8387066403981519 12.994140184920694 7805.678827813457 18.741161811017154 0.2767584045200927
0.8628889419654207 12.998405912793285 6812.206654229443 19.609151071690754 0.2807072730062478
0.8873710487717492 13.003363573336696 5953.679102817619 20.515125770669705 0.2847248780610185
0.9121246623844615 13.008879840241352 5209.515936648997 21.46088063902658 0.28881423423070357
0.9371514635516679 13.014746274605546 4564.013277173582 22.447881949789924 0.2929751175002805
0.9624372470315014 13.020965030244604 4003.324686686536 23.478191512533968 0.29721161709848787
0.9879578996487601 13.027351116995742 3515.483367320494 24.554215080688646 0.30152969326217904
1.0137030283799242 13.03380234926702 3090.850941884456 25.677873587416084 0.30593081641603415
1.0396700249962871 13.040260531113598 2720.5587848520513 26.85117198370718 0.3104165675354896
1.0658228053411876 13.046587168144406 2397.471012879471 28.077187171078904 0.31499552671768843
1.0921561620679727 13.052721742809817 2114.9591728974547 29.357948010922467 0.3196679570309208
1.1186563124176145 13.058552642757196 1867.789857381334 30.69626379355982 0.3244389075779807
1.1452908356891491 13.064001167036459 1651.577346126318 32.09548044709433 0.32931606925294715
1.1720548575191538 13.069017568515731 1461.562503912384 33.55759652229764 0.3342975106018798
1.198912243232767 13.073479988444362 1295.0085584326978 35.087128397383594 0.33939661994234777
1.2258595182911847 13.077340677487442 1148.6839545766827 36.686066435398146 0.3446099551658432
1.25285632815476 13.08050352889485 1019.7956844221289 38.359496018509454 0.3499521561514734
1.2799005238516736 13.082940608265929 906.4175235681855 40.109693842141134 0.35542000935371026
1.3069456548990106 13.08452330062763 806.5233797985246 41.94206367500959 0.36102767718869033
1.3339843045283077 13.085242773104317 718.345926056535 43.8601601978094 0.3667774845957267
1.3609935105617879 13.085029534502 640.3971971366508 45.868604114156234 0.37267680434816264
1.3879267516775127 13.083769713419558 571.6129817395571 47.972764503027506 0.37873578768231975
1.4147769082389112 13.081461351126217 510.6531723432319 50.17743956299046 0.3849602918187164
1.4415074078905359 13.07802254875509 456.7052769011632 52.487773513862614 0.39135689022325637
1.468103857819847 13.073417642078798 408.86663397914447 54.91022275617608 0.39793747658819245
1.4945138821251662 13.067547946304499 366.4003749532073 57.45097937959036 0.4047111156629041
1.5207264092874002 13.060398073852864 328.72728860533687 60.116673781805176 0.4116875825901854
1.5467106376138948 13.051906990743701 295.1805210053917 62.91441412764101 0.41887742140333384
1.5724268065287548 13.042020854175568 265.36414297886716 65.85182958639034 0.42629200829991837
1.5978403839236084 13.030682244784902 238.81886125276762 68.93711773104707 0.43394362025133526
1.6229383820234515 13.017859901892336 215.15656139179848 72.17909653071187 0.44184550957573715
1.6476904799806231 13.003514834082079 194.0218631264209 75.58726142154156 0.4500119851777688
1.6720393266622406 12.987577796428647 175.16056294623286 79.17148266443672 0.4584569756660351
1.6959762272444905 12.970019198439442 158.30399217017305 82.94209729788568 0.4671943522218578
1.719456749620481 12.950801373315077 143.22404826768525 86.91177925390386 0.4762453808751876
1.742432438772241 12.929825737290082 129.7372061529344 91.09203879395248 0.48562412207838235
1.7649210255020702 12.907202359102017 117.63952267409805 95.49711509821562 0.49535307882461066
1.7868469629433477 12.882759004296869 106.784033272676 100.14053564920326 0.5054492040860369
1.8081840709940094 12.856491841734604 97.04806785581401 105.03890605709917 0.5159384980604776
1.8288973913570126 12.828359071234294 88.29706024685228 110.20877542342451 0.5268435096994886
1.848971027289404 12.798373304386528 80.43444314841915 115.66787589231127 0.5381879639748791
1.8683459484921892 12.766427670333668 73.35678885356857 121.43624651461803 0.5500005436182397
1.8870209986960629 12.732602906032866 66.98141640596549 127.53532751795453 0.5623110994388212
1.9049439639821357 12.696776004478544 61.23342334544548 133.98771280545034 0.5751494553652754
1.9220831947939245 12.658949887927255 56.05093125175528 140.81904902411307 0.5885517452794435
1.9383953385432866 12.619052229223737 51.37102789408611 148.05702006676572 0.6025562261535805
1.9538894935870503 12.577200640044076 47.14606721275236 155.73004368822868 0.6171983530954601
1.9685025740883957 12.533257904847845 43.323828155026476 163.8718740294293 0.6325260627301068
1.982215236724652 12.487251575259489 39.863437739011225 172.51641489483137 0.6485813154463614
1.9950010027186393 12.43916217161269 36.73149828806388 181.70276089112528 0.6654165773813465
2.0068348767205033 12.388993478042233 33.89096259190397 191.47304627818102 0.6830866616797235
2.0176778743553676 12.336709322693292 31.316048206835433 201.87333160603393 0.7016508363164532
2.0275125764595305 12.282316232239772 28.980914658582925 212.9534676442441 0.7211713955625823
2.0363179784301684 12.225836764370714 26.859146849283743 224.76922406379606 0.7417195332148954
2.044058458927611 12.167233181786152 24.932634591950197 237.3815429358109 0.7633715833995992
2.0507143371018572 12.106514262304463 23.17922531236739 250.85745844210757 0.7862106084260466
2.056283442435959 12.043756061956616 21.58636808076457 265.2702813854147 0.8103253612749941
2.0607253106641736 11.978896379264748 20.13477581511326 280.7013277764177 0.8358140445803559
2.0640265940816285 11.911990582265584 18.81500896546584 297.2408543202907 0.8627852229061886
2.0661831365574477 11.843076703077157 17.61246759035535 314.9891655274653 0.8913590071859402
2.0671709082770606 11.772177229363226 16.517971936473565 334.055568062888 0.9216607687230669
