M[M_sun], R[km], Lambda[1], P_c[MeV/fm^3], rho_c[fm^-3]
0.24162668629717493 15.618656898711224 2160425.4255784233 3.5677272577965504 0.1711233750220791
0.2536446619051122 15.277287662664527 1723144.6171050828 3.7848445776847988 0.1738884843130918
0.26604247268654513 14.981216811843934 1382867.5023580326 4.011453982048793 0.17666729552422752
0.2788194120316997 14.72342322774613 1116395.107390368 4.247810787043464 0.17945847193436948
0.2919751260722801 14.498320570101969 905820.594555853 4.49454051319282 0.18226858589738257
0.3055125522552462 14.301138439538864 738615.2323745015 4.751799930864718 0.18509336648833286
0.3194302155164564 14.128047707546417 605032.9041887131 5.02026947411327 0.18793939174628663
0.33373218760523377 13.975782335915444 497605.0489919107 5.300175702480577 0.19080333358136792
0.3484133576344757 13.841923170788034 410943.7725561977 5.592244425765805 0.19369143164313238
0.36347862595964125 13.72385320165696 340614.0277341497 5.896646493887675 0.1965988147255831
0.37893291541916746 13.619913922296435 283251.225585216 6.2142445726109585 0.199533133578602
0.39476745050698747 13.528355360346989 236362.15950476655 6.54529287753144 0.20249050937193735
0.41099489767464764 13.447795612174046 197823.9992062031 6.890500285423037 0.2054747624347538
0.4276054975257504 13.376959654339565 166039.73384961733 7.250569184258359 0.20848891541602008
0.44460347782492476 13.314837680131706 139765.9088474358 7.625754083238656 0.21152844307360918
0.46198450827604537 13.26049104903334 117949.85864846436 8.017012988139989 0.21459964571650628
0.4797535651025839 13.21308399600455 99790.07885207207 8.425047030367033 0.21770410510749238
0.4979136538026697 13.171911274660973 84619.36723919852 8.85029116900197 0.22083920286379186
0.5164552423464586 13.136327499623661 71919.30344593908 9.293630618216879 0.22400851405464026
0.5353756661634127 13.105785153732773 61256.12885432515 9.755944993536923 0.22721487836092363
0.5546853834194428 13.079768908323102 52287.04060069492 10.238040863166518 0.23045960396383203
0.5743694740870231 13.057815534373905 44715.65857808039 10.740390823739444 0.23373940551859304
0.594429942660696 13.039485102116034 38315.733459836665 11.2642470046145 0.2370605599045458
0.6148699819413983 13.02446954227514 32890.069128776464 11.81054258191741 0.24042462071707424
0.6356776455201462 13.01240241407388 28281.438613794453 12.38025701630387 0.24383322172393687
0.6568504207327419 13.002994079261587 24361.516167264497 12.97406765158371 0.2472841800707045
0.6783851882646991 12.995967611493684 21020.00339908331 13.593324889858065 0.2507825433152771
0.7002768243236108 12.991051083049081 18165.31355234021 14.239215837056667 0.2543308223294617
0.722514480097952 12.988004988058853 15722.84720228793 14.912930775411656 0.25793100286998005
0.7451048286520007 12.98665409402732 13628.171553371616 15.615482908537977 0.2615828137751946
0.7680290040171169 12.986763011566644 11831.59011742468 16.348171846326373 0.26528848128315763
0.7912773019140843 12.98815197420468 10285.901031958925 17.112598525493095 0.2690525363141831
0.814853840572615 12.99067447861142 8952.054578640798 17.91021877459875 0.27287741298877705
0.838741032687586 12.994148197303199 7804.152250048396 18.742373749620896 0.27676397275090303
0.8629235514964884 12.998425318389419 6810.725938108466 19.610457001257423 0.2807131318886068
0.8874082296239941 13.003372303525866 5952.45612427105 20.51653197799025 0.284731040279533
0.9121686259139181 13.008871589652797 5208.806581047953 21.462393841454737 0.28882071332529724
0.9371905478253428 13.014762759822387 4562.881996900172 22.44949584321986 0.29298182069477685
0.9624791018486598 13.020968942125164 4002.4404722155086 23.479926353731273 0.2972186628040617
0.9880026025459769 13.027359285404069 3514.702194153609 24.556079037223142 0.3015370978766289
1.013747923794533 13.033819427849389 3090.6002357757666 25.67985944329278 0.3059384802163166
1.0397145492329065 13.040276165196207 2720.013348940822 26.8533040208781 0.31042462198800636
1.065870004324616 13.046596266386572 2396.9025595830985 28.07947537181111 0.3150039917671828
1.0922062378837272 13.052728448605997 2114.622278786532 29.360384264325468 0.3196767260473044
1.1187074312777945 13.058562460455498 1867.3632699584302 30.69887719161784 0.32444812650897437
1.1453417602349094 13.064011901347287 1651.1531153103901 32.09826245897706 0.32932562797175907
1.1721076319734993 13.069025342643373 1461.2146000853254 33.56057978712803 0.3343075645119457
1.1989665707673804 13.073480659032647 1294.7059816361868 35.09032699880454 0.33940719685010406
1.2259162910497101 13.07734630021003 1148.4130901822778 36.68947108983734 0.3446209380540348
1.2529141769238445 13.080512269141966 1019.5885015111539 38.36312054572352 0.34996356944019963
1.279959005917545 13.08294949392015 906.1535573901384 40.11357944735581 0.35543203011814767
1.3070119608190625 13.084552791032248 806.282813009327 41.946201062378954 0.36104018513751934
1.3340454331672404 13.0852432692162 718.1132672665988 43.86459576436706 0.3667906693934421
1.3610551932704098 13.085029998665304 640.2128984195493 45.87332856421726 0.3726905424071721
1.3879956590873341 13.083785234018585 571.4152750473266 47.97779802044502 0.3787501146977448
1.4148400791334106 13.081455080481906 510.4708394967339 50.18283735445862 0.3849754170252591
1.4415733056478508 13.078010382900484 456.58215937990377 52.49352700885272 0.3913726871648509
1.4681694659180087 13.073406049559507 408.7533723950686 54.91635743624264 0.3979539900436335
1.4945803549567807 13.06753162782 366.2957051539253 57.457522790608245 0.4047283938730938
1.5207928476025738 13.060377933181288 328.63778229413947 60.123655718822874 0.4117056775425001
1.5467772912946163 13.051882972868889 295.099130859379 62.92186683818014 0.41889638914417265
1.572494745949929 13.041991994170427 265.289836391465 65.85978799424858 0.42631190927846535
1.5979081614182504 13.030649494035123 238.7539744912334 68.94561968290795 0.4339645196979116
1.6230171792392247 13.017834459962272 215.08286855309242 72.18818306814858 0.44186747791852493
1.6477591816588293 13.003473659533583 193.95617467702033 75.5969770813264 0.45003509850215223
1.6721075147195446 12.987528582846235 175.11979214503697 79.18182506452362 0.4584811043671131
1.6960445194879359 12.969965320958131 158.24690317511698 82.95316737052389 0.4672197912165391
1.7195240567480323 12.950742953497436 143.18211278308283 86.92363399958896 0.47627222604151853
1.742505119355909 12.929795285529334 129.69023758617698 91.10468314658333 0.48565225110876703
1.7649872226545087 12.907128227942469 117.59441396397824 95.51067089826745 0.49538282327678745
1.786897830402829 12.88264943275456 106.75096405019133 100.15501470111519 0.5054804492519069
1.8082488058152564 12.856409816007 97.01732351729389 105.05438346089188 0.5159713643598735
1.8289527191309254 12.82825555486291 88.27296721343649 110.22533309613802 0.526878127388663
1.8490331602634056 12.798275553143048 80.41055377281694 115.68567093065907 0.53822472238351
1.8684048280472743 12.76632428548146 73.33216258695934 121.45531130183011 0.5500393525385384
1.8870799432930332 12.732489775489924 66.95857103832024 127.55569661493898 0.5623518665737378
1.9050009037319022 12.696655013963298 61.214266668784845 134.00957321343648 0.5751926145982365
1.9221400496752659 12.658819475320712 56.036847963431406 140.84252896441836 0.5885974931321283
1.9384495407778681 12.61891419765728 51.356703929776 148.0822601886654 0.602604776783829
1.9539411252169119 12.577052249497285 47.132149950425344 155.75711530974496 0.617249656528141
1.9685510129698218 12.533104213971127 43.31038520755612 163.90094124905434 0.6325803605379318
1.9822625071566151 12.487086231721447 39.85353991353755 172.54774543415851 0.6486391638616187
1.9950443366273136 12.438984762182628 36.72042626153501 181.7364683535807 0.6654779759915895
2.0068765510064006 12.388808406520466 33.88161781221888 191.50934962003544 0.6831519246327683
2.0177167452453295 12.336514386359447 31.307564720293275 201.91247236570229 0.701720307303947
2.0275469837123437 12.282114319110448 28.97242066057027 212.99561381710217 0.721245127770472
2.0363491995064145 12.225622956879722 26.851998217980356 224.814765879082 0.7417982533268139
2.0440860599429915 12.167008613874245 24.925931967952234 237.43070232178914 0.7634554046685502
2.0507376329445495 12.106279070777335 23.17307506035817 250.91059067400948 0.7863000097347759
2.056302188229545 12.043509273118111 21.58030873373745 265.3277825992098 0.8104208753557856
2.0607403856936886 11.978638333434631 20.129393894431463 280.7636318837818 0.835916237817587
2.064036765478883 11.911720106157965 18.809562221875844 297.30845057225775 0.8628947409463471
2.066186070936518 11.842793560824044 17.609092588194518 315.0625969093927 0.8914765563855648
2.0671728823241513 11.771885938288293 16.51352411419585 334.1353190438764 0.9217867290270746
