M[M_sun], R[km], Lambda[1], P_c[MeV/fm^3], rho_c[fm^-3]
0.24162668629717493 15.618656898711224 2160425.4255784233 3.5677272577965504 0.1711233750220791
0.25363892364227336 15.277423760686318 1723318.943508794 3.784742186664508 0.17388720805841895
0.26603053750313327 14.981480603754768 1383244.3029599728 4.011238737566539 0.17666469442168808
0.27880239704511506 14.723745952707691 1116683.9347064265 4.247475408976079 0.1794545820541918
0.2919504854394954 14.498713818152313 906146.3783205305 4.494076202964362 0.1822634156952279
0.3054799448914109 14.301562344293007 738892.365568507 4.751190925318649 0.18508678806613077
0.31939071199286717 14.128505898805503 605296.1281364708 5.0195112892785545 0.18793152528599397
0.3336834106891058 13.976295621819188 497945.0023449876 5.299248380200915 0.19079399698471763
0.3483588336964658 13.842375870177191 411218.70829656656 5.591145652926962 0.19368080071365457
0.3634140881579715 13.724352097407316 340848.8203463812 5.89535158836245 0.19658665269885897
0.3788598347747397 13.620387433513281 283479.36646690394 6.212737867447494 0.1995193942417023
0.39468642940427046 13.528781316254257 236567.54759121657 6.543575939244243 0.20247545414262863
0.41090373368506916 13.448197693376763 198021.66042304356 6.888539973084278 0.2054580675922638
0.42750434033014 13.377356620428674 166219.71677166084 7.248347106495574 0.2084705327361583
0.44449047482100545 13.315230652498665 139921.7338012069 7.6232763836393245 0.21150871899164292
0.4618640991216099 13.260838507137908 118085.53871554571 8.01423645566369 0.214578166993072
0.47962054674820787 13.213428190988408 99916.72872940477 8.421950018826422 0.21768081991024973
0.49776899197692426 13.172218806449496 84729.05298324859 8.846885099193527 0.22081454146307708
0.5162988247769027 13.136609389837895 72018.23103795203 9.289860377213627 0.22398197132293024
0.5352070775154144 13.106030112979063 61341.4618838269 9.751785023909724 0.2271863970068556
0.5545041319308195 13.079995601444068 52362.420304275525 10.233467423451815 0.23042916751991052
0.5741747270366034 13.05798558069876 44783.202165131224 10.73541706360239 0.23370747243783507
0.5942275562731797 13.039657495114977 38373.304951399055 11.258801506014091 0.23702653633074708
0.6146503773985659 13.024639843753931 32944.31556510055 11.80459318292139 0.24038843844482538
0.6354410932092006 13.012527073880037 28331.273788641985 12.373769548796849 0.24379480894743846
0.6566031419139227 13.003095901134655 24405.104539591117 12.967071906549352 0.24724419526082836
0.6781240025742095 12.996050589923868 21056.297955137725 13.585721542481467 0.25074020991414286
0.7000015455831835 12.99109236713861 18198.043000888076 14.230964129114469 0.25428605641115054
0.7222236640057219 12.988029982344095 15751.88650831024 14.903987330291654 0.2578837155043735
0.7447997523129488 12.986659225861839 13654.586573535888 15.605888810317774 0.2615337751091098
0.7677080515303065 12.986755425900553 11853.409355540894 16.337797193979767 0.2652367662432625
0.7909415950753399 12.98811875612072 10304.942438154623 17.101391263452324 0.26899803919397614
0.8145040823622017 12.990622123389166 8971.473512026836 17.89812339660318 0.272820021285049
0.838372424525116 12.994085368330799 7819.398337113355 18.729443898436628 0.276704566774796
0.8625428581594291 12.99834687642324 6825.797171381403 19.596524589846084 0.28065062594531615
0.8870050713971445 13.003290376978747 5965.548171148944 20.50152996680647 0.2846652991404271
0.9117524492741229 13.008783481519542 5220.002869221633 21.446250600952165 0.2887515926443376
0.9367623058505649 13.014656968903946 4573.643452039589 22.43227861187157 0.29291031011776103
0.9620277329958082 13.020847122215075 4011.7919171404606 23.461419112781417 0.2971434993995272
0.9875397499029773 13.027240792658251 3522.9224129750955 24.536194697510517 0.3014581068344899
1.0132739964588207 13.033705439803645 3097.7360828918568 25.6586749632046 0.30585672522775575
1.039220457549185 13.040152641618521 2726.663501218733 26.83056047352573 0.3103387009615294
1.0653639920998528 13.046488129748191 2402.7770628856324 28.055066324103077 0.31491369208584336
1.091679297868229 13.05260627804996 2119.7534783071105 29.334396211892273 0.3195831850152904
1.1181671970191256 13.058446937536274 1872.2481632803633 30.670999936948157 0.324349787686726
1.1447848620132324 13.063911757677934 1655.225490463892 32.0685215022126 0.3292232423951207
1.1715360053705188 13.068932168189416 1464.9353695394743 33.52875806248045 0.33420032201892624
1.198385491422823 13.073408591598934 1298.015441151409 35.05620888877257 0.33929437750966884
1.2253175848616318 13.077266755290358 1151.43074598486 36.65315558285036 0.3445037898500145
1.2523011553472498 13.080448423282595 1022.2895816431193 38.324259486692334 0.3498406538134158
1.279333232817301 13.082894688822428 908.6391717936879 40.072135170245 0.35530381537040523
1.3063673584480535 13.084500944833096 808.4777460701417 41.902071863284334 0.36090677588311193
1.3333938368845557 13.085234086902023 720.0849674267062 43.817287019171694 0.3666500433364402
1.3603933458453479 13.085046072254736 642.0911108681108 45.82293937747131 0.37254401749696847
1.3873167932458845 13.08381066155165 573.0825497341733 47.92411322475115 0.37859731043937095
1.414157013394342 13.081523064214526 511.9530494145542 50.1252684516334 0.3848141026153186
1.4408885712386235 13.078128119641464 457.8898127633467 52.43216536490418 0.3912042110807894
1.4674712477239837 13.073539015114276 409.9443105340319 54.85093142743026 0.39777787499452166
1.493873000651587 13.067703691320187 367.3677097660321 57.387738795187495 0.40454412567758213
1.520080632263414 13.060592903339863 329.59647500751845 60.04919614788873 0.4115127021000103
1.5460594888311172 13.052137948755451 295.9794557407643 62.84238797006542 0.4186941091059705
1.5717727612713908 13.04229054980475 266.07860776644316 65.77491759060318 0.426099680386417
1.5971885472205372 13.030992071051623 239.47148277469313 68.85495436192572 0.433741646754945
1.6222801797564221 13.018221034775939 215.7460530261591 72.09128540739502 0.4416332103505323
1.6470313376992625 13.003920782269711 194.5585975891689 75.49337241920117 0.44978862546621223
1.6713857024685064 12.988034393251052 175.64980643254353 79.07141404989002 0.45822328678653124
1.6953223141278522 12.97053247434586 158.75840836127617 82.83512375953279 0.4669485273422804
1.7187864644482966 12.951327183950786 143.62812741573484 86.79722564266882 0.4759859733071893
1.741801162029145 12.93050032071955 130.1005259414924 90.969857419288 0.4853523134931012
1.7642813175702619 12.907894385415181 117.96731995285894 95.3661294448296 0.4950656670534066
1.7862106542090392 12.883503274139258 107.08816534294913 100.00063167962655 0.5051472973892522
1.8075560829306205 12.857300687553085 97.31418869578911 104.88935858629843 0.5156209336927685
1.8282433022582387 12.829287384328401 88.56090291794251 110.05242996014522 0.553087752922494
1.8463959340970202 12.799315933945147 81.21838772307866 115.67627493484163 0.7047353326996832
1.8611192394138527 12.76547435130711 75.16424868356545 121.86784335785691 0.8531625712920532
1.8726881011681389 12.726705148681727 70.06982729388184 128.65556277512175 0.998798178544714
1.8814822738946326 12.68281453828025 65.68407895911385 136.06813802331394 1.1423429753725778
1.8877811200754917 12.633598608765382 61.846271330440224 144.13831780655866 1.2842589872188621
1.89190110367605 12.579287553174561 58.441017571691894 152.9017080040745 1.4252343248245343
1.894076174106024 12.519958978575069 55.36593386608966 162.397908482995 1.5658861674007185
1.8945238743737631 12.455833936534047 52.56245526278414 172.67091706786485 1.7068881743949198
