M[M_sun], R[km], Lambda[1], P_c[MeV/fm^3], rho_c[fm^-3]
0.24162668629717493 15.618656898711224 2160425.4255784233 3.5677272577965504 0.1711233750220791
0.25364371082378945 15.277301369751335 1723271.0802853396 3.784814476867567 0.17388810912092614
0.2660393461199257 14.981294035845655 1383000.999156254 4.011390703818015 0.17666653084415282
0.2788142342285536 14.723529596755252 1116428.8225569928 4.247712190283722 0.17945732836053863
0.29196747606781986 14.49848518391223 905955.9940703646 4.494404010325096 0.1822670659062698
0.30550373273857645 14.301213385811554 738645.381804401 4.751620886610243 0.18509143246867343
0.3194196041801823 14.12815002092454 605113.3797882306 5.020046569248992 0.18793707902228635
0.33371707588192223 13.9759592486495 497705.80103006493 5.299903068099514 0.19080058860553287
0.34839715324173365 13.8420591355454 411025.1784604564 5.5919213808211135 0.1936883060944259
0.3634588546698005 13.724021804761215 335727.6180632286 5.89626578021989 0.19659523898224765
0.37891230422319533 13.62002484728772 283319.31224417285 6.213801582560573 0.19952909404273725
0.3947436384021308 13.528477708094389 236409.50228367344 6.544788070690953 0.20248608289790693
0.41096860043662037 13.447891636772068 197876.12064219383 6.889923915876613 0.20546985382983238
0.42757547335970003 13.377080034786108 166088.2212411311 7.249915842854988 0.20848351049002703
0.44456965708855106 13.314967840570405 139814.65888126625 7.6250255754283245 0.21152264368300996
0.4619507137667756 13.260591613424904 117995.72364016892 8.016196606161207 0.2145933303418839
0.47971448547870116 13.213177422285495 99816.84079176399 8.424136407520416 0.21769725849671323
0.4978712360090766 13.172000064383584 84651.7945038921 8.849289662633264 0.2208319515297717
0.5164078038772563 13.136427125461168 71944.39369657317 9.292522019727794 0.22400070945216405
0.535326141529921 13.105863605391603 61282.34264767975 9.75472178553478 0.22720650363145925
0.5546320504448038 13.079816204018753 52303.69934896657 10.236698440119408 0.230450684830493
0.574313231842698 13.057878327146257 44734.82511089618 10.738928295608021 0.23373001563495477
0.5943684255521999 13.03954344773094 38332.47400968572 11.26264574420038 0.2370505552005015
0.6148053315492071 13.024511552075023 32905.40015647408 11.808793128706025 0.24041398112265078
0.6356058310713945 13.012438787147211 28063.680161865686 12.37834931951919 0.24382192610971803
0.6567768149110157 13.003047933979737 24373.355559262585 12.972010471739324 0.24727242207430028
0.6783087921807325 12.995979333889943 21030.4402045388 13.59108901231489 0.25077009454814414
0.700195577592865 12.991067643045396 18174.666107508096 14.236789272066641 0.2543176580959623
0.7224288308703377 12.987992513025292 15731.974246607628 14.91030076280693 0.25791709700194815
0.7450155176898948 12.986654142092135 13635.864325919492 15.612661531017093 0.26156839276480154
0.7679358474543582 12.986755607079445 11838.257302346192 16.34512089345352 0.26527327304829185
0.7911780160309207 12.988130147642297 10290.25484608755 17.109302683420175 0.26903650975024823
0.8147504906956711 12.990671241367966 8957.456754753666 17.906661714115604 0.2728605349911265
0.838633083115131 12.994117367589444 7808.518787317629 18.738571248360948 0.27674650222508057
0.8628128179016128 12.998397861512249 6815.361984092044 19.606359613235085 0.28069474949263795
0.8872873870804127 13.003339671307996 5956.5134829783665 20.512119980287995 0.28471170622151065
0.9120462324358513 13.008837659342115 5212.019909834549 21.457646160480103 0.2888003851302305
0.9370658906018012 13.014728576775857 4566.108973565317 22.44443225713993 0.29296078944096954
0.9623411492105692 13.020930075760273 4004.960765172427 23.47448331240636 0.29719655699595604
0.9878675279013187 13.027318786987351 3517.1573398439637 24.550230917758615 0.301513866074229
1.0136075967317206 13.033778653476993 3092.387863564856 25.673628884369784 0.3059144352894948
1.0395700630028057 13.040239053730662 2721.894575769883 26.846614845497587 0.31039935148793557
1.0657203303548375 13.046566223036061 2398.7390265053114 28.072296264479373 0.3149774331274476
1.0920507615734332 13.052692319030898 2116.1105053910437 29.35274067083005 0.3196492138039112
1.118548275779654 13.058527578393955 1868.919570922429 30.69067784632252 0.3244192027871408
1.145177568476155 13.063988267041667 1652.4275040325463 32.08953412481411 0.32929563827528147
1.1719394634972855 13.068998364399055 1462.372020396465 33.55122007159477 0.33427602130557155
1.1987939981491218 13.073456795860984 1295.659573125689 35.08029172086815 0.3393740129065384
1.2257390484734172 13.077327035179 1149.2826569775261 36.678789373432124 0.3445864804904058
1.2527337782999006 13.0804897659717 1015.8990002146412 38.351739043905546 0.34992770302654935
1.2797740229693457 13.082932237195218 906.8736833193955 40.10138888431563 0.35539431658870535
1.3068175817714125 13.084522066140647 806.9085205119487 41.93322060661233 0.3610009432532064
1.333853370520786 13.08523778502538 718.7379796758773 43.85067986778888 0.36674930415204005
1.3608607595989022 13.085035256439145 640.7429310900311 45.85850638791347 0.37264744153192114
1.3877906417659613 13.08378063084148 571.9234653242538 47.962006247821144 0.37870516621516215
1.4146472986502845 13.081488919584965 510.9274539720374 50.165902804206034 0.38492796454922534
1.4413698781481494 13.078040059835732 456.9750101139068 52.47547656672073 0.3913231274136727
1.467963138888546 13.07344567139316 409.1054478959216 54.89711116803253 0.39790218255097776
1.4943688112943254 13.067588480923526 366.59030369110616 57.43699428691096 0.4046741873131219
1.5205834441943342 13.060440355185921 328.9096255369948 60.10175151523165 0.4116489088379887
1.5465662977463588 13.051958551986854 295.350604447457 62.8984857776474 0.4188368824862401
1.5722824295745264 13.04208111892041 265.5224642440736 65.83482052514202 0.42624947504841415
1.597706158864252 13.030756360480328 238.97515207359447 68.91894708554015 0.43389895328059214
1.6227929305073598 13.017941469470957 215.27940018801678 72.15967660166321 0.4417985583953532
1.6475450899510682 13.003606490822559 194.14336047582526 75.56649704181861 0.44996258721048876
1.6718941847653725 12.987676421018406 175.27400316590678 79.14937892169647 0.4584054078871053
1.695830760783843 12.970134755223196 158.39768888178494 82.91843852196031 0.4671399844236868
1.719296092832468 12.950896293587341 143.31628963199358 86.8864436481244 0.4761880081934523
1.7422976568730315 12.929993679921221 129.80732505139758 91.06501581284715 0.48556400589222476
1.764778157321544 12.907350482532253 117.7027378709125 95.46814440273589 0.4952895106498862
1.7867063095256002 12.882921406988489 106.84570680942589 100.10959201321513 0.5053824290620261
1.808044789920849 12.85667114044783 97.10445914188945 105.00582901254673 0.5158682588870384
1.8287569751358832 12.828543689486708 88.3533701383884 110.17338993792876 0.5267695280621307
1.848836837359234 12.79858642066237 80.48221122933549 115.62984630748457 0.538109407975628
1.8682250658697677 12.766683548573587 73.39937970593643 121.39550363488397 0.549917606045701
1.8868960728976998 12.732841799661157 67.02380900662193 127.4917244144424 0.5622237164580248
1.9048213009623647 12.69703457913104 61.27248568610727 133.94099608748536 0.5750572220586003
1.9219641052272656 12.659227784366358 56.08762303125273 140.76887165865242 0.5884539806900385
1.9382794130053607 12.619347634356686 51.402250073526865 148.00308154783662 0.6024524727288117
1.9537794069792818 12.577512045657421 47.173390625168906 155.67219163229237 0.6170887176583884
1.9671656916234967 12.534941046851946 43.57603063469746 164.0560557300302 0.9008842006719817
1.9735140822025852 12.491470237492189 41.19030070437356 174.05350306579874 1.3193609890928875
