M[M_sun], R[km], Lambda[1], P_c[MeV/fm^3], rho_c[fm^-3]
0.24162668629717493 15.618656898711224 2160425.4255784233 3.5677272577965504 0.1711233750220791
0.2536419783457958 15.277381564040365 1723148.1849987337 3.7848029858697925 0.17388796589118233
0.2660379007873849 14.981284542423767 1383100.138227721 4.011366547519032 0.17666623892953567
0.27881152395893616 14.723608138759872 1116500.4276755597 4.2476745515121666 0.179456891807509
0.2919650709358932 14.498494060995583 905900.318173262 4.494351901487407 0.1822664856622683
0.3055000080940482 14.301279750402346 738718.33956566 4.7515525384596 0.1850906941782021
0.319414715588429 14.128219668464022 605167.3967720203 5.019961478397643 0.18793619617186155
0.3337112074335692 13.97608854662169 497736.28428038687 5.299798994447414 0.19079954075654565
0.3483911100980648 13.842101748407703 411076.9025687953 5.591798064606792 0.1936871129761292
0.3634523671195126 13.724065126616681 335770.5257286093 5.896120451106368 0.19659387402045855
0.3789041223474406 13.620077508339788 283344.36066874507 6.213632481990361 0.19952755204914724
0.39473447964360936 13.528527068515347 236449.54651268272 6.544595374317931 0.20248439321103556
0.41095788596593774 13.447965554073388 197901.332254771 6.889703903891755 0.20546798011544487
0.4275642129104329 13.377123295975036 166114.33049325578 7.249666450856087 0.2084814473339338
0.44455743665341924 13.31498973912724 139828.59534898715 7.624747492786334 0.21152042996637319
0.46193745010406934 13.260623766781213 116689.7501685963 8.01588498269854 0.21459091968246344
0.4796988667081842 13.213246264748001 99833.47311118428 8.423788813444428 0.2176946450751894
0.4978543216054514 13.172044725145252 84660.60464518408 8.848907379640357 0.2208291836375661
0.5163901478729811 13.136464465362424 71955.46443393183 9.292098861618994 0.22399773039269724
0.5353072104961354 13.105884967637024 61291.63727345705 9.754254883431024 0.22720330697251123
0.5546116780365034 13.079846659521632 52312.5030826795 10.236184750827343 0.2304472638601987
0.5742918291117616 13.057872316209531 44742.16831748656 10.738370051137714 0.23372643153253292
0.5943465264381146 13.039550042355701 38337.08680062796 11.262034549845586 0.23704673644711238
0.6147804418322521 13.024529204959325 32911.90547795484 11.80812537413781 0.24040992006075212
0.6355797478779512 13.012465574773541 28303.619125424462 12.37762116918276 0.2438176146775451
0.6567500114538445 13.003033146272468 24378.269796706645 12.971225269395456 0.24726793417969012
0.6782795231331401 12.995986285286694 21034.91760983769 13.590235608608973 0.2507653430249501
0.7001650487621729 12.991063917125407 18042.336818968695 14.235863091596194 0.25431263352170785
0.7223967443282768 12.98800686695388 15735.419041542473 14.909296936208296 0.25791178939232584
0.744981786371551 12.986644086014243 13638.965464123874 15.611584669801735 0.2615628885645789
0.7678988855252512 12.986746448233527 11758.226639509627 16.343956415662916 0.2652674684185668
0.7911408699990781 12.988123279760682 10292.727456588207 17.108044745316562 0.26903039282322394
0.8147140347338756 12.990642983130302 8959.530337238957 17.905304084550842 0.2728540931359169
0.8385925752732629 12.994118767620218 7809.967544317181 18.73711994874247 0.27673983425425625
0.8627693829514101 12.998392480085956 6817.117284544683 19.60479577455226 0.2806877335347296
0.887242252391826 13.003337942238158 5958.135979779525 20.510436076538788 0.28470432709418825
0.9120002094266452 13.008834235548546 5213.261819803529 21.45583415032988 0.28879262662750177
0.9370166991190944 13.014725791726251 4567.147674069372 22.442499688392626 0.292952762650631
0.9622929649617774 13.020916343063133 4006.560339759927 23.47240593469324 0.297188120147814
0.987813372081354 13.027313228879661 3518.0661270447777 24.54799895403603 0.30150499954192206
1.013553707393778 13.033778025563311 3093.5070663998135 25.67125097377098 0.3059052584745343
1.0395149666076535 13.040226484036799 2722.6507076592984 26.844061920151226 0.31038970699568114
1.0656629582045665 13.04654652430156 2399.4258988051747 28.06955637548403 0.3149672970866587
1.0919911328763465 13.05267662682549 2116.6127736250223 29.349823528195387 0.3196387138815612
1.1184875892127815 13.058513678642447 1869.4619944717472 30.687548625633095 0.3244081642583904
1.1451158806779365 13.063977109177877 1652.818832040059 32.086203038459466 0.32928419299066575
1.1718766619190206 13.068985430700634 1462.8490458095728 33.547648050236575 0.33426398322530365
1.1987289502276786 13.07344572285838 1296.0560181131286 35.07646190728981 0.33936134875129964
1.2256733618060587 13.077318147058293 1149.5848823745744 36.67471288056276 0.34457333035543675
1.2526647583719908 13.080484640864219 1020.644944435222 38.34736897456786 0.34991385960490196
1.2797047865232831 13.0829288494507 907.1772990838699 40.09673662943851 0.35537992406633345
1.3067452613043635 13.084517824272938 807.1689264408475 41.928266937760874 0.3609859675617909
1.3337807092620602 13.085230172390322 718.9097293391231 43.845369252464295 0.36673351825684736
1.3607866001860605 13.085036346982912 640.9559203084355 45.85284995256521 0.372630993386297
1.3877161766767454 13.083783523583003 572.1038991919543 47.95597983491672 0.37868801309866773
1.4145708419521426 13.081496308213575 511.090317790243 50.15944034021277 0.3849098560129379
1.4412921506332261 13.07805280693717 457.09457514004265 52.46858830955832 0.39130421484031164
1.4678852528714106 13.073463381057667 409.226737459451 54.88976662092436 0.39788241235105054
1.4942929848834172 13.067599725636356 366.727759953368 57.42916048298175 0.4046535017547023
1.520503364129912 13.060464448307878 329.0112081505133 60.09339279637031 0.4116272457065648
1.5464856395956785 13.051986141871673 295.4479271838555 62.8895635513067 0.4188141747108546
1.5722008411901107 13.0421143614334 265.60839205492306 65.82529299661765 0.42622565029047926
1.5976242492558639 13.03079573647652 239.0552514580671 68.90876896297438 0.43387393348133996
1.6227060749008284 13.01795676138408 215.35585332948202 72.14879877067678 0.441772259277393
1.6474640962992686 13.003657386077583 194.20804317388198 75.55486620629468 0.44993491772840855
1.6718120501473803 12.98773325615604 175.32834802006036 79.13699792945695 0.4583765231738583
1.6957503850525752 12.970196914296714 158.45454691490576 82.90518659439637 0.46710953153274076
1.719215500097271 12.950959844950257 143.36957807808525 86.87225257778852 0.476155872401281
1.7422191208387983 12.9300732377931 129.86152308508096 91.04987969243864 0.48553033359572145
1.7647012145638217 12.907434406603794 117.74543976832614 95.4519174428109 0.4952539050765067
1.7866264077808724 12.883015321717291 106.88169541644285 100.09226008518549 0.5053450275132626
1.807968212732019 12.856771697932132 97.14032342030039 104.98730225438268 0.5158289172772434
1.828681319749519 12.828652646260782 88.38299869817251 110.15354301688559 0.5267279888750985
1.8487625158751217 12.79870156143375 80.51053638248165 115.6085458948932 0.5380654086734216
1.8681514883849382 12.766811036431033 73.42485689984193 121.37268366458451 0.5498711529487574
1.8868250507538606 12.732979085603123 67.04835495156279 127.46725678613166 0.5621746101232358
1.904750681777644 12.697180257863275 61.29157322421092 133.91483055244476 0.5750055631681036
1.9218973239492994 12.659383850961852 56.1054701165422 140.74076807163647 0.5883992242152773
1.9382156007609141 12.619512707202523 51.422300861217245 147.97287163921624 0.6023943624665438
1.9537182119674195 12.577696161100343 47.19371774856023 155.63979006940005 0.6170273134532652
1.9683384775922936 12.533781786527936 43.36370482020205 163.77495940242045 0.6323450119140611
1.9820625959533849 12.487806634062995 39.90160058428688 172.4119648011153 0.6483884597686517
1.994856091845944 12.439748256485704 36.76524726306177 181.59038780354976 0.6652118882441866
2.0066920934522847 12.389595544397832 33.92380858977432 191.35202047585312 0.6828690921433925
2.0175529362248703 12.337357600292595 31.34423093928629 201.74284812264602 0.701419241004574
2.027396573609668 12.282994197347259 29.007633669899864 212.8129665814756 0.7209255973591803
2.0362153656013873 12.226551486779071 26.885356203026305 224.61740498986393 0.7414571103313041
2.0439676546388132 12.16798161945205 24.955531179965895 237.2176662391955 0.7630921585779001
2.0506363452702696 12.10730069847219 23.200412376367144 250.68021160845242 0.7859121671452404
2.056211822582729 12.044556485527874 21.604334044753298 265.0782434783735 0.8100057990405104
2.060675334532354 11.979752932466088 20.152561598333563 280.49364029414215 0.8354733887705859
2.0639964042913252 11.912895776797942 18.832041650245838 297.01552895242446 0.8624201554361948
2.0661612344784857 11.84400639181627 17.62780445412633 314.74439294993874 0.8909671744323809
2.0671648146162407 11.773141450312448 16.53188125023089 333.7897339112618 0.9212409049152555
