M[M_sun], R[km], Lambda[1], P_c[MeV/fm^3], rho_c[fm^-3]
0.24162668629717493 15.618656898711224 2160425.4255784233 3.5677272577965504 0.1711233750220791
0.2536526475984824 15.277092799944596 1722879.7350064486 3.7849951957570647 0.17389036169470204
0.26605927804344437 14.98085011991461 1382519.9503036633 4.011770623551057 0.17667112194991336
0.2788459768917381 14.722948638108614 1115896.6065470923 4.248304177065138 0.179464194515098
0.29201344281429625 14.497651703400036 905237.0868162218 4.495223611711839 0.18227619235793072
0.30555971356608713 14.30046168340904 738138.3705431474 4.752695947351509 0.18510304517646337
0.319488827546227 14.127351233532204 604529.2873827108 5.021385022560844 0.18795096599199235
0.33379683484989275 13.97521324162649 497188.7482725103 5.301540170005749 0.19081707150528535
0.34849435106642285 13.8412336324961 410492.3820018299 5.593861233194898 0.19370707469977724
0.3635706726473206 13.723216579302346 340199.3369293472 5.898551986169277 0.19661671151233706
0.3790399819017868 13.619229891189066 282893.33414178476 6.2164618293178995 0.19955335229001844
0.3948867100488464 13.527742840221864 236044.8168359599 6.547819610606572 0.20251266540755708
0.4111296922061337 13.447152936136689 197530.4680109453 6.893385301113722 0.20549933243902554
0.4277541968045682 13.37637099871134 165786.91143554045 7.2538350424092295 0.208515898270871
0.44476660710250165 13.314284755194214 139537.41969694963 7.629400832429559 0.2115574735420208
0.46216642977798766 13.259945396156219 117742.03759831123 8.021099735789786 0.21463126001357102
0.47995027322350237 13.212580536018473 99605.6976174171 8.429605673816393 0.2177383797333649
0.49812656804540123 13.171462466497458 84459.33703534024 8.855304910441799 0.22087550449402313
0.5166850056324142 13.135933687699204 71778.23395225847 9.299180644040888 0.22404758658244506
0.5356258723297415 13.105422701813838 61132.99581046292 9.762068969811516 0.22725680634410902
0.5549505135894789 13.07943126523566 52174.08002720498 10.24471319593552 0.23050363293006412
0.5746540494663406 13.057511880635731 44616.43251435425 10.747713342925342 0.23378641835999905
0.5947331057617224 13.039236640210914 38227.14144427896 11.27226434969384 0.2371106524216858
0.6151900851465826 13.024261107081815 32810.78749336809 11.81930216117497 0.2404778935739955
0.6360202894668364 13.012229868428463 28213.999009957486 12.389774058685655 0.24388937948949266
0.6572140447207877 13.00286062143657 24300.03147083915 12.984368566902413 0.24734305587857708
0.6788895433477373 12.99607530780549 20950.761236954502 13.508576504694119 0.250057971234431
0.679536078982155 12.981183008493653 20682.454257257337 14.651913857997192 2.0531350380134
