M[M_sun], R[km], Lambda[1], P_c[MeV/fm^3], rho_c[fm^-3]
0.24162668629717493 15.618656898711224 2160425.4255784233 3.5677272577965504 0.1711233750220791
0.25364216140833185 15.27735907132135 1723240.4082508478 3.7848056892664577 0.17388799958771758
0.2660382039337677 14.98130190155049 1383091.9878304808 4.0113722305721415 0.1766663076058786
0.27881209285579034 14.723586350349962 1116482.3927196322 4.247683406461244 0.17945699451157418
0.2919652078665379 14.498505584023423 905926.681600868 4.494364160665099 0.1822666221710571
0.30550045100819956 14.30127072927655 738686.9549875415 4.751568618089151 0.18509086786888967
0.3194160073141128 14.128191709194486 605106.2804085189 5.019981496895889 0.18793640387150728
0.33371212596344285 13.976017565691702 497712.6319500536 5.299823478807305 0.19079978727342284
0.34839280271432876 13.84208913948358 411051.8378383939 5.591827075929032 0.19368739366865262
0.3634530270477399 13.72407682785567 340683.74329700676 5.896154641123083 0.1965941951403309
0.3789057945500973 13.620071112865576 283343.0977598663 6.2136722644027556 0.19952791481684715
0.3947369543129686 13.528514355448378 233328.3469790898 6.544640707791131 0.202484790724353
0.4109602945654066 13.447952846594658 197898.977504024 6.889755663521301 0.20546842092217016
0.42756701053876606 13.377113508563678 166105.15480840334 7.24972512229065 0.20848193270767576
0.4445603856996415 13.314978787125508 139826.42971158735 7.624812913836113 0.21152095075999502
0.4619407082028639 13.260616600634425 118002.05289662998 8.015958294376196 0.21459148680756004
0.47970289446823366 13.213209659978082 99832.34903343846 8.423870587353534 0.21769525990066804
0.49785797615248345 13.17203680222022 84661.65599799572 8.848997314244874 0.22082983480252888
0.5163947348604262 13.13644591852053 71952.79964480021 9.29219841222573 0.22399843123517493
0.5353116086901025 13.105880084914697 61289.06229020045 9.754364724934483 0.22720405900558643
0.5546164153410632 13.079845196701953 52311.307812549894 10.236305599127633 0.23044806866273554
0.5742966290808795 13.05787577095804 44740.205858206085 10.738501381137839 0.23372727471181465
0.5943511278032242 13.039551295634197 38338.44960956415 11.262178336391248 0.2370476348280517
0.6147861575137044 13.024535328327376 32909.792011775855 11.808282466541757 0.24041087544467102
0.6355857963121527 13.012460776224874 28301.82931656841 12.377792469739582 0.24381862896085305
0.6567565351022098 13.003042935413047 24377.230245366703 12.971409991473084 0.24726898997533697
0.6782864450628454 12.995984226757818 21033.89580011166 13.590436375062236 0.25076646083877335
0.7001723000744491 12.991072400380991 18178.11592785105 14.236080978760109 0.2543138155702061
0.7224042617706423 12.988006485846109 15734.509604666011 14.909533089568562 0.25791303802416027
0.7449897096144517 12.986642737037007 13638.224158703093 15.611838004497164 0.2615641834434984
0.767907612385487 12.986752105909238 11839.431464082214 16.344230362033212 0.2652688339725146
0.7911513684924092 12.988115249523153 10293.49211900502 17.108340678056177 0.26903183184392543
0.8147231392814845 12.990647120021189 8959.287304977273 17.905623469487143 0.2728556085946025
0.838601690081702 12.994117348678248 7809.448805984935 18.737461369351244 0.2767414029052978
0.8627800037868171 12.998390215807047 6816.811141373637 19.605163669648757 0.28068938404800825
0.8872522733813731 13.003332886206977 5957.196489927724 20.510832216545914 0.28470606304112195
0.912012832942943 13.008833475560404 5213.119803190128 21.456260426894328 0.2887944518203066
0.937028913295128 13.014720421886759 4567.008083460647 22.44295432592715 0.2929546509561181
0.9623042960921945 13.020920900131802 4006.471537875574 23.472894637898424 0.2971901049167381
0.9878273216685112 13.02731101907947 3517.7983244059337 24.548524022856153 0.30150708539108256
1.0135666185214391 13.03377620724166 3093.3300283090566 25.671810375903625 0.30590741731509896
1.0395277551194309 13.040229109752007 2722.506220972918 26.844662493533562 0.3103919758537746
1.0656756142421093 13.046557185369338 2399.2046678348743 28.070200930951973 0.31496968157760885
1.092005194146691 13.05269154503157 2116.4403371144804 29.350509781546506 0.3196411839722635
1.118502379271862 13.05851774626899 1869.3440562947674 30.688284768925065 0.32441076105155375
1.1451291985692185 13.06397592239064 1652.7120913051426 32.086986669320844 0.3292868854691209
1.1718906143201806 13.068990049893305 1462.7416953239924 33.54848835925738 0.3342668151533432
1.1987436529645086 13.07344690640632 1295.9273622876299 35.077362859892155 0.3393643279573068
1.2256876287548488 13.077320212787122 1149.5564251180544 36.67567186255085 0.3445764238828831
1.2526809890458643 13.080482799423917 1020.6062145960154 38.348397017863775 0.34991711622069394
1.2797198164485708 13.082934339733004 907.053393552884 40.09783105446304 0.35538330985173555
1.3067625851904234 13.084516687045065 807.1255148278502 41.929432267727094 0.3609894905308255
1.3337987489011114 13.085231698216983 718.8420994103061 43.846618550549195 0.3667372318168451
1.3608043621325376 13.085035907719938 640.909219716018 45.854180601424964 0.37263486273242624
1.387733743325492 13.083782877688728 572.0754558784078 47.95739751722817 0.37869204828016395
1.4145887800179016 13.081499108501465 511.0556244723126 50.160960598663785 0.38491411594465363
1.441310706574152 13.078049355225238 457.06660232776784 52.47020873113312 0.3913086639108365
1.467902930942048 13.073456786082907 409.199048676804 54.89149437945883 0.39788706316629474
1.4943118280849887 13.067598821557766 366.69926310135827 57.4310033333422 0.40465836789497517
1.520521498331989 13.060458767115376 328.9821686752058 60.09535912646913 0.4116323418065844
1.5465046149476311 13.051979335434275 295.4261057795136 62.89166243930682 0.4188195165476839
1.572221011965891 13.042105164914537 265.58421080517246 65.82753427390539 0.4262312548802434
1.5976436118019917 13.030788475092821 239.03024260415677 68.9111632835468 0.43387981918567103
1.6227241430903259 13.017946611114606 215.33423879868639 72.15135768767351 0.44177844592067067
1.647482936432598 13.003645453998413 194.1964938292938 75.55760225649024 0.449941426726984
1.6718315186460393 12.987720526832529 175.31741754644437 79.13991044305273 0.4583833180347559
1.6957695620871829 12.970181472031006 158.44076145431706 82.90830398182864 0.46711669527998084
1.7192339557036551 12.950946952116707 143.3497169387484 86.87559088328025 0.47616343202074224
1.742236724755394 12.93005531409111 129.83725582570213 91.05344030565739 0.48553825464951855
1.7647174686249734 12.907414857637242 117.73670613676786 95.45573465714014 0.49526228089708757
1.7866460451316968 12.882992690375588 106.87192678039446 100.0963372241572 0.5053538258022818
1.8079851923123713 12.856748311963269 97.1301521211155 104.99166045584272 0.515838171927179
1.8286986697575751 12.828627221338342 88.3724240769178 110.15822377291326 0.5267378051620679
1.8487794993320334 12.798673856905085 80.50215577273991 115.61355654589262 0.5380757589493437
1.8681680648604684 12.766782583441113 73.41482559417878 121.37805176174736 0.5498820804273928
1.8868418640001416 12.732946499001185 67.04127748439004 127.47301246154773 0.5621861617178705
1.9047674562818673 12.697145538008352 61.28897415579666 133.920985626032 0.5750177151944983
1.9202217111031759 12.660397254234708 56.473634862587076 140.99288575690883 0.8549386326847014
1.9282874078451284 12.621172974434764 53.264602095276125 149.4022032585998 1.2335605233396276
1.9298060657332894 12.575501783130594 51.1081641013303 159.2469323896777 1.6016526003465918
