M[M_sun], R[km], Lambda[1], P_c[MeV/fm^3], rho_c[fm^-3]
0.24162668629717493 15.618656898711224 2160425.4255784233 3.5677272577965504 0.1711233750220791
0.2536408117323181 15.277377236785375 1723259.7567946569 3.7847780182448814 0.17388765468178258
0.2660355333273493 14.98133043307012 1383126.811500523 4.011314061102956 0.17666560466217276
0.27880779390787597 14.723650110417934 1116553.6597233776 4.2475927711373895 0.179455943278402
0.29195947522084514 14.498560599059475 906048.5141764246 4.494238681722671 0.182265224933911
0.30549127991561786 14.30142166644916 738790.7824794906 4.751404035606689 0.1850890900639687
0.31940409554138277 14.128371767221998 605215.1844958425 5.019776599126946 0.18793427797807122
0.33370431475337164 13.976040520348352 497792.79221064475 5.2995728721530195 0.19079726408024583
0.34837652252258405 13.842239150260909 411132.3739956778 5.591530135314186 0.19368452068651842
0.36343717193782443 13.724159512649116 340759.0637364452 5.89580469632232 0.19659090838470591
0.37888689872218645 13.620175314068195 283392.20816729125 6.213265081519691 0.1995242017992337
0.3947148711958635 13.528647804565002 233383.1329804321 6.544176710210261 0.20248072209239878
0.41093562929329114 13.44807083314025 197951.08787841667 6.8892258950796945 0.20546390919181276
0.42753958217457655 13.377221137169654 166156.26054612102 7.2491246128434845 0.20847696484691675
0.4445304829496828 13.315101816848413 139869.94989902806 7.624143323703668 0.21151562039199573
0.4619069518674351 13.26071779174544 118040.10083700552 8.015207946018839 0.2145856822563853
0.4796677494664113 13.213286122997786 99863.64635015691 8.423033631044925 0.21768896715927077
0.4978187935978631 13.172119551732449 84689.87131138614 8.848076836443521 0.2208231701499572
0.5163523511136576 13.136519856495147 71976.18460993534 9.291179519000101 0.22399125816334592
0.5352658081658183 13.105949275316055 61311.64218556315 9.753240509584948 0.22719636203222165
0.5545673066339728 13.079923121583295 52335.14189817881 10.235068735348364 0.23043983163246773
0.5742401662775138 13.057965725671753 44756.62165445072 10.73715724333345 0.2337186449307487
0.5942953113635665 13.0395953247376 38355.66261205741 11.260706713955697 0.23703844010444344
0.6147274414393867 13.024559307069778 32924.11755084043 11.806674667978264 0.2404010973468523
0.6355230281578756 13.012479612070326 28314.20563169469 12.376039261402315 0.24380824808419485
0.6566893058845711 13.003064987353358 24388.673684460635 12.969519424230587 0.24725818426824245
0.6782161154842653 12.996016843148098 21044.334319883535 13.588381607124315 0.25075502044140024
0.7000974767733591 12.991080470753111 18186.755201602267 14.233850995577262 0.25430171780260474
0.7223248726919519 12.98801608753749 15742.826849264742 14.907116169001863 0.25790025885405904
0.7449068620891934 12.986659805458208 13645.044087732624 15.60924524926912 0.26155093099861515
0.7678212422726464 12.986754949401371 11846.167996977665 16.34142666745264 0.26525485825822137
0.7910594182480729 12.988125118526161 10297.819851565198 17.105311976597108 0.26901710429433434
0.8146284542397566 12.990643819662138 8964.215652963381 17.9023547611154 0.27284009880710247
0.8385037613297904 12.994101509134149 7813.996877648755 18.73396715064154 0.27672534877828403
0.8626769406163843 12.99837268558119 6820.715202085865 19.601398516574346 0.28067249218072116
0.8871453269151764 13.003318711357975 5961.0383911079125 20.50677801234329 0.28468829688969177
0.9118979288641444 13.008804518959346 5215.839081546807 21.45189781441038 0.28877577237700613
0.9369119752653566 13.014696704058005 4569.586885557492 22.438301475812487 0.29293532566567293
0.9621831647502856 13.020887762836969 4008.3524163079064 23.46789317316834 0.2971697924823893
0.9877008475215683 13.027287429359193 3520.096104083119 24.543150408595597 0.30148573857259986
1.0134364268120806 13.033745319050963 3095.023192892112 25.66608540943604 0.30588532356693426
1.0393936429221473 13.040191821757677 2724.293469776315 26.83851620251449 0.3103687562730644
1.0655418530542895 13.046529715486768 2400.8746390600954 28.063604553028593 0.31494527870734534
1.0918627712026874 13.052651340341908 2107.3867049269966 29.343486691336796 0.3196159051597079
1.1183553329245428 13.058489337435054 1870.6169488215187 30.680751138907098 0.3243841856834983
1.1449813097502723 13.063958270678746 1653.779902180809 32.0789670830136 0.3292593309604667
1.1717362529716695 13.068959551207298 1463.728204765653 33.53988877250178 0.33423783365932236
1.1985857283838304 13.073423900364096 1296.8893529992163 35.06814269688454 0.33933383937783246
1.225525841025977 13.077301192335575 1150.3300980795095 36.66585787385344 0.34454476547451807
1.2525161268069371 13.08046578749781 1021.3451985808165 38.33787631970533 0.3498837889552944
1.2795517879544618 13.082916918738427 907.7508722786675 40.086631066074894 0.355348660829337
1.3065902642216118 13.084512868399058 807.7430016200977 41.91750670590447 0.36095343775072103
1.3336217565260287 13.085231720789887 719.373397937333 43.8338337492965 0.36669922877570976
1.3606253651226252 13.08503733271883 641.380097137638 45.84056334256803 0.37259526559343503
1.3875519752458516 13.083792066978797 572.5005066826274 47.94288965452051 0.37865075421965794
1.4144031569420705 13.081517909001427 511.43685482688375 50.145403098203 0.3848705221138905
1.4411308041885136 13.07809639550082 457.42673431052225 52.45362628342991 0.39126313472234975
1.4677144855910713 13.073493279400774 409.5203297148415 54.87381358183294 0.397839469638908
1.4941204902544332 13.067643222409425 366.9863743967551 57.41214483850933 0.40460857107849935
1.5203302233138123 13.060514869672883 329.25745003609046 60.07523711041476 0.4115801919633452
1.5463108983327996 13.052049924670314 295.6695907807512 62.87018401607486 0.4187648522529482
1.572025350800376 13.042186504954762 265.80181131964144 65.8045988513914 0.42617390203284633
1.597447239222114 13.030880886100492 239.22295628052697 68.88666185366544 0.43381958991911806
1.6225339754825567 13.018083032091955 215.51926844431244 72.1251720434576 0.44171513740383883
1.6472860924064012 13.003766070257548 194.3542202460298 75.52960412775279 0.4498748198422261
1.67163544882425 12.98785747403371 175.45938350558885 79.11010668021498 0.45831378619703267
1.695573838214384 12.970334535418324 158.57938293405988 82.87640390762508 0.46704338900236914
1.7190467180478715 12.951139258895068 143.47697080079064 86.84143034460504 0.4760860752079477
1.7420444217784266 12.930241793207665 129.96040675590075 91.01700508118526 0.4854571996863921
1.7645301349192255 12.907627348205464 117.83819501010707 95.41667388738311 0.4951765728463946
1.7864562520744256 12.88321367694208 106.96063832621606 100.05461690193245 0.5052637951569058
1.807800678038846 12.856987351601788 97.21792798430872 104.94706431711985 0.5157434719331238
1.828524570304808 12.828911830420896 88.44988285820304 110.11032731800324 0.526637358707812
1.848599151978805 12.798956934196834 80.56982548410446 115.56228467153004 0.5379698489494742
1.8679919306839998 12.767085272214516 73.48135453424236 121.32312259556026 0.5497702647743297
1.8866698857516913 12.733275740052772 67.09880263886623 127.41411772911658 0.5620679604598104
1.9046003700295229 12.697494565963275 61.33891429452779 133.8580043923131 0.5748933706836376
1.9217357718878953 12.65966757134072 56.148662003643295 140.6797334048395 0.5882803054740462
1.9380820710131128 12.619900493492402 51.461184007890104 147.90726311904777 0.6022681612137724
1.9535760433954594 12.578047755097753 47.22573850728684 155.56942240974647 0.6168939596943197
1.9682093105815315 12.53418577872217 43.39555795160907 163.69918529434955 0.6322031298955351
1.9819410844133476 12.488236637407933 39.929322988831835 172.3305310473676 0.648238101246139
1.9947404213119981 12.440199383608359 36.79278608642096 181.50277824631974 0.6650523062209168
2.00658686006365 12.39007449459083 33.94831451504768 191.2576664475519 0.6826994707751091
2.0174565221858867 12.337862625885114 31.37006664456565 201.6411223329708 0.7012386877623222
2.0273069951848783 12.283527362949956 29.027721917943396 212.7034326874949 0.7207339743648657
2.0361351250376223 12.22711060452194 26.905211504700805 224.49904967316073 0.7412525303487422
2.0438975557923023 12.168569775118439 24.973779952677933 237.08991313959066 0.7628743278074742
2.050575219347615 12.107914368388949 23.216990994505498 250.54186099085413 0.7856789392765913
2.0561615211594826 12.045195875513935 21.62032622790658 264.928542246553 0.8097566874933028
2.060635158254819 11.980422011834248 20.166668880608036 280.33154711748614 0.8352072008618674
2.063968742770876 11.913592235134146 18.844576458500033 296.83988530243556 0.8621355812511877
2.066144163957758 11.844732299227951 17.63921590161551 314.55359384053475 0.8906617425855217
2.0671605557694184 11.773898299022072 16.543576978499388 333.5825215302914 0.9209136295115209
