M[M_sun], R[km], Lambda[1], P_c[MeV/fm^3], rho_c[fm^-3]
0.24162668629717493 15.618656898711224 2160425.4255784233 3.5677272577965504 0.1711233750220791
0.2536448009712304 15.27724016869408 1723199.5020734563 3.7848355330028722 0.17388837157549492
0.26604096643208025 14.981252044135056 1382988.5743180367 4.0114349681554415 0.1766670657525476
0.27881717364199726 14.723485656284186 1116382.2102770223 4.247781160497359 0.17945812831108093
0.29197293164097077 14.498345520547552 905771.9621608908 4.4944994963932885 0.18226812916580026
0.3055092698654607 14.301183963021602 738649.4407417519 4.751746130896382 0.18509278534599605
0.31942805133339364 14.128050280956005 605049.7633332993 5.020202494486405 0.18793869680680614
0.3337275933629846 13.975882107237371 497651.5386701698 5.300093779565881 0.19080250875355162
0.3484084563340671 13.8419678114654 410971.65458339005 5.592147354831588 0.19369049245514053
0.3634715279043718 13.723941651967385 340627.4653604712 5.896532093818446 0.19659774025592328
0.37892618920610216 13.619953826591908 283273.77498085494 6.214111458732349 0.19953191974030862
0.39476044558149637 13.52839925246425 236380.02470338906 6.545141187860208 0.20248917925844337
0.4109868649319839 13.447810792423574 197836.9732687861 6.890327091232063 0.20547328744034535
0.4275960898549753 13.377005628370433 166064.07571171215 7.250372859991578 0.20848729127567459
0.44459187548618256 13.314888218297671 139781.26858520607 7.625535171341287 0.21152670039414626
0.4619757555334784 13.260545632176491 117962.94918282826 8.016767669784313 0.21459774798069375
0.4797413454806694 13.213121379782724 99793.59077493653 8.424773392211844 0.2177020477311045
0.49789988858180917 13.171948581588193 84628.77720887234 8.849990219849841 0.22083702386334478
0.5164404657852019 13.136367210738252 71929.18387310118 9.293297487140913 0.22400616879109714
0.5353605080586689 13.105814740245718 61264.69935070976 9.75557742135986 0.22721236176723217
0.5546683767969726 13.079778271445823 52294.2209906064 10.237639822098396 0.23045695406723876
0.5743532623484174 13.057812797446038 44721.387714594326 10.739951333497851 0.23373658385510496
0.5944120314655937 13.039512477702155 38322.22474261238 11.26376582368107 0.23705755347736612
0.6148507433756879 13.024478841034988 32616.535319088027 11.810016867111841 0.2404214234939206
0.6356561484136669 13.012420313959801 28285.67682196673 12.379683747041758 0.24382982735409764
0.6568287077321576 13.00300279608258 24365.759133348638 12.973449460447299 0.24728064674366998
0.6783617336472566 12.995970354101901 21022.547542414537 13.592652997111044 0.2507788023964725
0.7002516184441152 12.991060999374207 18168.111175096965 14.238486639351336 0.2543268663963218
0.7224885842227337 12.988002847029607 15725.430856447749 14.912140437846364 0.2579268240573524
0.7450781208764081 12.986639097735681 13630.48670943588 15.61463506214102 0.2615784801468121
0.7680015211974224 12.986759230052874 11833.650838735783 16.347255007692173 0.2652839110725172
0.7912468653281729 12.988150843460712 10287.48185365184 17.111608092194135 0.2690477201724391
0.8148228583580411 12.990680465038944 8953.845369993887 17.909149839030423 0.2728723409659379
0.8387084947681467 12.994131329375374 7805.353341810921 18.741231053321822 0.2767587226526557
0.8628901148847627 12.99842305916588 6812.094071379185 19.609225683922197 0.28070760774427483
0.8873732516266318 13.003366692725347 5953.582291578411 20.515206111997315 0.2847252301291732
0.9121285790653663 13.0088732086815 5209.4809215619325 21.460967093217516 0.28881460440251316
0.9371538491858976 13.014751483560623 4563.894650838327 22.44797415667802 0.292975500475199
0.9624395889217456 13.020959233551554 4003.3840936646025 23.478290629409646 0.29721201964157046
0.9879606260695479 13.027351857770874 3515.4629403820772 24.55432157416845 0.3015301163102195
1.0137059089092744 13.033805956833081 3090.935024478357 25.67798704523906 0.30593125427162376
1.0396720147497482 13.040264783382069 2720.5882081823615 26.85129379311826 0.3104170277095105
1.0658254828700853 13.046587681249155 2397.405892204098 28.0773179023659 0.3149960103495653
1.0921593173739994 13.052726281907562 2114.9181888146964 29.358087200701235 0.31966845802866145
1.1186603545415632 13.058548126055324 1867.7879931956772 30.69641310386502 0.3244394342797574
1.145292047200251 13.064005916247648 1651.5129297105675 32.095639390552655 0.3293166153670147
1.1720563965620883 13.069017962357233 1461.4757225359647 33.55776696358482 0.33429808500659086
1.1989150369714 13.073481649806157 1294.980922826554 35.087311141092044 0.3393972242262497
1.225862296472522 13.07734104738932 1148.6662538443902 36.686260951153834 0.34461058264356065
1.2528595022207691 13.080498153727094 1019.8586859399705 38.35970309583149 0.34995280821810876
1.2799039178768346 13.082938334639008 906.403223235913 40.109915835066396 0.355420696125658
1.3069485738705406 13.084528568845778 806.4921944502944 41.94230005246687 0.36102839179355467
1.333987250975417 13.08523861769539 718.3386749014452 43.86041361042886 0.36677823786908703
1.3609972885800035 13.085030911628321 640.3767362407277 45.86887403087857 0.3726775892293258
1.3879302382989176 13.083767043475445 571.5953176648525 47.97305207693902 0.3787366062105028
1.414780675594974 13.081462520192842 510.64093956812553 50.17774794798861 0.38496115594746594
1.4415115078091325 13.078019276891604 456.70846265524494 52.48810222032003 0.3913577927280327
1.468107706091721 13.073419574718086 408.85315449516105 54.91057323982207 0.39793842002713437
1.4945171702556528 13.06754862151293 366.39580235665306 57.4513532140825 0.40471210279192804
1.520730210930457 13.060398014471339 328.721074935476 60.117072669289776 0.41168861637923193
1.5467144333799672 13.051904650945962 295.17218537759936 62.91483991036533 0.4188785050542184
1.572430685207342 13.042020401612897 265.3614781208171 65.85228425948829 0.426293145265971
1.5978452193140609 13.03068010626167 238.81824681708412 68.93760345662675 0.43394481425901366
1.6229422626092527 13.017857167916935 215.15246256890924 72.17961565339255 0.4418467646484287
1.6476945017468205 13.003512488015973 194.01815668972642 75.58781648560976 0.450013305662033
1.6720418345066774 12.987577246709519 175.15930434317283 79.1720735338304 0.4584583541575706
1.6959802652720342 12.970014484831594 158.30117868593757 82.94272973860636 0.467195805568792
1.7194605958503648 12.95079805377864 143.2217508979948 86.91245652223677 0.4762469145547393
1.7424427856789009 12.929853031557155 129.72480536359666 91.09276117178136 0.4856257291031539
1.7649243058653912 12.90719357244653 117.63229600132983 95.49788954591565 0.4953547781357903
1.786850365857078 12.882755423030043 106.78399274628372 100.14136284115328 0.5054509891303783
1.8081882226747612 12.856486686762578 97.04592136169947 105.03979028353712 0.5159403757171721
1.8289010765737503 12.828355067157776 88.29591239398188 110.20972136400991 0.5268454874096251
1.8489743937105276 12.798368100353754 80.42848252725344 115.66889252139359 0.5381900639797514
1.8683494797951679 12.766421714769976 73.35768674874915 121.43733568216591 0.5500027607642318
1.8870244547813693 12.732595447319447 66.97635915211636 127.5364911983666 0.562313428453033
1.90494714954058 12.696769698010886 61.232090476858204 133.9889616813391 0.5751519210340523
1.922085863199361 12.658943045751332 56.05065446707534 140.82039042023487 0.5885543588291959
1.938398503628661 12.619044861052203 51.37173405074717 148.058462017807 0.60255899981815
1.9538918410600492 12.577192329107891 47.14388292051686 155.7315902683458 0.617201284019597
1.9685048594703514 12.533250904846808 43.3223241746884 163.87353461283703 0.6325291647137128
1.9822182324138815 12.487241738625864 39.86406564687944 172.5182047751021 0.64858462026458
1.995003368922116 12.439150526346051 36.730095885667524 181.7046865579357 0.6654200850101426
2.0068370710862835 12.388983396659919 33.889243580586104 191.47512023938242 0.6830903900646488
2.0176801616710054 12.33669821241687 31.315430098797652 201.8755676594251 0.701654805090654
2.027513968434454 12.28230465190001 28.98033142832495 212.95587538660064 0.7211756077637843
2.0363208896706606 12.22582358663601 26.859101227889415 224.77182578656434 0.7417240303546386
2.044059523936108 12.167220411369305 24.93296210837726 237.3843513165638 0.7633763719467651
2.0507152542748073 12.106501186155825 23.178757413923936 250.86049377555182 0.7862157157361036
2.0562845152194464 12.043741697832953 21.586041810992292 265.2735681824673 0.8103308239121167
2.060725756818239 11.978881394161313 20.13369404757524 280.7048870592102 0.8358198826325514
2.0640268869001606 11.911975501710288 18.814231249010124 297.24471591855456 0.8627914793873016
2.0661832604629042 11.843060636099901 17.612028487416847 314.9933604580694 0.891365722444758
2.0671714358619533 11.772158266634474 16.5178372114262 334.0601240001872 0.9216679644621053
