M[M_sun], R[km], Lambda[1], P_c[MeV/fm^3], rho_c[fm^-3]
0.24162668629717493 15.618656898711224 2160425.4255784233 3.5677272577965504 0.1711233750220791
0.25364455516752876 15.277258909153158 1723125.6416559606 3.78483027171348 0.17388830599606075
0.26604040482301805 14.981275347825166 1382958.4919766432 4.011423907807682 0.1766669320947723
0.2788170098576189 14.723470440987601 1116380.570211874 4.247763926833129 0.17945792842654643
0.2919716083412627 14.498364823925666 905818.8404193928 4.494475637116394 0.1822678634872146
0.30550750710601465 14.301219955059524 738664.2598060255 4.751714835791212 0.1850924472991326
0.3194256238048225 14.12808992870785 605073.8482192645 5.020163532950555 0.18793829256583391
0.3337231929950024 13.975935185327208 497703.50874540466 5.300046125752906 0.19080202895872694
0.3484056499390229 13.841988420896513 410982.50122613553 5.5920908896850365 0.19368994613931462
0.3634692475937336 13.723946040347808 340641.45984335995 5.896465548657702 0.1965971152496911
0.3789233542537243 13.619962698528525 283282.75947233307 6.214034028158486 0.19953121366670748
0.3947564957090955 13.528405611677197 236397.46797351845 6.545052952189706 0.2024884055508136
0.41098219295339705 13.44785177196745 197852.1870000937 6.890226346934983 0.2054724294596357
0.42759039622899747 13.377034617216689 166060.57810924988 7.250258661567864 0.20848634654138173
0.4445869165088777 13.314895058084366 139798.58780633067 7.625407834353196 0.21152568670984365
0.46196936307381953 13.260548505124303 117970.66597885205 8.01662497298051 0.21459664410555093
0.4797350009938889 13.213128716972923 99797.11334739604 8.424614222711995 0.2177008509989805
0.49789410577171406 13.171988708308747 84636.13309638436 8.849815164478672 0.22083575638766212
0.5164326612500308 13.136377777750265 71929.88147319293 9.293103712708083 0.22400480460700958
0.5353520621150493 13.105819311125247 61267.911065020635 9.755363613842379 0.2272108979277926
0.5546594275509293 13.079807182129764 52299.98776162193 10.237404587619611 0.23045538749737532
0.5743434769866361 13.057822095152279 44321.924057936114 10.739695694122053 0.23373494257112518
0.5944011425820455 13.039507734639345 38323.56249101845 11.263485934605777 0.23705580472535875
0.6148383440785776 13.024493083704288 32897.356695425064 11.809711074652848 0.24041956376556645
0.6356449506669487 13.012427419377934 28287.40735288165 12.3793502943357 0.24382785295588189
0.6568161950858438 13.003020730846071 24367.841654578322 12.973089878777147 0.24727859152229678
0.6783486876512663 12.995976919126125 21025.127342597883 13.59226217983305 0.25077662643057486
0.7002379255138361 12.9910533389342 18169.662704564536 14.238062490664884 0.2543245653689972
0.722473462509222 12.987999070433338 15726.182686593775 14.911680727279109 0.25792439339429407
0.745062495093249 12.986639278243139 13631.931724017119 15.61414190169379 0.26157595943773215
0.767983972843562 12.986760926939382 11834.212906246887 16.346721718240804 0.26528125275835573
0.7912306857323856 12.988139491218323 10287.330004775933 17.111031996874516 0.269044918815982
0.8148052560228961 12.990670607670761 8954.961809333941 17.908528083489276 0.2728693907803528
0.8386896788692435 12.994138111527954 7806.423277536507 18.740566395441714 0.27675566889359987
0.8628703692193478 12.998411128903372 6812.89045188426 19.608509480571517 0.28070439459152613
0.887353779443439 13.003359795247446 5954.23642460249 20.514434915588694 0.2847218506269347
0.9121103254426226 13.008857506590035 5210.294984000503 21.460137220059085 0.2888110511259692
0.9371324263630783 13.01474107378834 4564.471712975297 22.4470890639614 0.2929718243039495
0.9624165920384553 13.020953261903975 4003.7685771486535 23.477339208537305 0.2972081556387132
0.9879383682182503 13.027339034381388 3515.8463609623323 24.553299346207506 0.30152605548380507
1.0136819839481002 13.03379650375 3091.506051889271 25.676897967417254 0.30592705131056486
1.039646839632287 13.0402526618622 2720.9217301120716 26.85012454959444 0.31041261051802266
1.0657990637028167 13.046586184639255 2397.6431193752355 28.07606301910777 0.31499136799072847
1.0921320682988458 13.05271507372273 2115.2646600976923 29.356751125642496 0.3196636489788042
1.1186313017354732 13.058543665435678 1868.2470200150065 30.694979883574224 0.32443437850231127
1.1452636638785767 13.06400834175902 1651.7313285572297 32.09411370321854 0.3293113732556088
1.1720272586577818 13.069014159477252 1461.7481268308954 33.55613091071757 0.3342925713397441
1.198884862417833 13.073476590502484 1295.1270396177638 35.08555699967465 0.3393914237561312
1.2258314925178324 13.077338589364757 1148.797112178801 36.68439381210962 0.3446045595420309
1.2528281608755265 13.080502827190585 1019.9487848624922 38.35771538081495 0.349946549094077
1.2798719257014897 13.08293850016744 906.5273582015404 40.10778494845632 0.35541410387436967
1.3069157505124973 13.084522894839509 803.2375985871748 41.94003109185752 0.3610215323818866
1.3339545039880387 13.085240718357385 718.430874427432 43.85798113335841 0.36677100728924916
1.3609634345090318 13.085034203831073 640.470843441291 45.86628313481331 0.3726700552555146
1.3878953182896785 13.083770504670854 571.6829355616012 47.97029169382884 0.3787287492691002
1.4147455781700504 13.081461568680584 510.72087158054995 50.17478780479892 0.38495286130003387
1.4414770234669656 13.078024307187546 456.7752024825545 52.48494701680731 0.3913491297213394
1.4680719311369848 13.07342307199997 408.9184380408739 54.90720900302652 0.3979293641067255
1.4944810041061238 13.067557268851203 366.44345003699937 57.447764839114356 0.40470262750499136
1.5206932879743547 13.060406821483847 328.75465614387633 60.113243817974336 0.4116786932186825
1.5466773660664814 13.05191777037411 295.21488648750363 62.910752899773634 0.4188681032873308
1.5723935339248147 13.042034216589734 265.3991939248688 65.84791993922673 0.4262822317458996
1.5978076133996097 13.030698528673357 238.854796187017 68.93294107362252 0.4339333532173482
1.6229055280772964 13.017877006702358 215.1775459041313 72.17463270275606 0.4418347174667119
1.6476569700675578 13.00353874203615 194.04285225313683 75.58248854597845 0.4500006306199133
1.6720059082270993 12.987598451490346 175.18993118772033 79.16640191110329 0.4584451223266358
1.6959436968892339 12.970044378097997 158.32918630906588 82.93665908791108 0.46718185523117484
1.7194236256868791 12.950829891720106 143.24413484951342 86.90595558821066 0.47623219313769055
1.7424015893622287 12.929876725600744 129.7526236907378 91.08582724865641 0.4856103036764862
1.764888169165368 12.907233670279648 117.64930270641756 95.49045582494004 0.4953384668921006
1.7868138175608905 12.882794008243183 106.79815201001453 100.13342284921006 0.5054338549722317
1.8081517788422279 12.856533131881685 97.05971675907062 105.03130284101908 0.5159223526151947
1.8288610693151408 12.82839373366497 88.30701918443232 110.20064155354017 0.5268265039412329
1.848940274443341 12.79842276460191 80.44430243057273 115.65913420374812 0.5381699066628325
1.868316094592417 12.766480981480566 73.36902152391163 121.42688110046309 0.5499814790670616
1.8869937785002378 12.732655492912448 66.99128716627273 127.52532140126378 0.5622910729884865
1.9049157906893626 12.696835421606007 61.24162078867954 133.97697413340293 0.5751282538923257
1.9220561518646038 12.659013620523988 56.060824660097566 140.80751481591275 0.5885292722556317
1.9383688167423394 12.619120864110737 51.378772629471094 148.04462123753083 0.6025323763886671
1.953865081267238 12.577271935813654 47.15336239250388 155.7167452066946 0.6171731511417563
1.9684782827320866 12.533336591902565 43.328643567364416 163.85759529312514 0.632499389932026
1.9821917718509332 12.487328839470013 39.86954835350982 172.50102440562154 0.6485528985907968
1.9949804440289052 12.439249742679962 36.736010628166014 181.68620284861385 0.6653864166773217
2.0068150421619104 12.389084738864213 33.89563608308275 191.45521313662135 0.6830546028272654
2.0176601186208223 12.336804766873977 31.320004778667844 201.85410472864825 0.7016167105056687
2.0274945730783283 12.28241457692817 28.98415986900217 212.93276451516763 0.7211351766768918
2.036221736169827 12.226196875224955 26.876961685386185 224.6782593804846 0.9017649429609129
2.0365956749611644 12.180182726249688 25.8383849893769 240.4607799564299 2.0439865407303657
