M[M_sun], R[km], Lambda[1], P_c[MeV/fm^3], rho_c[fm^-3]
0.24162668629717493 15.618656898711224 2160425.4255784233 3.5677272577965504 0.1711233750220791
0.2536388931227819 15.277422565467077 1723267.2732315443 3.7847452959134404 0.17388724681370696
0.26603061856414423 14.981485990973482 1383252.962777014 4.011245273649721 0.176664773406396
0.27880162687436 14.723775574592494 1116636.2468691636 4.2474855928354645 0.1794547001716139
0.29195130685174536 14.498713681640824 906145.8557524126 4.49409030164197 0.1822635726872752
0.30548162673869084 14.301546483201907 738938.5115267291 4.75120941730914 0.18508698781492056
0.31939278651032277 14.128446407500912 605285.9211310968 5.019534310598094 0.1879317641410696
0.3336847383103022 13.97627932478441 497910.3082236587 5.299276536676537 0.1907942804737071
0.3483606918801293 13.842315358363223 411208.11053541803 5.591179014652224 0.19368112349752398
0.3634164435071857 13.724402384302707 340848.6520978001 5.895390904543022 0.1965870219647471
0.37886196437716424 13.620364070446511 283479.82371903275 6.212783613562679 0.1995198113911909
0.39468891964184255 13.52877618582311 236562.0899119174 6.54362806759269 0.20247591123782258
0.41090657078830606 13.448195122412681 198016.34080206035 6.888599489586854 0.20545857445977486
0.4275081341951236 13.37733763691577 164207.8536956222 7.248414569281796 0.20847109083849946
0.44449508918502406 13.315217014970644 139918.17262494465 7.623351606060202 0.21150931781048093
0.46186817524277374 13.2608246241889 118082.70450040554 8.014320749228688 0.21457881907194568
0.47962474266999977 13.213399907913681 99912.18685219962 8.422044040402763 0.21768152682106406
0.49777308094407846 13.172210896321642 84722.0612954144 8.846988501954185 0.22081529014324483
0.5163028155839896 13.13661043921236 72015.88348494376 9.28997483381182 0.22398277710451706
0.5352115206707091 13.106032147408618 61339.96911457579 9.751911309859784 0.22718726162731676
0.5545094749667776 13.079982503107926 52360.146470238426 10.233606361367846 0.23043009279223142
0.5741818869087283 13.057976172632431 44779.02309692421 10.735568049722277 0.2337084418154944
0.5942331496413533 13.039659394046378 38371.94515336042 11.258966809903542 0.23702756915243975
0.6146564892574469 13.024613022711057 32942.170135366905 11.804773780431963 0.24038953677900995
0.6354490949756442 13.01253227056735 28328.0698163583 12.373966476631852 0.24379597497176214
0.6566101883985085 13.003110562633372 24403.565513866986 12.967284260430281 0.24724540898853195
0.6781316284005013 12.996034876416799 21055.528656436276 13.585952336388928 0.2507414949127862
0.7000094318698509 12.991101271915605 18197.03244683882 14.231214599640294 0.25428741522597736
0.7222321094092726 12.988026701079923 15752.184999770869 14.904258793444118 0.2578851508323894
0.7448093179153921 12.986659174412495 13653.682620136835 15.606180019206786 0.26153526357578394
0.7677175979780676 12.98674722954474 11852.731882205915 16.338112090079143 0.26523833592133916
0.7909522235866357 12.98811393616537 10304.28260377783 17.10173142600032 0.2689996932892583
0.8145147414295436 12.990634577503606 8970.661443556179 17.898490509491182 0.2728217632094528
0.8383839407298503 12.994093028953543 7819.117148540285 18.729836333829624 0.2767063698123753
0.862554494653741 12.998349043346849 6825.355813825442 19.596947447420558 0.28065252304057053
0.887016883884347 13.003290793425847 5965.106906789251 20.501985280230024 0.28466729439444655
0.9117662577475414 13.00877646060619 5219.644236683168 21.446740543088563 0.2887536904346848
0.9367751527730667 13.014662014172941 4573.278937080613 22.43280114255459 0.29291248041273443
0.9620407596920469 13.020854960900076 4011.2704450328815 23.461980785326293 0.2971457805186211
0.9875534456844862 13.027249990664194 3522.73665896939 24.536798153596298 0.3014605040790447
1.013289266957557 13.033707272411835 3097.622341289658 25.659317867940395 0.30585920632094765
1.0392356030008705 13.040152530976291 2726.3446472417054 26.831250681383267 0.3103413084425297
1.0653784952863212 13.0464910424215 2402.569029003322 28.055807063332676 0.31491643240235173
1.0916961527926687 13.05261265380233 2119.6414550105337 29.335184858466892 0.31958602365872757
1.1181821186463616 13.058455810171541 1872.1105196487051 30.67184589995575 0.3243527718760523
1.1448027473866016 13.063912354753382 1655.1102656323144 32.069428747439396 0.329226380002042
1.1715550601793943 13.068932235638075 1464.8832337143292 33.529723694527014 0.334203576298484
1.1984033735365804 13.073409740113854 1297.927034624426 35.05724418673806 0.33929780095937084
1.2253347193900936 13.077269138052534 1151.335217171982 36.65425754412966 0.3445073446065216
1.2523203907271152 13.080445411501668 1022.214853161211 38.325440780250425 0.3498443958924425
1.2793517045859206 13.082901720369243 908.5248590957199 40.073392718588366 0.3553077058048598
1.3063863776514972 13.084505067442512 808.4263815962779 41.903410860604154 0.36091082387486695
1.3334141764546799 13.085231045396919 720.0417621060468 43.81872246573405 0.36665431022598177
1.3604133154160158 13.08505111389342 642.020355087387 45.82446826757235 0.3725484633016983
1.38733712357233 13.083809866684055 573.0146808264965 47.92574208348207 0.37860194669712616
1.4141847825214577 13.081539879818685 511.914576200594 50.12701512474692 0.38481899698587
1.4409092112446176 13.078127975742534 457.8571684224467 52.434027081635996 0.39120932265741
1.4674907695087616 13.07353900398747 409.89883951507176 54.85291642432616 0.3977832182491715
1.493893786987771 13.067699507153357 367.3346650147419 57.38985597562335 0.40454971620039665
1.520101947205274 13.060585602080671 329.5624676160633 60.05145514173988 0.4115185566910661
1.5460820040032675 13.05212865830522 295.9464442008219 62.84479919932604 0.41870024587614
1.5717947666651282 13.04228139454345 266.0652822997441 65.77749234161908 0.42610611886828975
1.5972115328170813 13.03098148624338 239.45759747571742 68.85770486498217 0.43374840802490117
1.622302132560081 13.018209689413682 215.72492417126097 72.09422492449382 0.44164031716318863
1.6470531917417468 13.003909155654792 194.53637878521516 75.49651534096606 0.4497961024026089
1.671408136889323 12.988018012025181 175.63784701595333 79.07477600265273 0.45823116041758777
1.6953427127193192 12.970516450429606 158.73886631299402 82.83870456492521 0.46695675602264314
1.7188084174496512 12.951310861115198 143.61238436774283 86.80106010920088 0.47599465648729095
1.7418231830861208 12.930480441728456 130.08887764914422 90.9739471437183 0.4853614116245852
1.7643035142657826 12.90787248539314 117.9560979725444 95.37051378411083 0.495075287272765
1.7862318886174933 12.883479908904993 107.07643112403044 100.0053144500712 0.5051574026047155
1.8075741995566668 12.85727529618159 97.29984640721631 104.89436404703571 0.515631562799136
1.82830719279629 12.829221715648028 88.53988119738709 110.05372780607026 0.5265186605641401
1.8483862975712562 12.799289954971032 80.65456756071674 115.50169719176678 0.5378446961234152
1.8677841947750236 12.767447730920185 73.55417988940461 121.25821419735384 0.5496381350618557
1.8864665122273867 12.733663292595153 67.16438999422246 127.34452428337411 0.5619282869695011
1.9044032171198602 12.697907932122078 61.40240741387591 133.78358302890763 0.574746439804647
1.9215432046128393 12.660102355846254 56.20749376930559 140.5998015722272 0.5881245678675777
1.9378977506286283 12.620373290355037 51.51321053040742 147.82134255526313 0.602102888734518
1.95340312022394 12.578565487174712 47.273662297463964 155.47727053867365 0.6167193226741043
1.9680428988738694 12.53471857949581 43.44022974414302 163.59995480197404 0.632017327344822
1.9817820754641418 12.488797268134874 39.971777569890385 172.22389047080995 0.6480412010813648
1.9945907391411655 12.440794240479349 36.83015155565952 181.3880519462995 0.6648433306746597
2.0064479380068696 12.390701586239965 33.983097396700416 191.134110068998 0.6824773519915468
2.0173326570480303 12.338543037749279 31.401976956415094 201.50791480756956 0.7010022575445738
2.027189068106203 12.284223551206015 29.058705427540364 212.5599591485685 0.7204829092454178
2.0360158929969265 12.227806591050628 26.930622768899724 224.34407126503555 0.7409846464807852
2.0438039202176466 12.16933677563609 24.997185348353238 236.92263176336664 0.7625890976942833
2.0504951598526646 12.10872039407357 23.239306360909932 250.36070649933254 0.7853735537518481
2.056094829113085 12.046035926962197 21.64017104650765 264.7325289685959 0.8094305100106507
2.0605825242029137 11.981297699001075 20.1859190056935 280.1191859219225 0.834858258229331
2.0639299991128817 11.91451120251305 18.861133324340358 296.609912578471 0.861762984231596
2.06612258105819 11.845682290828394 17.655091953771056 314.3037829721687 0.8902618445192838
2.0671538233838542 11.774886173181814 16.557370763613065 333.31122644514534 0.9204851405954312
