M[M_sun], R[km], Lambda[1], P_c[MeV/fm^3], rho_c[fm^-3]
0.24162668629717493 15.618656898711224 2160425.4255784233 3.5677272577965504 0.1711233750220791
0.25364470097653985 15.277275807816213 1723177.8057881624 3.784850227709873 0.1738885547379287
0.2660429604594237 14.981217273231705 1353336.41617234 4.0114658596660595 0.1766674390582225
0.2788198716710845 14.723434358573297 1116356.5709649622 4.24782929423215 0.17945868658986852
0.2919774624888719 14.498291220051438 905809.1914624502 4.494566135741387 0.18226887121040752
0.3055140579287272 14.301092332081133 738570.9898608567 4.751833538945839 0.18509372951975095
0.31943247181528023 14.12801685009159 605039.0799656553 5.0203113154451255 0.18793982586625388
0.3337342546568392 13.975771305796421 497588.05664522573 5.3002268788279 0.19080384884226856
0.3484163899607676 13.84189768294878 410926.1724260672 5.592305065059902 0.19369201834498406
0.3634822482953325 13.723835202639867 340599.82073934283 5.896717958707412 0.19659948593829363
0.3789356091577932 13.61990703946144 283231.6293294961 6.214327728006345 0.19953389185568232
0.39477254948877066 13.528320502919959 236358.69021058572 6.545387637321785 0.20249134028728447
0.4109999643904765 13.447750983394798 197810.47026025172 6.890608479244608 0.20547568385874007
0.42761018204655177 13.376953385699572 166029.13346369658 7.250691827656704 0.20848993001342375
0.44460955149175224 13.314827679535204 139761.3389206003 7.625890837383761 0.21152953172453687
0.4619910595094752 13.260462878152929 117940.45054173225 8.017166238750672 0.21460083123387771
0.47976103063879255 13.213087120668485 99777.62200454155 8.425217972788944 0.21770539035553205
0.49792086335479024 13.171904399405014 84612.60591407306 8.850479173062027 0.22084056409351463
0.5164637193026894 13.136315416249099 71912.01084169117 9.293838726932105 0.2240099791529695
0.5353842735800025 13.105780818886826 61253.77062687465 9.756174618322833 0.22721645049375547
0.5546949442117185 13.079741459638072 51797.32497293184 10.238291044168372 0.2304612548423574
0.5743808349224924 13.05778762816643 44710.808852984264 10.740665377406373 0.2337411682381808
0.5944422409083097 13.039464730226738 37979.12218580095 11.264547603539947 0.23706243805207172
0.6148821004621018 13.024489489283518 32887.56473148823 11.810871002390162 0.24042661806150603
0.6356896444945488 13.012417892200205 28279.08964455276 12.380615145451879 0.24383534223319647
0.6568639146415054 13.003001839847794 24359.751465198642 12.97445384478873 0.24728638739269843
0.6783997002322804 12.99597334685291 21018.012801441062 13.593744632220293 0.25078488032829427
0.7002916577736897 12.991053224136786 18162.98240889937 14.239671379806023 0.25433329367110974
0.7225308541458071 12.988000089954575 15721.265627618684 14.913424514450494 0.25793361345439475
0.7451220463211894 12.98665118156691 13626.902904747723 15.6160125754537 0.26158552108112587
0.7680465938390386 12.986764293888271 11829.902112915544 16.348744615413672 0.26529133639340235
0.7912952539508712 12.988148381080421 10284.486856170824 17.113217272197705 0.2690555450698824
0.8148731007594718 12.990684465998049 8951.28455228634 17.91088656503976 0.27288058160667034
0.8387612766560847 12.994152281284803 7803.2438041640235 18.74308762156051 0.2767672526230983
0.8629456860994679 12.998424471512967 6810.003881964094 19.611226238838583 0.2807165829725007
0.88743138265501 13.003378973119895 5951.777711244329 20.517360284636307 0.284734670047687
0.9121911252240572 13.008876816571819 5208.0675283114 21.46328517423707 0.2888245297541528
0.9372163420353737 13.014763657529707 4562.806757862051 22.450446488645124 0.29298576913465796
0.9625036932978865 13.020977807635543 4002.027920999715 23.48094824456913 0.29722281300638753
0.9880272481578583 13.027365842200968 3514.273096642664 24.557176984882513 0.30154145950145933
1.01377512271927 13.03382137163886 3090.15598431123 25.68102919706753 0.3059429945214152
1.0397436195376581 13.040276731730412 2719.668049951412 26.854559884828472 0.31042936641586805
1.0658986698508688 13.046606356938836 2396.7442141573206 28.080823226413166 0.3150089780674479
1.0922344306463851 13.05273659460255 2114.3487235461857 29.361819331657927 0.31968189140856546
1.118736967069258 13.058569375820117 1867.0976671169374 30.700416609429457 0.3244535569050566
1.1453714218679514 13.064021726555694 1650.8385445266235 32.09990120192795 0.3293312585311286
1.1721393893312955 13.06903166920178 1461.1077195955563 33.56233708268536 0.3343134867791587
1.1989993800244743 13.073492852416019 1294.4356608096384 35.09221114366408 0.33941342720636175
1.2259491639862854 13.077349056714967 1148.2132303190842 36.691476615163936 0.3446274075682898
1.2529473648990352 13.08051051911149 1019.4209596002584 38.36525559271534 0.34997029249849726
1.279994049689414 13.082944318247714 906.0428331497508 40.115868290074886 0.3554391110328675
1.307048423375683 13.084551797627247 806.1750290704741 41.94863822468898 0.361047553048411
1.3340816974408367 13.085237394698485 718.0237430875633 43.86720857904626 0.36679843602991696
1.3610925821938864 13.08502822706424 640.1213790161244 45.87611155517681 0.3726986349668417
1.3880340215278715 13.083780480445236 571.3358532203598 47.98076307817416 0.37875855420918336
1.4148785127617178 13.08145249948396 510.4096997563965 50.18601700195094 0.384984326747937
1.4416115000882888 13.078004488136216 456.51493837141044 52.496916197141836 0.3913819926060737
1.468207264406125 13.07339769527926 408.6956998665954 54.919971176914984 0.3979637175836064
1.4946190614363557 13.067520243755382 366.2276042261104 57.46137731143693 0.4047385719317358
1.517333193914613 13.059625062873828 332.928214932784 60.35407498871464 0.9082972164388088
