M[M_sun], R[km], Lambda[1], P_c[MeV/fm^3], rho_c[fm^-3]
0.24162668629717493 15.618656898711224 2160425.4255784233 3.5677272577965504 0.1711233750220791
0.25363913968015145 15.277428483221655 1723227.5083697743 3.7847511153232123 0.1738873193498424
0.2660317988376153 14.981439406643041 1383182.433892323 4.011257506896588 0.17666492123796482
0.2788026499778211 14.72375447818745 1116636.4933830723 4.247504653466118 0.17945492124620574
0.29195327968233414 14.498648913696684 906150.0304434294 4.494116689487637 0.182263866522061
0.30548325429097023 14.301528509123596 738874.9191560335 4.7512440279715396 0.1850873616761299
0.3193947295073891 14.128435500374923 605256.7511850892 5.019577398675702 0.18793221119650527
0.3336858943535955 13.976307005193453 497889.0650195613 5.29932923610129 0.19079481106947022
0.3483637572728152 13.842330298613307 411196.20748391555 5.591241456639141 0.1936817276409246
0.36341990701155846 13.724301328022735 340833.6245233007 5.895464491389931 0.1965877131079859
0.37886681287475893 13.620324596617461 283468.27401286265 6.212869235243358 0.19952059215782347
0.3946936965137702 13.52875252349282 236558.69368753373 6.5437256348493875 0.2024767667708569
0.410911654213422 13.44818169088618 198002.46147519222 6.888710885221961 0.20545952315174879
0.42751297867239363 13.377328219243259 166217.89387901785 7.248540837974547 0.2084721354270347
0.44450015269335197 13.315195885910496 139913.3379130235 7.623492398485213 0.21151043860871327
0.46187547139182605 13.260828375773503 118073.8960910958 8.014478520176104 0.21458003955777627
0.47963211199225353 13.213379399327152 99896.50035812065 8.422220019370444 0.21768284993688694
0.4977819059497555 13.172185336502274 84720.46229796325 8.847182039808128 0.22081669143999977
0.5163116643385877 13.136593399140569 72008.83703399266 9.290189061321334 0.22398428527953954
0.5352218407287479 13.10600882283374 61334.540630050054 9.752147678608555 0.2271888799328881
0.5545204505634816 13.079987636448433 52356.362836770444 10.233866411102438 0.23043182462201808
0.5741915964636057 13.05796779982143 44775.222202255645 10.735850650391496 0.23371025619932953
0.5942441140495822 13.039679495118678 38368.751432898636 11.259276209570562 0.23702950228715827
0.6146691331295155 13.024603844474377 32660.058922577853 11.805111805677436 0.2403915925364851
0.63546142613213 13.012512039227918 28327.446380495865 12.374335067940928 0.24379815742825375
0.6566238441491248 13.00310334422625 24401.837500482055 12.967681725252989 0.24724768073447043
0.6781466964960876 12.9960367771628 21053.778309780304 13.586384316189564 0.25074390006058184
0.7000252359525677 12.991096784982714 18195.1828844027 14.231683409063022 0.25428995853997594
0.7222487074131042 12.988014325749534 15749.410311596415 14.904766895788176 0.257887837361013
0.7448260755905678 12.986662531691008 13652.318514092598 15.606725080621393 0.2615380495681819
0.7677359470579187 12.986750984988584 11851.49527704692 16.338701488134337 0.26524127392281815
0.7909706751210618 12.988124497658717 10303.570242652819 17.10236811672193 0.269002789300636
0.8145330065854376 12.990643059174424 8969.456337777152 17.899177644801103 0.2728250236173658
0.838405150449569 12.994098393816696 7818.201334607296 18.730570866812926 0.276709744611376
0.8625762666089389 12.998353090471282 6824.529742858551 19.597738923621847 0.28065607389512776
0.8870403217315617 13.003287926554576 5964.540820503204 20.5028375063033 0.2846710289812394
0.911788747191987 13.008780322402014 5218.964898236516 21.447657586244677 0.2887576169479155
0.9367982559593104 13.014672351051132 4572.432711138451 22.43377918405349 0.2929165426403085
0.9620654175494526 13.020864399431002 4010.950648061586 23.463032091723445 0.29715005018627355
0.9875803884496366 13.027256384816898 3522.283342638116 24.53792766966572 0.30146499111018205
1.0133166515736598 13.033717662672446 3097.1642566853793 25.660521223249013 0.30586385030083674
1.0392625816226762 13.040162116347547 2725.9012433634816 26.83254257809381 0.3103461889956709
1.065407409159736 13.046502032608808 2402.248228725672 28.057193544212467 0.31492156159801415
1.09172505543281 13.052620061185943 2119.3369129781568 29.33666101184282 0.31959133690451813
1.1182129197672466 13.058458452790703 1871.8416475498173 30.673429338065016 0.324358357556587
1.1448343696597956 13.063926862596983 1654.9820889250122 32.07112689363931 0.3292322528521964
1.1715871867509042 13.068933672581622 1464.6802569957138 33.53153112914702 0.33420966753950776
1.1984371939686205 13.073410309407294 1297.7526050600402 35.05918202250097 0.3393042088568903
1.2253692297312282 13.077279789284479 1151.167688427405 36.65632016066651 0.3445139982881833
1.2523548830767122 13.080453204494392 1022.0694024569154 38.327651892002386 0.3498514002097488
1.2793874416718065 13.08290361130409 908.4378331001815 40.075746564979376 0.3553149878192243
1.3064230488111046 13.084507985690335 808.309686421782 41.90591716442809 0.3609184008110301
1.3334503516032425 13.08522633440813 719.941093709812 43.82140930547477 0.3666622969032224
1.3604527569916463 13.085045845025357 641.9224489420762 45.82733001698895 0.3725567848802625
1.3873748879125336 13.08380337215057 572.9140722534454 47.928790956703544 0.3786106247745122
1.4142236942860242 13.081532450093478 511.8276008595775 50.13028452686012 0.3848281582108868
1.4409489258620853 13.07811991563969 457.7710468575368 52.4375118261329 0.39121889046017755
1.4675293425699298 13.073530943042273 409.8245825383408 54.85663192906176 0.39779321971970083
1.4939346990267373 13.067688509201409 367.2767678389807 57.39381890671837 0.4045601805218706
1.5201422872523924 13.060572230103135 329.5065798855828 60.05568352528256 0.4115295153116293
1.5461219740513383 13.052115466661569 295.89528764321705 62.8493125442121 0.41871173269770184
1.571835565992965 13.04226664025697 266.01512557173857 65.78231177477147 0.4261181704541701
1.597251850460997 13.030962529462592 239.40905390045594 68.86285328034187 0.43376106382835944
1.6223435997022826 13.018189598057345 215.6895568827562 72.09972714734138 0.44165361977911377
1.6470944730163495 13.003882559530439 194.5053915615892 75.5023983093304 0.4498100978449313
1.6714484935964005 12.98799106520677 175.60620030294106 79.0810689677814 0.45824589842527924
1.695383473457383 12.970483275642245 158.70726261700096 82.8454071927153 0.46697215864178354
1.7188476530007744 12.951274310529282 143.5935620211505 86.80823755878261 0.47601090987922123
1.7418641031936875 12.930439614267947 130.0643387010285 90.98160240386719 0.48537844176061645
1.7643436303521582 12.907828675626007 117.93605722961095 95.3787205287438 0.49509329470296676
1.786271995026521 12.88343112887137 107.05219667390632 100.01407982281928 0.505176317898831
1.8076161712282202 12.857218004302009 97.29535368138063 104.90373345954637 0.5156514587662414
1.8283450129869943 12.829169655756125 88.52355396060294 110.06379038763781 0.5265397633919177
1.8484241284087481 12.7992302423878 80.6400904236138 115.51246871470143 0.5378669463728314
1.8678220337175808 12.767382338161458 73.54157950810351 121.26975384444826 0.549661625554531
1.8865027014904074 12.733594712545665 67.15094893641165 127.35689677884734 0.561953118469194
1.904437867815129 12.697834587633508 61.386426905746475 133.79681376989322 0.5747725613954612
1.921577599592781 12.660021854901691 56.19406060122797 140.61401187927677 0.588152254949617
1.9379317041475335 12.62028895249632 51.502915257793745 147.8366174372756 0.6021322707300417
1.9534346419774011 12.578477192179259 47.26800541833609 155.49365311451885 0.61675036929525
1.9680728035978647 12.534625099011441 43.4357349608242 163.6175956733731 0.6320503587127441
1.9818116147358922 12.488696467860924 39.96392882719469 172.24284855475645 0.648076205110538
1.9946173552875806 12.440688702602147 36.82429687391382 181.40844733097214 0.6648804811506389
2.0064726873963075 12.390590765239693 33.97600105158826 191.15607505460312 0.6825168387095994
2.0173558995239382 12.338425676260336 31.3966008276453 201.53159532745647 0.7010442881314825
2.027210400639005 12.284098674793468 29.052781264979693 212.5855004182295 0.7205276589154495
2.036034718480292 12.22767650098202 26.925564655168632 224.37162160831764 0.741032267905029
2.043820860830675 12.169200715822878 24.99317627459873 236.9523689595521 0.7626398023454849
2.050510168870511 12.10857853824072 23.23644521385617 250.39290960330916 0.7854278409059985
2.056107571774638 12.045886125072213 21.636895386668645 264.7673731640709 0.8094884927763262
2.0605918521413975 11.981141060656991 20.18270580624784 280.15693586343764 0.8349202872828755
2.0639371344746507 11.914344842893996 18.85837605441692 296.6507928437083 0.861829217586252
2.0661265930443644 11.845513450969515 17.652170803158 314.34818926910157 0.890332930266627
2.067154994870781 11.774710855544017 16.55482070659511 333.3594513156279 0.920561307926183
