M[M_sun], R[km], Lambda[1], P_c[MeV/fm^3], rho_c[fm^-3]
0.24162668629717493 15.618656898711224 2160425.4255784233 3.5677272577965504 0.1711233750220791
0.2536464050105318 15.27721836042103 1723143.143453909 3.7848572457101612 0.1738886422139167
0.26604360345432493 14.981199229924043 1382904.9280252438 4.011480613108442 0.1766676173448668
0.278821444737279 14.723376199795691 1116310.378650579 4.247852282459678 0.1794589532186653
0.2919785663003551 14.49826538387556 905723.2691799613 4.4945979622009755 0.18226922560542158
0.3055159415225992 14.301085200290471 738519.4842846128 4.7518752845457 0.18509418045190212
0.31943534807056967 14.127969437218358 604944.1250561443 5.020363287922673 0.18794036510076798
0.33373577708692315 13.975783900715458 497563.5456153631 5.300290446771838 0.19080448886598572
0.3484201586398224 13.841865920101734 410906.4821137082 5.592380387418591 0.19369274710952483
0.3634857661665734 13.723824657887164 340568.1538086466 5.896806728052256 0.196600319678766
0.3789414565410298 13.619864060530677 283205.76963121234 6.214431018909718 0.19953483374435074
0.3947779103314203 13.528293862752092 236332.338767859 6.545505342775093 0.2024923724050977
0.41100627907755094 13.447722990184422 197801.7241612082 6.890742872002622 0.20547682840386305
0.4276174845013452 13.376920682740856 166024.29074756528 7.250844169248276 0.20849119029636903
0.444616410410076 13.31479474127768 139745.43601480854 7.626060706967982 0.21153088399565304
0.46200020745837805 13.260434082897183 117933.7299164484 8.017356599861612 0.21460230383097118
0.47977002623372544 13.213046350017992 99764.72022565287 8.425430310317255 0.2177069868369025
0.49793077937491453 13.171885601709853 84606.41920913733 8.850712704263428 0.220842254959193
0.5164739798408224 13.13630561230215 71908.22351962687 9.294097231861919 0.2240117990437913
0.535394890066337 13.1057646999038 61243.94942731498 9.756459850291634 0.22721840334279594
0.5547050763656776 13.079743866531802 52275.094021240075 10.238601810897643 0.23046330551013774
0.5743932039000572 13.057780767152702 44304.91073821471 10.741006419749098 0.2337433578356628
0.5944555006523894 13.039457328601651 38309.057796433146 11.264920999265101 0.23706477103531956
0.6148969474569198 13.02447068930779 32883.47157585278 11.811278958086902 0.24042909911280125
0.6357051800522662 13.012396877652543 28274.877562119647 12.381060005404693 0.24383797628198703
0.6568809958205284 13.003005332117839 24355.88777139296 12.97493356608119 0.24728912928288715
0.6784182006498327 12.995954230649863 21015.24019775347 13.594266028618906 0.2507877833237513
0.7003114528107812 12.991042824990059 18161.01261107552 14.24023724791911 0.25433636353324046
0.7225504473782544 12.988009236993031 15718.875572964575 14.914037830614108 0.25793685628814306
0.7451429605910612 12.986643198734829 13625.152765076335 15.616670521832786 0.26158888406658265
0.7680689996054709 12.98675321600078 11746.490949621966 16.34945610424194 0.26529488298676374
0.7913191000777926 12.988154342490562 10282.758499784817 17.113985875552864 0.2690592825277276
0.81489786243408 12.990679896230137 8950.004958568374 17.91171609187645 0.2728845176521964
0.8387873059950666 12.994142850042751 7801.994349089155 18.743974392110385 0.27677132687494754
0.8629720834052982 12.998420985795061 6809.308086971295 19.612181786411824 0.2807208699118295
0.887457151200118 13.003396794837917 5950.915559060176 20.518389209924344 0.28473917895783657
0.9122200639513885 13.008874215053465 5207.194851430801 21.46439239304585 0.28882927054445584
0.937245885070374 13.014774498045064 4562.193262038052 22.451627387907287 0.2929906739178909
0.9625338526055521 13.020987885590834 4001.3983313344697 23.48221764804447 0.29722796843107746
0.9880593798810903 13.027369531127325 3513.7451007463274 24.55854086974932 0.3015468775685686
1.013807797693012 13.033831895153224 3089.712378638448 25.68248228285142 0.30594860225930376
1.0397770165019775 13.040288201384909 2719.1908922029443 26.856119941235036 0.3104352600280534
1.0659332516519626 13.046619580687961 2396.354552221583 28.0824975587698 0.3150151721508906
1.0922703585370188 13.052743489582326 2113.7964544676365 29.36360200448934 0.31968830793619185
1.1187740513221538 13.058577423917683 1866.7864234758933 30.70232891287874 0.32446030267938814
1.1454113188324389 13.064042676321419 1650.5057044167536 32.10193689311427 0.3293382529655373
1.1721785524647979 13.069034228828352 1460.8410433917988 33.56452004794406 0.33432084359715364
1.1865510101173067 13.064780500849842 1362.5310217193546 35.54920431503991 1.1804456205125768
