M[M_sun], R[km], Lambda[1], P_c[MeV/fm^3], rho_c[fm^-3]
0.24162668629717493 15.618656898711224 2160425.4255784233 3.5677272577965504 0.1711233750220791
0.25364200150460203 15.27738066234366 1723176.9749250533 3.784803115960433 0.1738879675126994
0.2660378738732264 14.98127168483899 1383043.8840605875 4.011366820994119 0.1766662422343207
0.27881140115571945 14.723600761851209 1116448.7336472396 4.247674977622364 0.17945689674974516
0.2919655829593682 14.498465352347145 905956.9381913177 4.494352491412677 0.18226649223122307
0.30550083349008605 14.301253650653766 738702.3476863612 4.75155331222891 0.1850907025363874
0.3194145705665154 14.128220606245218 594918.5686352547 5.019962441709188 0.18793620616659065
0.33371131963450934 13.976091128926644 497730.1709583614 5.299800172660478 0.19079955261919618
0.3483912031728672 13.842101813112755 411051.4689911715 5.591799460661435 0.1936871264833419
0.36345181048273306 13.72406682540098 335750.80365383805 5.896122096364395 0.1965938894730701
0.37890428961450273 13.620080936581589 283346.03091658733 6.21363439635926 0.19952756950588654
0.394734590161097 13.528525600633964 236444.87340583315 6.544597555808485 0.20248441233976067
0.41095827287178777 13.44796750484658 197908.17900717192 6.889706394614109 0.20546800132748164
0.42756404286941796 13.377126767983539 166114.44653261642 7.249669274179813 0.20848147069056744
0.444556020896797 13.315008635774532 139830.4630363931 7.6247506409066155 0.21152045502743486
0.46193634309820647 13.260666835784091 118002.67973415539 8.015888510521515 0.21459094697302628
0.4796998570404585 13.21322578003249 99830.06000172163 8.423792748475856 0.21769467466112466
0.4978546244003942 13.172069975547869 84663.54320625267 8.848911707369965 0.22082921497217753
0.5163907910945857 13.136460263253845 71955.91217792964 9.292103652076817 0.22399776411781896
0.5353074262811471 13.105884675269921 61291.5496078625 9.754260169093204 0.2272033431609524
0.5546116572858664 13.079865848886794 52313.597595901 10.236190566143117 0.2304473025879332
0.5742921667586282 13.057886644007645 44742.70169488728 10.738376370838962 0.23372647210697253
0.5943468723426591 13.039570629972383 38336.38902669457 11.262041468962675 0.23704677967788115
0.6147809081530944 13.024525756842367 32911.53411143969 11.80813293353976 0.24040996603452858
0.6355795629586671 13.012452686158635 28302.891723359055 12.377629412288163 0.24381766348558387
0.6567503070164161 13.00303967537048 24378.261797680676 12.971234158351018 0.24726798498531502
0.6782797841667054 12.996000643252636 21034.630309094602 13.590245269627248 0.2507653968149115
0.7001653948536462 12.991063343113886 18042.328264026517 14.235873576470519 0.2543126904026628
0.7223971240517019 12.988003857925465 15734.886814799947 14.909308300059509 0.25791184947729084
0.7449815711826434 12.986650538326057 13639.19727933703 15.61159686042572 0.26156295087496234
0.7678986625011296 12.986756117865726 11840.063243629373 16.343969598128297 0.26526753412985044
0.7911409423249022 12.988122458200626 10223.660447900265 17.108058985773596 0.2690304620697443
0.8147131219616727 12.99065987293949 8959.495437153997 17.905319453535107 0.27285416606064833
0.8385923608614584 12.994125943424715 7810.152612274555 18.737136378090366 0.27673990973860907
0.8627707456381599 12.998379860570045 6817.412729355853 19.604813477859917 0.28068781295830614
0.8872424685561019 13.003341378763583 5958.179828584278 20.510455138998758 0.2847044106288435
0.9120006322999803 13.008823104380612 5213.384790866127 21.455854662967962 0.28879271445667787
0.9370170989178233 13.014720391329895 4567.21491341372 22.442521565767322 0.29295285351679046
0.9622931215133702 13.020919913017424 4006.4367405150583 23.472429451314408 0.2971882156558
0.9878139283590444 13.027313038446318 3518.054873151738 24.548024220576615 0.30150509991389324
1.013554491848553 13.033774784557062 3093.520710242602 25.67127789243637 0.3059053623588483
1.0395153158072532 13.040220940420545 2722.6699699538776 26.844090819982114 0.3103898161740382
1.0656631312964087 13.046549453941848 2399.369193545828 28.069587391737215 0.3149674118292662
1.0919921936267347 13.05267902593178 2116.6719796147404 29.349856550954982 0.31963883274321964
1.118488060307759 13.058513969461405 1869.4402335830362 30.687584049099264 0.3244082892169627
1.1451159039653578 13.063972746886785 1652.827075759116 32.08624074703029 0.32928432255360096
1.1718841475165713 13.068982085591774 1461.8836803134084 33.54768848616072 0.3342641194985371
1.198729217003785 13.073442675161012 1296.0275643943737 35.076505261381854 0.3393614921115287
1.2256729981466847 13.077318552060774 1149.5851530012355 36.67475902702817 0.3445734792167908
1.2526654060452211 13.080480813609146 1020.6772500572979 38.347418444258786 0.349914016314038
1.2797061492573214 13.082922336555045 907.1782005292072 40.09678929341412 0.3553800869910801
1.3067475724266804 13.084520280037626 807.151893890949 41.928323013676405 0.36098613708777905
1.333782140228718 13.085228783995095 718.9250292841517 43.84542936891402 0.3667336969540259
1.3607874684398589 13.085034896315255 640.9301373807832 45.85291398360342 0.3726311795798582
1.387717180895957 13.083780513559995 572.1110031056821 47.956048053990855 0.3786882072721743
1.4145710561545481 13.081498482188142 511.08186961645345 50.159513495228595 0.38491006100135416
1.4412929895811517 13.078052320633944 457.09418790083697 52.46866628440252 0.39130442893001915
1.4678861409659063 13.073460607696433 409.2355089689246 54.889849760797695 0.39788263614863717
1.4942933880911047 13.067600045246806 366.73079206867567 57.42924916104364 0.40465373591364306
1.5205042421653727 13.060463423589754 329.0127304276004 60.09348741624161 0.41162749093107126
1.546486551940099 13.051985821308719 295.446847604128 62.88966454982238 0.41881443176010674
1.5722018123648716 13.042115737526025 265.6015524255696 65.82540084685704 0.42622591998327947
1.5976252521443568 13.030796438713578 239.05105589795653 68.90888417759965 0.43387421670123405
1.6227059617621362 13.017957102847861 215.35596436609373 72.14892190561588 0.44177255697831264
1.647464333724712 13.00365721116403 194.20834512746598 75.55499786480706 0.44993523094088944
1.6718128802109813 12.98773423639082 175.33245428927833 79.13713807931357 0.45837685014187035
1.6957512770564849 12.970195566717647 158.45490070979056 82.90533660268193 0.4671098762513441
1.719215816779792 12.95096098385401 143.3716824204641 86.87241321653588 0.476156236169008
1.7422191656352044 12.9300728342809 129.8580748818249 91.05005102851904 0.4855307147554338
1.764702078357794 12.90743317691484 117.74426669179381 95.45210112638689 0.49525430811928695
1.786628028868876 12.883014047470315 106.88276333326178 100.09245627618408 0.505345450884926
1.8079689657003608 12.856769295569597 97.14018577782896 104.98751196993554 0.5158293626086595
1.8286821893150036 12.828650184064085 88.38179045684315 110.15376825354433 0.5267284612320565
1.848763375477434 12.798700005631927 80.51009497894913 115.60878700587165 0.538065906725502
1.8681515031909637 12.7668127897721 73.42414210100934 121.37294197561478 0.5498716787753546
1.8868258851595283 12.732977151620647 67.04682666775606 127.46753374713394 0.5621751659817574
1.9047516436933356 12.6971779300941 61.292532170983726 133.91512673218364 0.5750061479188712
1.921898076451779 12.659382053471008 56.105265698786205 140.741086188195 0.588399844027307
1.9382167242172557 12.61951127450223 51.42081071631412 147.97321359715272 0.6023950202396481
1.9537189599112792 12.577694218851411 47.19365559026469 155.64015683457137 0.6170280085099786
1.9683388641084507 12.533780224496967 43.36307848638293 163.7753543493526 0.6323457514261368
1.9820633866542405 12.487805089619417 39.900955809344154 172.4123892497098 0.6483892434665732
1.9948572605213675 12.439745248614855 36.76606416044992 181.59084444462198 0.6652127200222313
2.006692301445113 12.389592129801411 33.92324926765744 191.35251227399255 0.6828699762548059
2.017553213231436 12.337355663968857 31.34642282447164 201.74337834809089 0.7014201821024362
2.027396978937615 12.282991328141618 29.007469709088195 212.81353750893857 0.7209265961626192
2.036215692663047 12.226548175155115 26.884962265711216 224.61802190222835 0.7414581766790126
2.043968025336816 12.167978280548953 24.95604723760027 237.2183321411892 0.7630932940019701
2.0506366221151224 12.107297518494972 23.200725532641076 250.68093275497603 0.7859133828352719
2.0562122049752323 12.044552837174662 21.604894186327133 265.07902379564115 0.8100070975337792
2.060676000621956 11.979749162748941 20.153150629019066 280.49448419285665 0.8354747729608933
2.063996121040732 11.912891614466757 18.8313508830944 297.01644450937494 0.862421638802505
2.066161297554426 11.84400252776536 17.62770706968177 314.7453875148237 0.8909687665351458
2.0671655718936326 11.773137623686452 16.531756569866555 333.79081404191555 0.9212426108953429
