M[M_sun], R[km], Lambda[1], P_c[MeV/fm^3], rho_c[fm^-3]
0.24162668629717493 15.618656898711224 2160425.4255784233 3.5677272577965504 0.1711233750220791
0.2536411406853701 15.277367233492646 1723182.2171215685 3.784784312052287 0.17388773313105566
0.2660366005125042 14.981309994399142 1383078.4843311696 4.011327291766232 0.17666576454693025
0.27880822415869555 14.723652357442333 1116540.7943069981 4.247613386089299 0.17945618238077807
0.2919608272122295 14.49856915581083 906046.9093739743 4.494267221727779 0.1822655427334917
0.3054936533479245 14.30138601513484 738780.6737815178 4.751441469512587 0.18508949442159606
0.3194071948180541 14.12831141726658 605239.420120044 5.019823202483193 0.18793476150587954
0.33370098481524324 13.976145646484314 497808.2998152889 5.299629871639655 0.190797837970497
0.3483816292418063 13.842180067349734 411108.7248334235 5.591597673041018 0.1936851741326045
0.36344077463372265 13.724146257330752 340728.0258364462 5.895884289308498 0.1965916559388758
0.37889143279382326 13.62015589320431 283395.70583580044 6.213357692652367 0.19952504630125265
0.39471950056714233 13.528612734791588 236483.50531635096 6.544282243132623 0.20248164747355993
0.41094124368039114 13.448044632661048 197938.56166643093 6.889346386685488 0.20546493534889002
0.4275457799374392 13.37722163981652 166145.56639508883 7.249261193445327 0.20847809474323317
0.444537865672802 13.31505174842805 139858.1655193564 7.624295615620342 0.21151683273357583
0.4619142316738287 13.260699816294334 118030.90108786782 8.015378605035304 0.21458700244184956
0.47967579640496816 13.213268362270664 99855.77681496815 8.423223987492289 0.2176903983736415
0.4978279478033048 13.172099857803858 84682.75743398331 8.848286188295106 0.22082468594681182
0.516362895452656 13.136494719168535 71973.41886579929 9.29141125349368 0.22399288958862767
0.535276425463015 13.105929887946267 61306.827834615564 9.75349619740775 0.2271981126064
0.5545787371979923 13.079885857423326 52329.58625693155 10.235350042605475 0.23044170502906178
0.574256344587661 13.05790975347361 44754.02785714465 10.737462947669298 0.2337206076472802
0.5943089518934251 13.039605237403105 38350.28902865942 11.261041411669591 0.23704053130181665
0.6147404618627795 13.024573496837636 32922.15222570703 11.807040335616714 0.24040332121619706
0.6355372691215988 13.012469915464475 28309.05639578669 12.376437998794312 0.24381060903788035
0.6567027941520619 13.003077968182199 24386.457053295802 12.969949400356342 0.24726064183545726
0.6782315594097461 12.99600241715839 21042.097816535494 13.588848926240502 0.2507576223490369
0.7001143671156451 12.99106997974834 18184.645965024712 14.23435816248157 0.2543044692078129
0.7223432271448132 12.988011329610798 15739.531705828795 14.907665849392666 0.2579031652214888
0.7449251252262009 12.986659617504339 13643.376146247652 15.609834918117974 0.2615539449946277
0.7678409714139048 12.986752894392176 11844.093056928108 16.342064307988434 0.2652580367363665
0.7910779974916611 12.9881336650824 10296.222226835516 17.106000787840397 0.2690204537501594
0.8146465394277715 12.990657521579202 8962.69765704913 17.9030981541293 0.27284362615379826
0.838523544068492 12.994110708600479 7812.9408173582515 18.734761828643702 0.27672899991252653
0.8627003765253364 12.99836862717938 6777.525228600567 19.602254809341904 0.2806763338263336
0.8871700467475642 13.003327873117783 5960.395393873836 20.507700039647712 0.28469233735630234
0.9119239542199221 13.008812397405922 5215.308146415991 21.45288997807027 0.2887800205344801
0.9369380247231924 13.014698351918211 4568.916623569989 22.439359643599964 0.29293972069223273
0.9622094694977416 13.020899656912464 4007.908873043349 23.46903062020854 0.297174411992788
0.9877303356363468 13.027286891673828 3519.568970425308 24.544372486666067 0.3014905933086261
1.0134672774342337 13.033750461186623 3094.56925586673 25.66738738905829 0.30589034815704363
1.0394247972598134 13.040198039678348 2723.9078408779806 26.839913995403222 0.3103740368828981
1.0655731238478463 13.046532938229214 2400.276841377905 28.065104699584438 0.31495082840176913
1.091895685605427 13.052656041773195 2117.6348187699455 29.345083876080004 0.31962165404410703
1.1183884089868812 13.05849397194067 1870.3369086002722 30.682464423931222 0.324390229407439
1.1450134798753246 13.063952658401185 1653.5957740984456 32.080790877996755 0.32926559734039224
1.1717718296424091 13.068966847907742 1463.5064091977256 33.54184446254715 0.33424442453641534
1.1986212422673035 13.073431338357608 1296.6524343492695 35.07023950850213 0.3393407729654049
1.225562616181044 13.077300892267388 1150.1281334072555 36.66808972404238 0.3445519650777446
1.2525535552156435 13.080473768063118 1021.1942194784099 38.340268877178104 0.34989136805286736
1.2795900530254012 13.082920264463903 907.6176175974613 40.08917809585214 0.35535654048856014
1.306629426171132 13.08451647638588 807.5538459709603 41.92021873227189 0.36096163661729996
1.3336613680187985 13.085236314992226 719.3203329198061 43.83674116615836 0.36670787112222847
1.36066561489146 13.085038611112843 641.2861470973241 45.84366005999888 0.37260427042706673
1.387593459659738 13.083791375148733 572.3967486596771 47.94618889412968 0.37866014492060335
1.4144450733391551 13.081513883979671 511.3574065617026 50.14894102161767 0.38488043576518566
1.4411733854377722 13.078088989230098 457.3546995108544 52.45739727637411 0.3912734884561056
1.4677573263896966 13.073486520635234 409.45178583738607 54.87783433473586 0.397850292782606
1.49416456912813 13.06763188394965 366.9325325070526 57.4164333933971 0.404619895226189
1.5203740629458657 13.060500993420819 329.1969830098684 60.079812981888 0.41159205116171615
1.5463548579984043 13.052034283670215 295.61452760697847 62.875068324353535 0.4187772832058371
1.5720699682780133 13.042166281599103 265.7609678326612 65.80981446877145 0.42618694432615906
1.5974919836100447 13.030860861239574 239.18515942362922 68.8922335658935 0.43383328626837464
1.6225790305419854 13.018060135257855 215.47197102352644 72.13112672771551 0.44172953392681386
1.6473309425889626 13.003737116692582 194.31465617636323 75.53597094915548 0.44988996635946016
1.6716800620588557 12.9878284097993 175.43114886254148 79.11688408167834 0.45832959779710813
1.6956189893599358 12.970300998275244 158.54283592345112 82.88365798029002 0.4670600588402259
1.7190828825375792 12.951076322765648 143.44810400677335 86.84919841167621 0.47610366605790216
1.7420884922987552 12.93019990661556 129.93302067003808 91.02529037677107 0.48547563141936284
1.7645733290923207 12.907582077591616 117.80866818875087 95.42555618460915 0.4951960625898291
1.7864993267443843 12.88316352703124 106.94217110263561 100.06410393356849 0.5052842677595931
1.8078410041130415 12.85693387904611 97.19609507397631 104.95720525407738 0.5157650062340093
1.8285657630146064 12.828851637746881 88.43222021302704 110.12121867456474 0.526660199608056
1.8486407350064018 12.79889212756551 80.55618490576822 115.57394352407783 0.5379939321156773
1.8680326541186858 12.767017143981217 73.46680874553725 121.33561303061255 0.5497956907228623
1.886708916200625 12.73320091130587 67.08424091135394 127.42750983542423 0.5620948383103125
1.9046387381557457 12.697415220036726 61.32898939276059 133.87232566706214 0.5749216453267085
1.9217728028874026 12.659585078601303 56.13751910357518 140.69511523325664 0.5883102751252165
1.9381169148005692 12.619810919383342 51.45071064034046 147.92379756251253 0.6022999660384166
1.953612844037632 12.577970543192473 47.21798600583383 155.58715615886953 0.6169275669240812
1.9682434439199048 12.534084284167262 43.38803095044217 163.71828145698163 0.632238886200285
1.9819723944945749 12.488130427629015 39.92509636839221 172.3510534257905 0.6482759935740264
1.9947714579080478 12.440088942106025 36.78742844868232 181.52485690109654 0.6650925227967306
2.0066141879182955 12.389954115359286 33.943960656830406 191.28144466942743 0.6827422171697515
2.017479952090945 12.33773584399743 31.363163392787584 201.66675818293047 0.7012841888672325
2.027329377458666 12.283395911079943 29.02332571776318 212.7310361150291 0.7207822649098762
2.0361549493385773 12.226969027187979 26.898991927971313 224.52887600212017 0.7413040858684128
2.043914703076654 12.168421966160842 24.970237580482454 237.1221075978241 0.7629292223161955
2.050591324125964 12.107759148934084 23.213137538373473 250.57672586812313 0.7857377135788483
2.056173710645813 12.045034957737661 21.616290936439793 264.9662672995673 0.8098194641732979
2.0606448771774226 11.980254001836398 20.163288898142497 280.37241904129155 0.8352743598202242
2.0639757042961913 11.913416827433682 18.84140699037179 296.8841473681844 0.8622072937286271
2.0661486642544777 11.844548633830023 17.636607257524005 314.60167475178145 0.8907387106676402
2.0671617243879927 11.773707668506638 16.54039067098486 333.6347382049376 0.9209961015780861
