M[M_sun], R[km], Lambda[1], P_c[MeV/fm^3], rho_c[fm^-3]
0.24162668629717493 15.618656898711224 2160425.4255784233 3.5677272577965504 0.1711233750220791
0.2536377016255014 15.277428857068328 1723464.2913373243 3.784697123533029 0.17388664636822423
0.2660257172497099 14.981585250292841 1383381.8034525062 4.011144009315067 0.17666354968667383
0.27879284478579036 14.723956236546789 1116812.5137804125 4.247327814345869 0.1794528701789017
0.29193935696463985 14.49889657456537 906306.5998484152 4.493871872627493 0.18226114042950425
0.3054667002576952 14.301737364989306 725840.0777499793 4.750922925568007 0.1850838931573386
0.3193738290944242 14.128693875062819 605432.2414549006 5.019177649824358 0.1879280636478837
0.33366421704388544 13.976494988909936 498076.7922552739 5.2988403222605855 0.1907898885183491
0.3483341690785217 13.84253465482764 411328.3606377358 5.590662161653672 0.19367612280258162
0.3633861368546375 13.724543927047428 340972.56966209336 5.894781807453188 0.1965813011959807
0.37882981114416675 13.62053385392799 283587.7477137697 6.2120749075586215 0.1995133488457715
0.39465017229273514 13.528986621671606 236679.64604018984 6.542820492650261 0.2024688298965578
0.4108642617518366 13.448373610938487 198103.95394668393 6.887677463886936 0.20545072210200127
0.42745848032867007 13.377551105864404 164260.21338280206 7.247369448047257 0.20846244481836776
0.44444176239861194 13.315410861844608 139996.26198594883 7.62218628172448 0.21150004107946752
0.4618098805034158 13.261025013030654 118149.37530174293 8.013014906849827 0.214568717325417
0.479561938436767 13.213552340891132 99955.25048003969 8.420587506133858 0.21767057571955944
0.4977050790816432 13.172354176706898 84777.37387132582 8.845386649402428 0.2208036920463512
0.516228166775056 13.136741484012529 72056.55421782158 9.288201754667083 0.2239702945167995
0.5351323556956933 13.106150779789031 61380.90490419378 9.749954992913253 0.2271738676459619
0.5544252892441377 13.080079330172904 52395.45131394249 10.231454066036067 0.2304157593449349
0.5740896557171001 13.058082112475693 44811.826397984674 10.73322912928759 0.23369342522179684
0.5941364950202361 13.039733580908324 38401.20213266894 11.256406111528312 0.23701156986265215
0.6145539716537036 13.024670410615439 32966.61234452722 11.801976190560842 0.2403725227649179
0.6353391621486896 13.012578734525226 28351.698309212647 12.370915939401735 0.2437779125144637
0.6564903804779305 13.003124044223311 24422.740912361598 12.96399478347551 0.247226607687172
0.6780090178670986 12.996073013535428 21074.08527959139 13.582377238516187 0.25072158972565683
0.6998802083956845 12.99112557831352 18076.63866298868 14.227334729674043 0.25426636674205333
0.722095574081074 12.988043335001395 15764.728472215278 14.900053770456573 0.25786291729075883
0.7446653623795129 12.98666614203216 13665.761081685112 15.601669156755307 0.26151220703910527
0.7675673888315766 12.986750508944871 11863.538138759921 16.33323434408627 0.26521402158094565
0.7907931153461965 12.98811168634196 10313.994174033038 17.096462339489367 0.268974071505818
0.8143483539211882 12.99061548883149 8978.999353989906 17.892804004992385 0.27279478115221056
0.838212182193266 12.994055556673416 7826.843728217139 18.72375762404569 0.276678441286127
0.862374380835827 12.998315112705878 6832.200244133978 19.59039755356901 0.2806231377976605
0.8868291747307648 13.003244408409616 5971.281699426273 20.494932708820016 0.2846363889330094
0.9115720323792993 13.00873389995904 5225.346719721906 21.439151645334473 0.2887211969721478
0.9365709385196568 13.014615130144666 4578.0646438757385 22.424707515842304 0.2928788640951838
0.961830922859926 13.02080139265057 4015.6670770990395 23.453280942458264 0.2971104478717589
0.987337047481931 13.027187466381715 3526.631695583317 24.527451186790284 0.30142337301713784
1.0130608129561154 13.03365174352142 3100.7842820121346 25.649359937776815 0.30582077675065733
1.039003326131292 13.040100009712758 2729.4726860556325 26.820560154227806 0.3103009215559748
1.0651391674628399 13.046435070427613 2405.3442834527477 28.044333949369157 0.3148739883649084
1.091447935521733 13.052564666983077 2122.2275627083345 29.322969794590733 0.31954205692886084
1.1179273073463587 13.058399842689 1874.2809887306041 30.658743182545173 0.3243065511913516
1.1445396527876166 13.063857308100687 1657.1070104872088 32.055376967566495 0.3291777834809646
1.1712856088666053 13.068886985209048 1466.6816775045038 33.51476768998793 0.3341531730211587
1.1981285402323951 13.073358149321923 1299.5469099805314 35.041209301771275 0.3392447779418528
1.22505253476487 13.077239086076785 1152.7741909743597 36.637190275536895 0.34445228823999774
1.2520313487795074 13.08041619583056 1023.4945494294059 38.30714495470697 0.34978643872796455
1.2790578042426748 13.08288187390314 909.7216896411469 40.05391599137221 0.3552474513176072
1.3060849584751395 13.084485570015685 809.4855790838923 41.88267280326765 0.3608481295857368
1.333107513244263 13.085231606881582 720.980777157081 43.79649081369844 0.3665882262587682
1.3601016972517135 13.085055216550137 640.2761500691154 45.800789562647246 0.372479608844285
1.3870220277895067 13.083831860510138 573.726769160548 47.90051529237877 0.3785301431062608
1.413856300128062 13.081555008028957 512.6383461728166 50.09996393307567 0.38474319656570427
1.440584668837321 13.078178836635235 458.47231983872825 52.40519439158918 0.39113015889321684
1.4671568399438915 13.073591596510155 410.4786069739536 54.82217470713776 0.3977004670752776
1.49356207227615 13.067780818595752 367.84400117112693 57.35706737937205 0.4044631362413651
1.5197660789442418 13.06068813822103 330.02224209887436 60.01647056777188 0.4114278878414193
1.545743397053777 13.052249077025074 296.36852968374467 62.80745728659008 0.4186052077394133
1.5714547588565118 13.042421868029862 266.45795717182017 65.73761834866595 0.4260064090403343
1.5968686417031457 13.031142908509311 239.790693845548 68.81510943813672 0.43364370020458887
1.6219618581153006 13.018384209758413 216.02767568831692 72.04870273929181 0.44153025907165117
1.646700894160535 13.004113250523147 194.8170715565821 75.44784360235279 0.4496803134898862
1.6710661636952429 12.988254031652353 175.8873530670139 79.02271278762325 0.45810922933297904
1.6949974982615479 12.970777390475714 158.96970905042463 82.7832526260874 0.4668293276286961
1.7184868212465785 12.951639517349644 143.8208756916013 86.74168056539588 0.4758601910358641
1.7414860919188224 12.930801063339963 130.27891516353432 90.91061526477276 0.485220521505558
1.7639697626908073 12.90822415168 118.1299367412694 95.30262029040009 0.49492631378768315
1.7859020205396046 12.88385947312479 107.22875311587384 99.93280024996655 0.5050009201068292
1.8072396197133889 12.857665031165531 97.45978296218541 104.81685358715268 0.5154669691751061
1.8279865073527477 12.829675312842554 88.67017767171072 109.97048403086474 0.5263440851790937
1.8480623778409828 12.799754563664996 80.76917810521785 115.41258965457209 0.5376606307002182
1.8674770071944689 12.76797304331869 73.6686424309623 121.1627534855713 0.5494438120351145
1.8861658964709695 12.734231360028003 67.2651672979751 127.24217516990807 0.5617228731154327
1.9041007148236149 12.698482512889084 61.49392044456237 133.67396129110887 0.5745297413808031
1.9212685812346475 12.660781062631445 56.28960004014262 140.48225237424813 0.5878955373282138
1.9376270578491104 12.621065038843785 51.588894457848276 147.6949887967862 0.6018598409935961
1.953139855051093 12.579284131844974 47.34357183081755 155.34175564170127 0.6164625083791092
1.96779299373453 12.535489897315491 43.504304711657525 163.45403353741878 0.6317440994034041
1.9815481567113777 12.489629769196437 40.03008582612213 172.06707564643705 0.6477516596539384
1.9943839949149946 12.44171348791385 36.880220438589014 181.21935063070157 0.6645360388891219
2.006242373297955 12.391627059194416 34.03287970077985 190.95242838266708 0.6821507406450855
2.017129737034759 12.339482223699532 31.445639000261615 201.31204617843918 0.7006546100487144
2.027012827404569 12.285240159574391 29.09909656329407 212.3485710413581 0.7201123447244099
2.0358728635036316 12.22891806880765 26.96934106349996 224.1162011757334 0.740590767606609
2.043665687383001 12.170463562509113 25.0309456313142 236.67633889903982 0.7621686186144316
2.050377031510206 12.109902757478215 23.272234784652397 250.09436206796184 0.7849245572447598
2.0560042750058694 12.047293737851529 21.67135641595565 264.44434557411324 0.8089509560991293
2.060499186761284 11.982570834919919 20.21298215836469 279.80697570096225 0.8343452480434661
2.0638698172963084 11.915837474476966 18.886436644658552 296.2718149785611 0.8612151990142167
2.066089787649713 11.847081351473973 17.678847938664656 313.93653486475773 0.8896739525314624
2.0671449137671396 11.776337219325537 16.57878367736016 332.9124055676571 0.9198552348770255
