M[M_sun], R[km], Lambda[1], P_c[MeV/fm^3], rho_c[fm^-3]
0.24162668629717493 15.618656898711224 2160425.4255784233 3.5677272577965504 0.1711233750220791
0.253645086972622 15.27727559472427 1723175.469426827 3.7848406973220325 0.1738884359462419
0.2660418741693691 14.981218841981994 1382969.3009448731 4.011445824672354 0.1766671969471474
0.2788181392455574 14.723463601865285 1116295.8158576854 4.247798076594825 0.17945832451231952
0.2919740604497524 14.498348881812955 905832.2204684911 4.494522916055536 0.18226838994917482
0.30551083017183844 14.30114867637443 738605.7091690489 4.751776849436763 0.18509311716485938
0.319428895428838 14.128046243702961 605048.6695692319 5.020240738282547 0.18793909360095185
0.3337281492878359 13.975872706941237 497630.29868329753 5.300140555597272 0.19080297971057228
0.3484111674594159 13.841892885617932 410938.65133066423 5.592202779986036 0.19369102870875676
0.36347593900412084 13.723892526785779 340631.1358251687 5.8965974134464565 0.19659835375169266
0.378929680033116 13.61993466548666 279334.630364719 6.214187463435687 0.19953261281168747
0.3947645147632651 13.528369242460576 236368.84152407126 6.54522779882572 0.20248993871960522
0.4109915062152237 13.447810510986406 197828.65536031793 6.890425980670789 0.2054741296243029
0.4276016196326382 13.376978291703708 166044.11949368392 7.250484956038334 0.20848821861754163
0.4445981907397471 13.314866487862066 139778.72891758088 7.625660164265637 0.21152769541819427
0.46198002491924 13.260491924350793 117949.7656481697 8.016907740012304 0.21459883153714918
0.47974855659400634 13.21309385279935 99785.70557356573 8.424929632191 0.21770322243732826
0.49790710020072315 13.171933864410502 84620.43447564817 8.850162053574365 0.22083826801292925
0.5164481620954434 13.136350422644435 71921.64921039146 9.293487695745121 0.2240075078715289
0.5353684707527008 13.10580307899036 61259.81635641224 9.755787294748162 0.22721379867154096
0.5546782023701623 13.079779857537298 52291.87511592626 10.237869047265866 0.23045847019596555
0.5743626514846011 13.057803851092421 44717.354716344606 10.740202269794331 0.2337381949438587
0.5944224778194274 13.039510426772809 38318.35802608508 11.264040563997046 0.23705927005983213
0.6148608378793425 13.024480648742534 32890.9130670394 11.81031703479079 0.24042324901422732
0.6356684084592729 13.012426017655693 28283.639173218726 12.38001106671664 0.2438317654381807
0.6568410117531973 13.002997084933263 24362.662327135546 12.973802428994011 0.24728266416714142
0.6783751202632093 12.99596538806183 21021.101864097574 13.593036627430221 0.25078093834730897
0.7002662612529024 12.991043612590715 18165.653488947017 14.238902988806304 0.25432912511243494
0.7225029994754042 12.98799122019732 15723.768411077242 14.912591696006695 0.2579292100293491
0.7450935341686867 12.986652793872025 13629.130175140566 15.61511915581208 0.26158095451254654
0.7680170181939351 12.986749241756758 11832.23110813844 16.34777849344693 0.2652865205177099
0.7912652018156122 12.988147329332303 10286.492549852012 17.112173597822135 0.26905047003481175
0.8148417006623795 12.990671416568622 8952.937851327819 17.909760166562254 0.2728752369264359
0.8387269835623243 12.994144873346665 7804.844003961492 18.741883495512464 0.2767617202869391
0.8629102884806358 12.998411384830511 6811.329370083118 19.60992872539276 0.28071076184796817
0.8873942478541723 13.003377203313883 5952.940760260296 20.51596313715704 0.28472854753080173
0.9121533993981277 13.008857150708012 5209.139886842757 21.461781718260816 0.2888180923910438
0.9371752096507454 13.014763386371062 4563.369957740852 22.44884298784859 0.2929791091052441
0.962463155744464 13.020960030219038 4002.906055133874 23.47922457168155 0.29721581265863795
0.9879830596625717 13.027360229373675 3514.948472830516 24.555325024431717 0.3015341025417552
1.0137300140942112 13.03381114916728 3090.5179008171167 25.679056118841437 0.3059353800325473
1.0396955425979089 13.040272556526741 2720.210940271557 26.852441561912105 0.31042136377333546
1.0658518137464519 13.046593981431663 2397.165083790083 28.078549740145977 0.31500056745315796
1.0921864030904016 13.052727758383668 2114.6824872512025 29.35939874107042 0.3196731787687006
1.118686426667891 13.05855955661273 1867.533801223369 30.697820008052798 0.3244443972254449
1.1453202802006206 13.064012952752051 1651.32279445801 32.09713706610117 0.32932176123268425
1.1720866309498386 13.06902336869215 1461.3684254426416 33.55937298124392 0.33430349745168936
1.198944544835121 13.073485212964448 1294.7782935889902 35.08903308254069 0.339402918219801
1.225892556376184 13.07734808708352 1148.4908365203667 36.688093818719544 0.34461649519060583
1.2528905421951555 13.080510721154154 1019.6329837268167 38.36165432914316 0.3499589524647492
1.2799356273605285 13.082942387100099 906.2514356142494 40.11200761622508 0.35542716739774405
1.3069888729211891 13.08454379774849 803.0150206182461 41.9445273772069 0.36103512533368204
1.3340201257320115 13.085241936859077 718.1729092439144 43.862801455726306 0.3667853357802137
1.361030421568983 13.085029683575783 640.3049061904271 45.87141739256386 0.37268498497961705
1.3879699592704766 13.083782894431947 571.4842119626559 47.975761820600766 0.37874431901568845
1.4148155407478955 13.081458307016591 510.59886780754306 50.18065379304105 0.3849692984455336
1.4415470096273937 13.078014246350453 456.6404905813076 52.49119955298216 0.3913662968430527
1.4681418454956716 13.073409983267847 408.7922413472399 54.9138757775633 0.39794730986478527
1.4945523024718241 13.067539504209169 366.33906797152804 57.45487578564451 0.404721404321618
1.5207659805335958 13.060387559298135 328.6706362299472 60.1208313141948 0.4116983575871735
1.546750051550735 13.051891213089368 295.13163716138274 62.91885198835734 0.41888871611168244
1.5724673682202452 13.042004654314116 265.3174343697574 65.85656857100811 0.4263038587143345
1.597881232012966 13.030663586961893 238.78245099473472 68.94218037556607 0.4339560652134324
1.6229797158137 13.017840309418059 215.1159816722855 72.18450727351797 0.44185859102216585
1.647732011560261 13.003490396312841 193.97957780336486 75.59304678222257 0.45002574841372567
1.6720791360634508 12.987548282861603 175.13718216627439 79.17764122467878 0.45847134351662133
1.6960171172115064 12.96998700114059 158.2747400430772 82.94868915802974 0.4672095002972702
1.7194958454598472 12.950768667239643 143.19652324696344 86.91883835499301 0.47626136626601073
1.7424791375533661 12.929818460456499 129.70378302517344 91.09956807398876 0.4856408719550347
1.7649596054942418 12.907156986876254 117.60786343163129 95.5051871071246 0.495370790614549
1.786886551260604 12.882713826652335 106.75966055087896 100.14915741605975 0.5054678094848685
1.8082225398401397 12.856442982996333 97.03130587400408 105.04812230022989 0.5159580687720837
1.8289354412875387 12.828307235381487 88.28132946336201 110.21863492028889 0.5268641232847293
1.8490085467850605 12.798314563868656 80.42079440138417 115.67847218568436 0.5382098522604882
1.8683820134033031 12.76636539115677 73.34460694092402 121.44759888715794 0.5500236528885506
1.8870564871951372 12.732535473270913 66.96896359809044 127.54745654913249 0.562335374734423
1.9049776646215644 12.696705001287764 61.22188560391139 134.0007298442832 0.5751751550416861
1.9221175425956587 12.658872506073479 56.04307159092495 140.8330304193856 0.5885789863542904
1.9384280354971977 12.61896921587834 51.36393555558964 148.07204956730664 0.6025851361456352
1.953920533261243 12.577110550274801 47.137686082480826 155.7461637602496 0.6172289022455817
1.9685329430956198 12.533169133872281 43.31693612716315 163.88918238435738 0.6325583948809549
1.9822429054197392 12.487153584539854 39.85586705727582 172.53507094507245 0.6486157618033213
1.9950265456590344 12.439057430320164 36.7241793194001 181.72283228122103 0.6654531376967114
2.006859577606912 12.38888321567591 33.88517833270593 191.49466338363834 0.6831255230094624
2.017700543298775 12.336593417596657 31.31096984489693 201.89663824844538 0.7016922033077229
2.0260673282761554 12.285579994212439 29.201128863983374 213.57252653714878 1.3241909204609381
