M[M_sun], R[km], Lambda[1], P_c[MeV/fm^3], rho_c[fm^-3]
0.24162668629717493 15.618656898711224 2160425.4255784233 3.5677272577965504 0.1711233750220791
0.2536477258830428 15.277147815903783 1723171.1128441277 3.7848723575013707 0.17388883057510396
0.2660455568301839 14.981150066289949 1382851.350939838 4.011512381682985 0.17666800124934162
0.27882390895461334 14.72338589381702 1093920.6012996186 4.24790178318817 0.17945952735251983
0.29198215152646184 14.498237631147072 905721.34451568 4.494666494630704 0.18226998872993216
0.30552107104112625 14.301015315700523 738537.1013260637 4.7519651763763795 0.1850951514552346
0.31944099890089844 14.127921997488976 604934.4226524933 5.020475201960503 0.1879415262521053
0.33374283533792726 13.975702382766553 497512.09846014495 5.300427330235572 0.19080586705533478
0.34842828946554555 13.841797258745 410863.9260216341 5.592542582729999 0.1936943163937811
0.36349545201536726 13.723732806231762 340511.53780081385 5.896997880136334 0.19660211501959177
0.3789518483813885 13.619803281156527 283182.59786941455 6.214653441925261 0.19953686197443773
0.39479006173252196 13.528228031109833 236307.40955397324 6.545758806444582 0.2024945949390665
0.41101977225559744 13.447654531174367 197768.99070615106 6.8910322707150256 0.20547929304473936
0.42763189809457774 13.376870424401147 165989.52670859068 7.251172219821551 0.20849390417468958
0.4446324905235991 13.314742362178182 139726.4735484263 7.626426503307389 0.211533795969721
0.46201736974044644 13.26038785069145 117910.68898620341 8.017766524026472 0.21460547492579582
0.4797901405669114 13.213019917873648 99752.47081732599 8.425887560196019 0.21771042471676721
0.4979522018113187 13.171836939425186 84589.28569142689 8.851215594400513 0.2208458960986539
0.5164973172153167 13.136264646228653 71893.91725508824 9.294653902820887 0.2240157180420468
0.5354233896983752 13.105699446709039 61239.333109419225 9.757074078080779 0.22722260867137015
0.5547325136239614 13.079724498227973 52266.53724483279 10.23927102810037 0.23046772149816486
0.5744232231579235 13.057743039705416 44697.55677582998 10.741740836194193 0.23374807301673403
0.5944857018317601 13.039431231339293 38297.10752487905 11.265725089781501 0.2370697950074171
0.6149289230742326 13.024434691395275 32872.976540662254 11.812157474959722 0.24043444196116104
0.635740215520736 13.01237662781785 28268.605098186512 12.382017997491621 0.2438436486242196
0.6569176324987414 13.002979719884712 24350.439516253216 12.975966633992616 0.2472950338754394
0.678456176895997 12.995946092811332 21012.216077483172 13.595388846712853 0.2507940348740774
0.7003519333319268 12.991041315799398 18156.488804610435 14.241455839286937 0.2543429744508843
0.7225929367910521 12.987999606715452 15715.555838953227 14.915358605455898 0.25794383972260143
0.7451885597153868 12.986634553184635 13621.322613714727 15.618087411787998 0.26159612626817347
0.7681159661480818 12.986753638140053 11823.809722348024 16.35098830335917 0.2653025206150743
0.7913682105835361 12.988150253680878 10279.460856429752 17.115641077183092 0.26906733121275705
0.8149506570260991 12.990692145463157 8947.271959645348 17.913502499578573 0.27289299402900874
0.8388393673076155 12.99416857539358 7799.394026910654 18.745884081078465 0.2767801009076563
0.8630280703926819 12.998439175416566 6807.152439561966 19.614239596119656 0.28073010200619586
0.8875166350195814 13.003404978969733 5948.939634831607 20.520605049256787 0.2847488891093627
0.9122824003852413 13.008891496273634 5205.60288073597 21.46677684962258 0.28883948009700977
0.9373084651880286 13.014795160350245 4560.499291502893 22.45417052669272 0.293001236668562
0.9626003515085462 13.0209981720003 3999.9986246721924 23.484951395841627 0.2972390709931573
0.9881276432515671 13.027386965210882 3512.498645282192 24.56147810031312 0.3015585457912298
1.013878640782752 13.033846693493818 3088.553011096167 25.685611623554056 0.3059606789877522
1.039849547880994 13.040310768204247 2718.371785143296 26.859479664320865 0.31044795245688783
1.0660086720430517 13.046632144694783 2395.4907526590687 28.086103398790755 0.3150285117210675
1.0923479565828706 13.052757844791389 2113.1399694257175 29.36744117789379 0.31970212660318337
1.1188540228391128 13.058599170722056 1856.9942221440026 30.706447274920578 0.32447483046835396
1.145491541009425 13.064052701342638 1649.9073406162554 32.1063209980003 0.32935331631810877
1.1722619853320322 13.069055252885535 1460.2451064325267 33.56922134321865 0.33433668744695283
1.1991253479385051 13.073510172085234 1293.8186263438006 35.099587501262185 0.3394378049385011
1.2260786198115767 13.077372433518603 1147.5447998672594 36.69933339315477 0.3446527523178851
1.2530796592285594 13.080520152181114 1018.8598949150886 38.37361981414234 0.34999663062992187
1.2801293542553525 13.08295692889441 905.5212707425095 40.12483506416803 0.35546685123630606
1.3071854945615082 13.084560683137436 805.6697513657723 41.95818609560294 0.36107641770868004
1.3342292782764875 13.0852683440363 717.5359549669961 43.87744464202446 0.3668288629027901
1.3612349802446602 13.08502633210209 639.7405455039051 45.88701435422147 0.3727303388254303
1.3881777241915412 13.083769370579946 570.9853947373367 48.01455585373065 0.3787699412526413
1.3924516243815719 13.071527300160511 555.9733977266798 51.62347438612849 2.5386765525052652
