M[M_sun], R[km], Lambda[1], P_c[MeV/fm^3], rho_c[fm^-3]
0.24162668629717493 15.618656898711224 2160425.4255784233 3.5677272577965504 0.1711233750220791
0.25364507578400886 15.277266646154521 1723164.1683195124 3.7848405376217404 0.1738884339556548
0.26604185727579804 14.981223648820407 1382936.5052873318 4.011445488947445 0.17666719289011001
0.27881825258642934 14.723488245287562 1116454.1404809663 4.247797553484099 0.1794583184450234
0.2919741803718386 14.498337981378581 905822.7967394715 4.494522191828958 0.18226838188474379
0.30551074124483046 14.301148616389513 738578.0479026143 4.751775899499789 0.18509310690372707
0.31942893016609203 14.128065225819437 605033.4105862005 5.02023955563434 0.18793908133052026
0.33372810583094153 13.975896535564928 497614.247902805 5.30013910909761 0.19080296514672085
0.3484112000155991 13.84194106689936 410944.90438065573 5.592201066019941 0.19369101212566328
0.36347542590809406 13.723895516157693 340620.12926575023 5.896595393502171 0.19659833477994845
0.3789296616892077 13.619946456845454 283253.0834259703 6.21418511306414 0.199532591379129
0.3947641171275378 13.528382109144664 236374.21437197627 6.545225120463756 0.20248991523398907
0.41099114634677847 13.447789335157294 197829.58800890055 6.890422922606125 0.20547410358054094
0.4276012462883289 13.37697729523208 166062.32353302525 7.2504814895686485 0.2084881899403263
0.4445979383372212 13.314858435323217 139779.13699360323 7.62565629896872 0.21152766464794542
0.4619798235512524 13.260500928449126 117946.19607151528 8.016903408459479 0.21459879802908616
0.47974878278306665 13.213088882442143 99788.95471586006 8.424924800598435 0.2177031861105066
0.49790710545033 13.171932660556132 84623.12609891075 8.850156739754304 0.22083822953860158
0.5164489558898603 13.136336848970696 71923.73438337566 9.293481813691956 0.2240074664615079
0.535369882723349 13.105788255875494 61262.16961545369 9.755780804571698 0.22721375423635742
0.5546775339020664 13.079765891386666 52289.901602706894 10.237861976096147 0.23045842353517934
0.5743624913504088 13.05780353244302 44717.97736291111 10.740194509766908 0.23373814512207888
0.5944216131482601 13.039494015965682 38318.59328736865 11.264032067840468 0.2370592169756921
0.614860621923719 13.024481070853783 32892.889837046554 11.810307752303123 0.2404231925612148
0.6356680422951771 13.012424942970322 28284.027194286766 12.38000094456344 0.2438317055041605
0.6568406560353605 13.002997825894248 24363.22432095712 12.973791513658517 0.24728260177955977
0.6783747629627805 12.995969231643842 21021.104951094298 13.593024763889014 0.25078087229428997
0.7002659481068993 12.991055032316465 18165.950293601414 14.23889011343511 0.2543290552629178
0.7225020963702691 12.988008031202474 15723.810230235542 14.912577741092601 0.25792913624445796
0.7450930845093552 12.986642878152239 13629.66478611541 15.61510418546795 0.2615808779940776
0.7680163889087983 12.986762774976091 11832.398924778985 16.34776230491049 0.26528643982191596
0.7912646865618882 12.988146189140512 10286.406966098246 17.112156109828312 0.26905038499661976
0.8148416867124959 12.99066287353197 8952.813658204204 17.90974129245739 0.2728751473701579
0.8387264597530251 12.994145889089415 7804.805655156684 18.74186331901774 0.2767616275863854
0.862909772111589 12.998424148012354 6811.4612128327135 19.609906984119814 0.280710664308588
0.8873935893153742 13.003365488482757 5952.9806316386275 20.515939726441736 0.28472844494141736
0.9121521503742173 13.008858661527265 5209.076390470433 21.461756526270815 0.28881798452623786
0.9371751495268638 13.014754997661226 4563.4957553320655 22.448816119535934 0.2929789975095698
0.9624624092997293 13.020962732381664 4002.912338504503 23.479195689806556 0.297215695360762
0.9879843327818659 13.02736568019214 3514.9770390555573 24.555293993018378 0.30153397926868136
1.0137292744938584 13.033810147922434 3090.430935073418 25.679023058023205 0.30593525244448255
1.0396960796847345 13.04027222883446 2720.218186370078 26.85240606743655 0.31042122968159824
1.0658506893522468 13.0465941281803 2397.138494513441 28.078511645825365 0.3150004265257013
1.0921846061231468 13.052729367978722 2114.6697916581343 29.3593581819368 0.319673032780723
1.1186856651242638 13.058554612149653 1867.5358354199068 30.697776499774537 0.32444424374717407
1.145318504672636 13.064018799306949 1651.3189153360158 32.09709075070163 0.3293216020975333
1.172085712877362 13.06902148320137 1461.3639673100158 33.559323315337274 0.3343033300724632
1.1989436707688337 13.07347722943248 1294.8172054008467 35.088979831657795 0.3394027421335676
1.225891819512936 13.077346870352228 1148.4745404741625 36.68803713741598 0.3446163123454946
1.2528895275373895 13.080510386536982 1019.6896600699375 38.3615939873431 0.34995876245420554
1.2799346869502448 13.082945860964163 906.2794575162307 40.111942927930485 0.35542696727377154
1.3069875494285217 13.084550614054574 806.3760480027923 41.94445849717788 0.361034917098919
1.3340198846589815 13.085243126567551 718.1544281533334 43.86272761152909 0.36678511627707017
1.361028461310499 13.085030763454975 640.3020724863936 45.87133873895609 0.37268475626560993
1.387962425120603 13.083768500046805 571.5166692217872 47.97567802155444 0.37874408049655167
1.4148140864035368 13.081459228973891 510.59621009925195 50.18056392945513 0.3849690466378627
1.4415457124449143 13.078013015533536 456.64946402924846 52.49110376754177 0.3913660338521211
1.468140882300394 13.073409985045629 408.8008897780048 54.91377364604201 0.3979470349450979
1.4945526129730615 13.067540850408264 366.34031204404414 57.454766849448006 0.4047211166700407
1.5207647902560906 13.060387122212088 328.6767758204552 60.12071507728376 0.4116980563381996
1.546748978196871 13.051892505818147 295.1289446662171 62.9187279138622 0.41888840033222796
1.5724661752405313 13.042003836736923 265.31984913499764 65.85643607750363 0.4263035273980163
1.597879996556648 13.030662374973154 238.7833800856311 68.94203883296493 0.4339557172742674
1.6229782278816014 13.01783982297677 215.11819198575924 72.18435599854288 0.44185822528763485
1.6477308811766542 13.0034904702551 193.9788180874325 75.5928850334067 0.45002536361712586
1.6720781156832194 12.987549899875845 175.1404516990789 79.17746904168041 0.458470941815656
1.6960159454210628 12.969986248782792 158.27412407454608 82.94850486048385 0.46720907678204654
1.7194946649718794 12.950769223571674 143.1975189121363 86.91864099392991 0.4762609193403063
1.742476830606513 12.929818711650318 129.70392539798667 91.09935756726793 0.48564040365506556
1.7649587816195265 12.90715766178198 117.60665611232555 95.5049614262885 0.4953702954204025
1.7868847784933737 12.882716771821475 106.75919523765495 100.14891636458397 0.5054672893062414
1.8082210765389362 12.856443873884018 97.03128799605305 105.04786462781429 0.5159575216041692
1.8289344148452387 12.828309069970363 88.28137905543244 110.21835926313958 0.526863546958957
1.8490076778653195 12.798316279345112 80.41949152542547 115.6781759283759 0.5382092402951195
1.8683804605102812 12.766367399959053 73.3453130992546 121.44728149055933 0.5500230067853886
1.8870561858936454 12.732536090490438 66.96980268850578 127.54711743785987 0.5623346960300596
1.9049769061418305 12.69670571313761 61.22087503108425 134.0003659050419 0.5751744365126216
1.9221166951743458 12.658873844622537 56.0427199639069 140.83263951747918 0.5885782247287241
1.9384260803333109 12.61897137832354 51.361912070630545 148.07162936113062 0.6025843278581492
1.9539191876179527 12.577113077256953 47.13678658627881 155.74571306246662 0.6172280481281675
1.9685316461165305 12.533171503182396 43.316663977631016 163.88869846296632 0.6325574909117747
1.9822422544388305 12.487156265933983 39.85682583377621 172.53454934288902 0.6486147987219204
1.9950279443767662 12.43905976200397 36.725507091984134 181.72227110691475 0.6654521155099314
2.0068589387738798 12.388886361910991 33.88502574733213 191.49405899189784 0.6831244364871819
2.0177003422329634 12.336596611236946 31.310789445259555 201.8959866179958 0.7016910467279529
2.0275326774292846 12.282201125158242 28.975910928730624 212.97786218914533 0.7212140723594076
2.0363359086926427 12.225712908617762 26.8548040565959 224.79558400170174 0.7417650969951065
2.0440742230864126 12.16710317792157 24.92923861436498 237.4099967168429 0.7634200997100675
2.0507271141235544 12.106377945725535 23.17505889931855 250.88821169524252 0.7862623544374512
2.056294614398381 12.043613540004724 21.583070795143087 265.30356422970294 0.8103806480644407
2.060734339399746 11.978746780718291 20.13131208258295 280.7373896719692 0.835873194482393
2.0640321380749542 11.911833749130809 18.811727451763325 297.27997927875134 0.8628486123493486
2.06618594969346 11.842916032162607 17.60992262999436 315.0316678195543 0.8914270449960172
2.067172235744411 11.77200739271886 16.51539400348602 334.101728091563 0.921733674801122
