M[M_sun], R[km], Lambda[1], P_c[MeV/fm^3], rho_c[fm^-3]
0.24162668629717493 15.618656898711224 2160425.4255784233 3.5677272577965504 0.1711233750220791
0.25364500672208995 15.277252522441492 1723128.2432754792 3.7848410804307053 0.17388844072150667
0.2660420034902918 14.981236000810362 1382914.742750152 4.011446630050561 0.17666720667966773
0.27881889060360854 14.723439517010924 1116366.083730974 4.247799331497301 0.17945833906729713
0.2919743305384863 14.498334720035515 905793.7223959771 4.494524653419674 0.18226840929512772
0.30551114151143954 14.301190291812645 738583.7967069842 4.751779128263113 0.18509314178053315
0.3194288968882432 14.128056520701362 605021.2434486352 5.020243575365664 0.1879391230367842
0.33372831561566774 13.97586948372113 497624.115655931 5.300144025640268 0.1908030146481474
0.34841147184384835 13.841939062270445 410955.2960054781 5.592206891661125 0.19369106849034431
0.3634758259246388 13.723883742340126 335695.1497251197 5.896602259140488 0.19659839926347644
0.3789299464924687 13.619936632300895 283249.0380858932 6.2141931018003795 0.19953266422678442
0.39476339034533015 13.528394837844843 236374.5114978746 6.545234224015307 0.2024899950598379
0.4109918491326754 13.447790189618352 197833.10180452064 6.890433316739272 0.20547419210134055
0.4276012133865394 13.376987355944946 164032.02803303502 7.250493271840718 0.2084882874120436
0.44459839090775666 13.314861392261506 139775.41328052722 7.625669436825544 0.21152776923373337
0.4619802343997809 13.260497297732519 117946.48692373968 8.016918131086497 0.2145989119205089
0.47975038952869337 13.213073595453658 99786.08059354102 8.424941222824447 0.21770330958268838
0.49790805079604433 13.171928464616036 84621.63984783147 8.850174801036873 0.22083836031000437
0.5164490192523169 13.136347042452039 71922.7158173731 9.293501806358156 0.22400760721112437
0.5353696882872213 13.105801581025778 61261.09545977154 9.755802864205682 0.22721390526828852
0.5546799131241447 13.079771823993623 52291.15740769453 10.2378860104848 0.2304585821317786
0.5743632414641465 13.05780491853021 44715.893371200225 10.740220885534105 0.23373831446267448
0.5944224578130627 13.039520792895319 38316.94266329291 11.264060945658626 0.2370593974048225
0.6148629103875612 13.024496601434123 32892.54898507752 11.810339302805424 0.24042338444090966
0.6356692550694649 13.012410154593086 28283.58415925114 12.380035349029987 0.24383190921555983
0.6568419378519222 13.002997154798427 24362.9101299732 12.973828614096142 0.2472828138304475
0.6783762263603335 12.995963772761414 21020.705144378073 13.59306508721192 0.25078109680374866
0.7002672968967817 12.991044864363285 18165.09931669295 14.238933875898065 0.2543292926764152
0.7204052916625132 12.986804127601102 15924.009375169422 14.899400039531526 0.379501036869137
0.731117123503282 12.972656366809504 14745.892372093358 15.833170176768611 0.609248035998238
0.7364996275646019 12.946128541898346 14016.42216887426 16.8794505127233 0.783911061634019
0.7386325433783468 12.908564758554789 13503.097263381229 18.086172065215063 0.9426055442551367
