M[M_sun], R[km], Lambda[1], P_c[MeV/fm^3], rho_c[fm^-3]
0.24162668629717493 15.618656898711224 2160425.4255784233 3.5677272577965504 0.1711233750220791
0.25364402522784757 15.277270385461685 1723104.4852290154 3.7848198784891824 0.17388817644953375
0.2660399836235031 14.981258458624952 1383016.5570222063 4.011402059106948 0.17666666806611814
0.27881492450794326 14.723532031143844 1116444.5733575046 4.247729883409373 0.17945753357413322
0.2919693818792583 14.49841559286478 905920.0906677038 4.494428505570893 0.1822673386665168
0.3055044737599908 14.30125229835883 738687.9076925687 4.751653015705484 0.18509177952422134
0.31942158744750493 14.128135708350527 605128.9334856499 5.02008656886647 0.18793749403375612
0.3337190589958456 13.975937262883413 497674.2236622468 5.299951991320667 0.19080108118119157
0.34840005838113014 13.842034562087557 411010.26570504555 5.591979349796725 0.19368886696021165
0.363462540033899 13.723992860504827 340644.6418576171 5.896334097303243 0.19659588063075195
0.37891607483861994 13.62000217884394 283314.6992948588 6.213881074484024 0.1995298189133646
0.39474816932709206 13.528463806211384 236417.1079312313 6.544878654923121 0.20248687719924974
0.41097266578441316 13.447903181637368 197866.8001816974 6.890027341137003 0.20547073464275056
0.4275808746326908 13.377060134305015 166083.08188892924 7.250033079669494 0.20848448036014822
0.4445758705978423 13.314925229232403 139803.067257278 7.62515629976814 0.21152368433281038
0.4619569348304117 13.260575283702273 117981.2631904157 8.016343098163441 0.2145944635759549
0.47972184132051543 13.213152500234415 99811.18289048142 8.424299809500999 0.21769848705117542
0.49787767775742087 13.171993004198113 84639.67837829955 8.849469372105176 0.22083325270313228
0.5164179754567776 13.136388590128407 71941.34836718744 9.292720944938383 0.2240021098980481
0.5353342969249304 13.105852215641075 61277.47397353749 9.754941275239647 0.22720800637416144
0.5546407764158994 13.07983358612039 52300.50128970641 10.236939925029782 0.2304522930257925
0.5743238138698367 13.057841150748393 44731.23031606739 10.739190726473382 0.2337317005224013
0.5943796705281488 13.03952904874526 37994.96898903547 11.262933067581292 0.23705235040218492
0.6148170942807173 13.02450425358192 32903.17333421302 11.809107041958999 0.24041589023898155
0.6356204688724723 13.012437801626454 28292.145731667795 12.37869162589396 0.24382395293116318
0.6567909548620438 13.003014831618875 24371.461152381293 12.972379599311731 0.24727453185613626
0.6783226809862117 12.995974322914618 21028.545982779215 13.591490202747302 0.25077232826898643
0.7002097588495346 12.991053941804411 18172.827442172475 14.23722467645999 0.2543200201860461
0.722443467029071 12.988015784187352 15730.407859294219 14.91077267047374 0.2579195921556695
0.7450320764687319 12.986647402189885 13634.338636710696 15.613167774001893 0.2615709803431356
0.7679520385719937 12.986752007244078 11836.875962932489 16.34566832729206 0.26527600186867584
0.7911958132208787 12.988143589204604 10289.240208502755 17.10989405554747 0.2690393853926479
0.8147689759808464 12.990673037143274 8956.629122794828 17.907299954117317 0.2728635633942983
0.8386525337634936 12.994120349973013 7807.794786015478 18.739253525402347 0.27674963693506616
0.8628324004785937 12.998408944487743 6814.946789709359 19.6070947984899 0.28069804780521923
0.8873121596675411 13.003353488006216 5955.681460824241 20.512911612151964 0.28471517527508305
0.9120681506714707 13.008847693443638 5211.3592617832755 21.458498019648466 0.2888040325445021
0.9370878136161368 13.0147315777672 4565.318790987623 22.44534079510408 0.29296456299042956
0.9623665828015648 13.02093273873322 4004.5849546748027 23.475459930532548 0.297200523332348
0.9878915115483543 13.02732659644502 3516.704060526025 24.55128021284299 0.3015180344254754
1.0136334100090212 13.033785660764954 3091.9516524414066 25.67474679476939 0.3059187495210243
1.0395960458368867 13.040242278416164 2721.5495467908186 26.847815037697973 0.31040388559795057
1.0657473972915623 13.046571239389447 2398.4767880636764 28.07358435645781 0.31498219833978114
1.0920782161295337 13.052698298732693 2115.7625180954137 29.354112097411587 0.31965415009754455
1.118576517157407 13.058534278253658 1868.693131483448 30.692148980672858 0.32442439230888875
1.1452073892457788 13.0639892484862 1652.1988394960792 32.09110016551832 0.32930101903689235
1.1719683074324607 13.069007763896671 1462.1145827787466 33.55289938777448 0.3342816807742419
1.1988256910051156 13.073457307717268 1295.5662407176499 35.08209223836661 0.33937996672978443
1.2257708676926409 13.077333072803388 1149.1259528676399 36.68070586736617 0.34459266280317014
1.2527659226098138 13.080490692462622 1020.2446366592758 38.35378928516446 0.34993418619525485
1.2798076498618163 13.08293479381401 906.7708891177563 40.10357607506939 0.3554010830262042
1.306851837700823 13.084519546816765 806.8027163441651 41.935549508705606 0.3610079838770615
1.3338879667236248 13.085237998591735 718.623122958932 43.853176591445234 0.36675672570595713
1.3608955339446696 13.085034326383362 640.6635799466894 45.86116570176789 0.3726551744553693
1.3878267479609165 13.083777677096988 571.8436063697088 47.96483951030232 0.37871323059478057
1.4146835281229695 13.08148717706435 510.86659383180705 50.16894108212469 0.38493647813877857
1.4414067244472348 13.078037871991253 456.90732764612784 52.47871503700062 0.39133201903971127
1.4680001637118467 13.073436630116406 409.0147841798803 54.90056416988257 0.39791147741094923
1.4944093403487817 13.06757420828547 366.55559040336584 57.440677321016295 0.4046839125523334
1.5206209425654702 13.060428984873468 328.85490269755974 60.10568134774179 0.41165909370956455
1.546604527356939 13.051942884654892 295.3071447723134 62.902680554540666 0.418847558526933
1.572320208155726 13.042066676137548 265.4777266201773 65.83929989812123 0.4262606762719693
1.597744493765134 13.030737983572935 238.94033695216453 68.92373235075557 0.433910716390565
1.622832251696646 13.017919080669339 215.25371262186442 72.16479085271864 0.4418109230195097
1.647584040040052 13.003582088097566 194.1102165969938 75.5719653386954 0.4499755961591692
1.6719324902823574 12.987649590949708 175.2457387752119 79.15519992499323 0.4584189882212001
1.69586959995741 12.97010369136213 158.37192447162354 82.92466902270885 0.46715430209626085
1.7193500497850083 12.950893620393643 143.28625013577891 86.89311571813099 0.47620311714929636
1.7423356960305865 12.929954371474771 129.78154097342627 91.07213222935378 0.4855798372994933
1.7648159893151893 12.907310412119251 117.68663586551445 95.47577371816035 0.4953062510714708
1.786742085764478 12.882877040133344 106.82694093087568 100.11774087053952 0.505400013942604
1.8080810859195307 12.856625662707206 97.08949124359249 105.01453966622189 0.5158867559783759
1.8287921670800662 12.82849370566016 88.33651703204625 110.18270847724918 0.5267890106490459
1.848871951964744 12.798530799732312 80.46901389020769 115.63986111616866 0.5381300951145246
1.868258969706605 12.766624533651052 73.38200160365963 121.40623293371512 0.5499394469662717
1.886928561331834 12.732779548397733 67.01182066273584 127.50322843951116 0.5622468049445456
1.9048523334307663 12.696967403195716 61.259245108901546 133.95329846595976 0.5750815107735634
1.9219959344888409 12.659153828138662 56.07850995278878 140.78208531510543 0.5884797259177086
1.938311016048968 12.619281778439094 51.39686593740282 148.01728560849426 0.6024797949461829
1.9538083231718324 12.577429036378193 47.16560449335474 155.6874262223372 0.6171175887315272
1.968425172268864 12.533506547454795 43.34101031757371 163.82611526927548 0.6324405849858576
1.9821422016859291 12.487510778831114 39.881980720824075 172.46709346645966 0.6484902488215665
1.9949335565983968 12.439439083091543 36.74772716666666 181.64969798429345 0.6653199225607934
2.0067691962626415 12.389284270875695 33.904858010216145 191.41589727241043 0.6829839242266506
2.0176194689836757 12.337014975412991 31.32958723041409 201.81171634238046 0.701541475301313
2.0274588981508996 12.282633436827544 28.99316490529471 212.88712170629535 0.7210553273134922
2.0362691787917906 12.22617500751044 26.871474248199153 224.6975332870391 0.7415956140005556
2.0440169730584192 12.167585465264759 24.942660802449506 237.30415802606385 0.7632396350197815
2.050677102550957 12.106885761163623 23.189161443913314 250.77382024946814 0.7860698772048264
2.056253294698458 12.044144645854105 21.5953331935478 265.1795973707201 0.8101744578059121
2.060701637249065 11.979301259431853 20.143158870339114 280.603253221064 0.835653179482923
2.0640091596290984 11.91241214290409 18.82289134127862 297.1344501570782 0.8626128290961679
2.066172597118124 11.843516313964285 17.61965354365526 314.8735772219901 0.8911739730433443
2.06716754784181 11.772632186194063 16.524173156336552 333.93003316435073 0.9214624963784842
