M[M_sun], R[km], Lambda[1], P_c[MeV/fm^3], rho_c[fm^-3]
0.24162668629717493 15.618656898711224 2160425.4255784233 3.5677272577965504 0.1711233750220791
0.25364610497016493 15.277215448234225 1722980.3846057786 3.784862032734402 0.17388870188186453
0.266043884060833 14.981198116709807 1382911.7778487392 4.011490676550952 0.17666773895563048
0.27882211157636555 14.723405915244676 1093819.8666065421 4.247867962949323 0.1794591350887152
0.29197961697458136 14.498235466955597 905696.7568942739 4.494619671378383 0.18226946734215047
0.30551779679225816 14.301061295149037 738506.1829242209 4.751903759737706 0.18509448803832151
0.31943782181966546 14.12794198150223 604962.0982947781 5.020398739065724 0.18794073292006003
0.3337388267499598 13.97574405886285 489584.12431180285 5.3003338074315725 0.1908049254358809
0.3484227342373639 13.841844170390189 410893.0008781887 5.592431766041743 0.19369324421183762
0.36348963769344883 13.723782294058466 340558.9485942609 5.896867279208305 0.1966008883880376
0.37894491351875875 13.619848507343612 283210.20886681904 6.214501475620978 0.19953547622472204
0.39478124927330044 13.528292984518995 236323.50780950882 6.545585632074472 0.20249307643378772
0.4110105320461177 13.447722842771947 197791.86081015208 6.890834544233652 0.20547760912305127
0.42762178307627896 13.376928572932332 166012.8413424506 7.250948084972352 0.208492049964523
0.4446210441988727 13.314782751559562 139741.11618364917 7.626176579143305 0.2115318064126742
0.46200491321263487 13.260428330782183 117923.83040251843 8.017486450054344 0.21460330832719132
0.4797764392647564 13.213026315615469 99763.38691723571 8.425575151463528 0.21770807583983828
0.49793718692217964 13.171872415499855 84599.70979558196 8.85087200245159 0.22084340834613816
0.5164811859763037 13.136298751538739 71902.45537360564 9.29427356566287 0.22401304044474313
0.5354042149624991 13.105741002911198 61244.49079718258 9.756654415755099 0.22721973544094834
0.5547150349249051 13.079723036604891 52272.39854068648 10.238813794746587 0.23046470433571345
0.5744036042857185 13.057758702121722 44302.30642864381 10.741239055986533 0.2337448514323688
0.5944642606667714 13.03945080008601 38305.860248200544 11.265175705284337 0.237066362443137
0.6149081086567456 13.024442568473384 32603.356063960546 11.811557239161987 0.2404307915260395
0.6357167524221776 13.012387954228045 28273.294648082414 12.381363460745094 0.24383977306357482
0.6568933344110023 13.002975593514858 24358.00887166452 12.975260802132992 0.24729099962996978
0.6784301263154943 12.995950823931992 21013.51430285263 13.594621693492755 0.25078976357048055
0.7003236564658748 12.991033046345873 18159.34335876558 14.240623249399697 0.2543384576101114
0.7225635278414224 12.987993143159956 15718.378277776274 14.914456199096968 0.2579390683600171
0.7451576071767656 12.986650082945467 13624.005596419696 15.617119335128365 0.26159117810244004
0.7680838716033488 12.986751517268344 11826.854403990981 16.349941442022022 0.2652973022738705
0.7913345484612744 12.988154413586697 10281.743649343924 17.114510174630702 0.26906183201660056
0.8149138822059677 12.990691635478699 8948.907844007967 17.91228195066496 0.27288720261168703
0.8388036010314643 12.994161252377241 7801.252781337697 18.74457930041306 0.27677410611561043
0.8629894473636239 12.998433912829247 6808.651588359525 19.612833612005215 0.28072379424218213
0.8874766906545819 13.003386098424395 5950.1059172585 20.519091091352408 0.2847422547110828
0.912239578953442 13.008878390645727 5206.730447568605 21.46514768382836 0.28883250448086417
0.9372661918051509 13.014774888155918 4561.624975648413 22.45243294114279 0.29299401972741873
0.9625552535737629 13.020988632753513 4000.991506639284 23.48308357629087 0.29723148522297843
0.988081997420861 13.027379495683252 3513.403824665737 24.559471250612493 0.3015505735300655
1.0138300121986417 13.033838128435123 3089.275282983513 25.68347351410756 0.30595242761162156
1.039799944578507 13.040295307560353 2718.883492671043 26.85718414522311 0.3104392803990896
1.0659574484317036 13.046620569061425 2396.126693097364 28.083639719188096 0.31501939749892727
1.092294284289454 13.052751969873515 2113.71884353451 29.364818072246244 0.3196926850334473
1.1187993578327011 13.058581580117957 1866.5569918833041 30.7036334120469 0.3244649043847333
1.1454373403628633 13.064037029699387 1650.391548721625 32.10332556486678 0.32934302430490026
1.1722050481706063 13.069045455961977 1460.5761396965383 33.566009187560304 0.3343258621511971
1.199065906420881 13.07349890379171 1294.1759940370969 35.09614832923301 0.33942644641166475
1.2260195575552146 13.07736394559543 1147.8352900343573 36.69566745275738 0.3446409265616385
1.2530196524496628 13.080519774443545 1019.152340731033 38.36971709602591 0.34998434134471335
1.2800660279655165 13.082952171464017 905.7389718241885 40.1206511879825 0.3554539077211307
1.307121736822422 13.084552194761411 805.9000977087014 41.953731073097046 0.36106294950071177
1.3341551921690562 13.085237797619353 717.7668312669103 43.87266849957072 0.36681466573737864
1.3611681624571843 13.085025618515028 639.929763824963 45.88192710370683 0.37271554579198446
1.388109982235712 13.08377647765526 571.1396934952685 47.986959104277105 0.3787761900995931
1.41495751727085 13.081438673037495 510.2498794665231 50.19266147498755 0.3850029452936216
1.441690825044665 13.077993741025585 456.3403585404833 52.50399856545562 0.39140143813592926
1.4548538963191677 13.067853768318608 429.48653465959865 55.69710625486151 1.5460444534329953
