M[M_sun], R[km], Lambda[1], P_c[MeV/fm^3], rho_c[fm^-3]
0.24162668629717493 15.618656898711224 2160425.4255784233 3.5677272577965504 0.1711233750220791
0.25364615044030786 15.277213996887506 1723039.8887517601 3.784862130880741 0.1738887031052113
0.26604391747362544 14.981198994782593 1382870.058939726 4.01149088287767 0.1766677414489671
0.2788221086670204 14.723433658869748 1116310.7593544067 4.247868284440385 0.17945913881752704
0.2919795919162107 14.498239017492017 905729.547138671 4.494620116473702 0.18226947229839013
0.30551818078522064 14.30105639061096 738541.9433466628 4.751904343554651 0.18509449434465874
0.3194378918006088 14.127941629768953 604970.0288641922 5.020399465908768 0.18794074046133713
0.33373870458287125 13.975738427149984 497560.7775293563 5.300334696441575 0.19080493438673649
0.34842278704409124 13.841843724456426 410892.72453790985 5.59243281944238 0.19369325440377855
0.3634890956166037 13.723783148833622 340572.40757702885 5.896868520671675 0.1966009000481243
0.3789449677385711 13.619842126169067 283210.3863987413 6.2145029201763675 0.19953548939732782
0.3947813478383382 13.52829289946226 236324.48087159963 6.545587278226082 0.20249309086831352
0.41101053332128246 13.4477201844301 197789.42148017703 6.890836423768204 0.20547762512995624
0.42762175804790814 13.376910897711005 166014.0605271782 7.250950215534123 0.20849206759011452
0.4446211520911761 13.314783506278046 139745.30973492202 7.626178954847324 0.21153182532480574
0.46200548969697924 13.260440313310696 117925.84751938486 8.017489112348976 0.2146033289221927
0.47977555101366764 13.213036623583788 99764.28177136775 8.425578121117265 0.21770809816748288
0.4979372398270783 13.17186896571035 84595.78879189509 8.850875268517905 0.22084343199385376
0.5164813352990791 13.13629852812071 71902.1151329092 9.29427718101055 0.2240130658970162
0.5354046053609087 13.105755047108106 61246.65461052055 9.756658404907135 0.22721976275279476
0.5547160915947658 13.079735320079793 52274.7546115995 10.238818141028585 0.2304647330156834
0.5744046431526738 13.057750883439967 44704.25681968758 10.741243825705872 0.23374488205544444
0.5944655551305725 13.039473346224803 38307.032554148704 11.265180927502403 0.23706639507164998
0.6149077322765597 13.02445259445621 32880.29495927299 11.811562944741963 0.2404308262254853
0.635717063509787 13.012412612175785 28274.135631152756 12.38136968247629 0.2438398099029069
0.6568926791409678 13.00297952696747 24354.832863520216 12.975267511443363 0.24729103797763657
0.6784301911486983 12.995956996078936 21013.171823705663 13.59462898568391 0.2507898041714472
0.700323990917893 12.99104095891579 18159.60045833382 14.240631163587855 0.2543385005449684
0.7225642943350559 12.987985762666076 15718.333950907941 14.914464776912313 0.2579391137141603
0.7451574252081151 12.986643909661652 13623.752355093517 15.617128537159944 0.2615912251371215
0.7680841794121366 12.986751526169165 11826.784485294611 16.349951392923746 0.26529735187661985
0.7913353444863104 12.988152883968144 10281.635137038002 17.114520924365884 0.2690618842889226
0.8102207842082726 12.987368183861296 9180.92785062406 17.983485373024134 0.596417150419948
0.8115241322073106 12.966631564804842 8988.991272564392 19.31337692345443 1.122664493133083
