M[M_sun], R[km], Lambda[1], P_c[MeV/fm^3], rho_c[fm^-3]
0.24162668629717493 15.618656898711224 2160425.4255784233 3.5677272577965504 0.1711233750220791
0.25364194451024075 15.277363318508066 1723265.8157306483 3.7848018422386467 0.1738879516363718
0.2660375780867457 14.981326022231997 1383021.8793215645 4.011364143390949 0.17666620987706663
0.2788111781514735 14.723618859927017 1116522.2280618844 4.2476708055649635 0.17945684836016648
0.2919650517267524 14.498480871943709 905958.764432807 4.494346715438247 0.18226642791440725
0.30549875746028016 14.301323189067478 738726.5823384933 4.751545736234027 0.18509062070118365
0.3194141052084775 14.12821293542822 605136.0569182084 5.019953009903296 0.18793610830796417
0.3337104926718213 13.976083561403332 497747.71088096197 5.299788636751146 0.19079943647173075
0.3483903995485065 13.842113022538323 411058.48604892736 5.591785791862998 0.19368699423395688
0.3634521111805942 13.724059825953086 340697.48385981703 5.896105987613924 0.1965937381762767
0.37890335920545287 13.62008247811235 283351.2669370933 6.213615652743052 0.1995273985866755
0.3947337775801782 13.528525294714239 236444.09244567345 6.544576196803739 0.20248422505014366
0.41095678356846654 13.447948832790921 197901.44132441597 6.889682007921137 0.20546779364017081
0.42756375751664155 13.377121608019035 166115.78270143244 7.249641630987705 0.20848124200552348
0.4445560705570486 13.314993193261634 138206.0035999933 7.624719817633444 0.2115202096543611
0.46193572224076707 13.260633450396895 118009.47683326564 8.015853969582276 0.2145906797709361
0.47969841657254375 13.213240134803698 99835.83204439645 8.423754220562948 0.21769438498508062
0.49785270132620785 13.17204906219414 84661.23365836068 8.848869334554234 0.22082890817488715
0.5163890217967967 13.136454553517295 71955.58376140543 9.292056748695849 0.22399743391509286
0.5353053824770984 13.105895260931845 61293.39272979499 9.754208417175136 0.2272029888399274
0.5546093975752199 13.079864316072534 52314.79799451486 10.23613362839684 0.23044692340475445
0.5742896253078603 13.057889816742605 44744.22729378701 10.738314494665039 0.2337260748427691
0.5943441248125325 13.039553326341167 38338.17391935913 11.261973723922614 0.23704635640564492
0.6147784696302602 13.02452893386313 32913.11313897583 11.808058919486868 0.24040951590559728
0.6355771975365818 13.012451600621642 28302.930724907077 12.377548704113993 0.24381718560649582
0.6567472107703711 13.00303528906816 24378.241201479486 12.97114712667647 0.2472674875479523
0.6782767103061201 12.995998781579052 21035.735356756613 13.590150678711442 0.2507648701580347
0.7001617131724314 12.991073054515523 18178.74383397247 14.23577091920836 0.2543121334820054
0.7223928075381223 12.988011784584835 15735.24037669822 14.909197036766628 0.25791126118632035
0.7449782534931174 12.986643801865544 13639.592929976063 15.611477502230539 0.261562340795042
0.7678952072549723 12.986759384288733 11840.10583942934 16.343840528853796 0.26526689075188875
0.7911364433582767 12.988129347239342 10292.926684045846 17.107919557747188 0.2690297840784661
0.8147083843839743 12.990661024403986 8960.111257297205 17.90516897614846 0.2728534520562083
0.8385863790281272 12.99412099687932 7810.123207064839 18.73697551873044 0.27673917067308107
0.8627642755381435 12.9983943671203 6817.331746330922 19.60464014522143 0.2806870353240724
0.8872376161338592 13.003331655085235 5957.628550810321 20.510268498968152 0.2847035927432904
0.9119959598158892 13.008822352033134 5213.420297808897 21.45565382431917 0.288791854523744
0.9370130295810644 13.014713440752784 4567.396707940274 22.442307365054127 0.2929519638489752
0.9622881928401736 13.020916208979754 4006.4589907968675 23.472199200830758 0.29718728054017185
0.9878094199439764 13.027316159077225 3518.170868254414 24.547776836734332 0.3015041171753265
1.0135486910402347 13.033765370993763 3093.4858552463725 25.671014332735457 0.30590434523120374
1.039508007009292 13.040228444283393 2722.750449565955 26.84380786281297 0.3103887472128052
1.0656607239429998 13.046556438585146 2399.354004489904 28.069283712814773 0.31496628838888235
1.0919848962975085 13.052676086384746 2116.6652477063662 29.349533226456252 0.31963766897354645
1.1184815271372592 13.058515542534211 1869.4989317259033 30.687237219447475 0.324407065752892
1.1451081436862312 13.063975640201305 1652.8784964026229 32.08587154407416 0.32928305400860874
1.1718687546862805 13.068988742394128 1462.883074980561 33.54729257988644 0.33426278525357317
1.1987224727384458 13.07344452077173 1296.100509702379 35.07608078354477 0.33936008847839766
1.225666139844463 13.077311543357778 1149.642989256255 36.67430720927167 0.3445720217226482
1.2526586729379237 13.080484869194573 1020.6826131649991 38.346934089066366 0.34991248198296965
1.2796973519637735 13.082929174476732 907.205884343054 40.09627366323089 0.3553784918035541
1.3067381520351091 13.084519523105667 807.191535778577 41.927773977464746 0.36098447726813254
1.3337744421298334 13.085230585870104 718.9209561029854 43.844840772180895 0.36673194734013526
1.3607787723736888 13.085037136472351 640.9637588308497 45.85228705946877 0.37262935656963586
1.3877089225839652 13.083781669387891 572.1223596863493 47.95538012516155 0.378686306131114
1.4145625982171066 13.081497393372205 511.102157639329 50.158797239053925 0.3849080539726197
1.4412844975144137 13.0780519795638 457.1107352132912 52.46790283773275 0.3913023327915027
1.467876864315506 13.073461827792 409.24734722384653 54.889035743816024 0.3978804449613203
1.494284920846215 13.067601790581412 366.74718712100514 57.42838092019523 0.4046514432794446
1.520495474247656 13.06046817818164 329.0210785213792 60.09256099972787 0.4116250899551534
1.546478379387242 13.051987943715545 295.4626259088145 62.888675680650884 0.4188119150094467
1.5721934518218306 13.042117831922917 265.61802533135767 65.82434489317465 0.42622327944110644
1.5976161221554523 13.030800564386233 239.0597374231253 68.9077561200021 0.43387144371687936
1.6226976371466861 13.017960111457109 215.3630016740583 72.1477163010928 0.44176964221197684
1.6474549905651878 13.003662815597563 194.21682512204504 75.55370880693617 0.44993216430276306
1.6718077012476946 12.987736594107565 175.34168168405776 79.13576588363766 0.4583736488250574
1.6957414545079033 12.970202525737605 158.455462850182 82.90386788428755 0.4671065011407514
1.7192064580107085 12.950969413643222 143.37630293025433 86.87084041656897 0.47615267455091526
1.7422103935284015 12.930081492308336 129.8643994016356 91.0483734922489 0.48552698285471163
1.7646910073532411 12.907444249125017 117.75177014250353 95.4503026973436 0.49525036196439626
1.7866194086937583 12.883023200111452 106.88530217123282 100.09053538854285 0.5053413056927316
1.807959702524614 12.856782079800327 97.14367256361794 104.985458665127 0.5158250024115947
1.8286725745083345 12.828663547122295 88.38292107371812 110.151562983685 0.5267238364317771
1.8487545547178144 12.798712123181307 80.51514749558528 115.60642631269468 0.538061030348011
1.8681438411812845 12.766825011831639 73.42855884087578 121.3704128791136 0.5498665304616887
1.886817721860007 12.732992013950929 67.0486763976527 127.4648220513992 0.5621697236300548
1.9047442665224381 12.697194001984576 61.29624917557409 133.9122268685285 0.5750004226876163
1.9218903467912012 12.65939946062538 56.10862509881407 140.73797154439163 0.5883937755167389
1.9382089410195642 12.619529584526967 51.42348711001234 147.96986552603659 0.6023885800582793
1.953711698227717 12.577713603926465 47.19459038288817 155.63656587960807 0.6170212032908635
1.9683327137473425 12.533800797805512 43.36523633834648 163.77148747124815 0.6323385109519851
1.9820566262134034 12.487825747607289 39.90211643027515 172.40823352555506 0.648381570376299
1.994851822411519 12.439768110237038 36.76924487565013 181.58637352919658 0.6652045761877912
2.006688388332464 12.389616699748256 33.92551018682907 191.34769714162599 0.6828613200336018
2.0175487340474763 12.337381017492326 31.346899603450904 201.73818698058355 0.7014109679371968
2.027392657341149 12.28301915978692 29.008775428283496 212.80794763504318 0.7209168170126707
2.036211417936926 12.226577863728654 26.88572856985149 224.6119817984411 0.7414477362158219
2.043964401875612 12.168008267883506 24.956774553460576 237.21181238887357 0.7630821772253573
2.050633700973714 12.107328173054444 23.200740311616283 250.67387211390096 0.785901480190399
2.0562098316542006 12.044586209277075 21.605475221292156 265.071383825139 0.8099943841789906
2.0606746254929167 11.979783315464767 20.1544943168779 280.4862217087474 0.8354612205638778
2.063995368934744 11.912926937130404 18.832306574548998 297.00748043386875 0.862407115393992
2.0661605899969357 11.844039147877746 17.62841913392917 314.735649888884 0.89095317851126
2.06716476298059 11.773175974317276 16.532226089893314 333.78023865943413 0.921225907923469
