M[M_sun], R[km], Lambda[1], P_c[MeV/fm^3], rho_c[fm^-3]
0.24162668629717493 15.618656898711224 2160425.4255784233 3.5677272577965504 0.1711233750220791
0.2536451972059795 15.277264001756148 1723091.3012050672 3.7848489702585604 0.1738885390644047
0.2660428504031253 14.981225431406036 1382926.619851675 4.011463216219792 0.1766674071137344
0.278819807462633 14.723411842260997 1116348.1101192432 4.247825175325411 0.1794586388167574
0.29197642282907754 14.498309644136265 905732.8857438952 4.494560433256175 0.1822688077119112
0.3055132724765188 14.301117549999532 738543.7543694866 4.751826059216185 0.1850936487243954
0.31943203149585253 14.128021240464177 605014.7297361201 5.020302003337077 0.18793972924953875
0.3337321311674963 13.9758085266312 497602.8813680088 5.300215489132103 0.1908037341669308
0.3484157086927826 13.841903429181372 410931.11415160017 5.592291569301749 0.19369188776981136
0.36348143569116964 13.72384198750954 340600.8938642628 5.89670205363035 0.196599336554444
0.37893622898647844 13.619888609478757 283237.3783686663 6.214309221082813 0.19953372309482348
0.3947711980275369 13.528334615687154 236354.12614123677 6.545366547729523 0.20249115536005097
0.4109988406268325 13.447756591848302 197810.84877354582 6.8905843997776 0.2054754787878945
0.4276086155127978 13.376964421497732 166031.03752906545 7.250664532292139 0.2084897042058679
0.44460774269234055 13.314821068422892 139760.70665401642 7.625860401528958 0.21152928943556243
0.46198962695660417 13.26046794679013 117941.35510881776 8.017132131436 0.21460056738622413
0.47975936018749366 13.213094031896683 99778.05706033592 8.425179927974103 0.2177051043117101
0.4979196460481571 13.171901049715482 84610.21344962466 8.850437330995945 0.22084026113907845
0.5164615782166037 13.13632081055958 71916.48188794381 9.293792410354142 0.22400965308137313
0.5353827548838778 13.105784672948964 61253.3304305057 9.756123513102628 0.22721610060036637
0.5546928180423757 13.079745051830308 52283.797612385584 10.238235363929702 0.23046088742313042
0.5743785030114725 13.057802436587275 44712.22026885258 10.74060427274954 0.23374077592735606
0.5944386661422452 13.039478076018252 38314.30830321207 11.264480702204942 0.23706202005131996
0.614879002700761 13.024466214907612 32888.22017511345 11.810797909037722 0.24042617353196963
0.635687017316893 13.01240338762614 28279.38359882337 12.380535440073524 0.24383487029173687
0.6568608713285315 13.003006337928591 24359.042195087957 12.974367893411916 0.24728589612987456
0.6783960835945405 12.995960669757665 21018.321237633427 13.593651214060253 0.25078436020100736
0.7002886014366004 12.99103797182597 18163.270029589108 14.239569993816747 0.2543327436471698
0.7225262402335331 12.988000615833638 15721.45820937437 14.913314627386466 0.257933032440065
0.7451182970746081 12.986650667945941 13627.22806153155 15.615894692177802 0.26158491854001453
0.768042746817585 12.9867506379768 11829.773452911764 16.348617139181545 0.2652907009563574
0.7912909909105691 12.98815836726319 10284.635889204359 17.11307956303247 0.2690548754368441
0.8148689396245881 12.990686307645293 8951.473840107501 17.910737940526623 0.27287987639398265
0.8387565509259635 12.99414942355753 7803.278594342239 18.742928740985317 0.2767665226490623
0.8629416706670271 12.998423230079776 6810.357872326553 19.61105503587136 0.2807158148927588
0.8874266039088853 13.003377868015919 5952.014384940644 20.51717593501781 0.2847338621990749
0.9121860392736282 13.008879448785422 5208.228308601917 21.463086797253666 0.28882368036135725
0.9372103844605674 13.014763753576613 4563.12456269135 22.450234910788947 0.2929848903606976
0.962497307467944 13.02097467717048 4002.1372288515045 23.48072081000681 0.29722188932705257
0.9880225163302155 13.027357535910076 3514.3169587894886 24.556932622750416 0.3015404887667127
1.0137698288331785 13.033819385334665 3090.2840929579215 25.68076885342594 0.30594198980516296
1.0397365346849872 13.040282413418037 2719.698035658865 26.854280376064803 0.3104283104820899
1.0658919657838757 13.046609861235156 2396.6841953698745 28.080523243720645 0.3150078683010258
1.0906378390138736 13.051673144598597 2129.282334840691 29.3707939868464 0.4826362525242786
1.1003691445929422 13.039970145912825 2014.2807499388 31.172006067758645 0.8992616839970082
1.1004914847531868 13.010435517461287 1972.5685599679675 33.41244929139168 1.248919130173861
