M[M_sun], R[km], Lambda[1], P_c[MeV/fm^3], rho_c[fm^-3]
0.24162668629717493 15.618656898711224 2160425.4255784233 3.5677272577965504 0.1711233750220791
0.2536440024480136 15.277284528971657 1723207.7741208165 3.784819319967547 0.173888169487831
0.2660398489046419 14.981277162858417 1383063.749245584 4.011400884981697 0.1766666538775074
0.2788148600795775 14.723530848741312 1116470.5736995286 4.247728053956692 0.17945751235523905
0.29196891944678993 14.498412064852626 905879.4662040874 4.494425972783161 0.18226731046333755
0.3055042972778458 14.301249314301316 738663.0496236002 4.7516496935813075 0.18509174363893988
0.31942131133927204 14.128136684693247 605111.199245782 5.020082432932847 0.18793745112184848
0.33371830266829916 13.975941010149079 497681.2744785878 5.29994693268813 0.1908010302491557
0.3483997579461425 13.842037107632246 411011.79750438186 5.59197335583373 0.19368880896697077
0.3634619817361246 13.72400769695282 340657.9018412338 5.89632703334526 0.19659581428456369
0.378915598174719 13.620008989284871 283309.84348207695 6.213872855045497 0.1995297439619821
0.3947473485318027 13.5284663712498 236398.78868334772 6.544869288536545 0.20248679506869283
0.4109721816065272 13.447883403852257 197869.95483962356 6.890016646982781 0.2054706435668456
0.4275798986267762 13.377073353640087 166087.94913225176 7.250020957393265 0.20848438007566364
0.4445752130183212 13.314935335438667 139810.41761717442 7.625142782873319 0.2115235767296363
0.46195626701328835 13.260578138723481 117981.7033585937 8.016327950880667 0.21459434639947658
0.4797208424493342 13.213157995790247 99815.86504651906 8.424282913712144 0.21769836001846313
0.4978771731591714 13.17200517177827 84646.30595367007 8.849450790106554 0.2208331181615228
0.5164151634224445 13.136415581351743 71939.93397354972 9.292700376012327 0.22400196509152637
0.5353324828659545 13.105865987194177 61280.76660674413 9.754918579921288 0.22720785098999863
0.5546405091750886 13.079827478596394 52302.11173635925 10.236914955379724 0.23045212673766383
0.5743227301775863 13.057842471707467 44732.00421623382 10.739163590984122 0.23373152630415472
0.5943789020281405 13.039524052256686 38330.561559647984 11.262903358170304 0.23705216477724744
0.6148154354469901 13.024506017134826 32903.44205406858 11.809074583114548 0.2404156928350509
0.6356212055426543 13.01242441434138 28294.017227224573 12.378656231154517 0.24382374335628454
0.6567896044596457 13.003016274735295 24371.396683480663 12.972341431215657 0.2472743137029507
0.6783202258270067 12.995979602916735 21029.247405733066 13.59144871929374 0.2507720973002311
0.7002084067330686 12.991060792821742 18173.264247910778 14.23717965521787 0.2543197759436103
0.7224422057565788 12.98800202164716 15730.227278603837 14.910723874720325 0.2579193341541275
0.7450290613269521 12.986648058000277 13634.591236850461 15.613115427907383 0.261570712784623
0.7679503043681886 12.986759257552508 11837.141626736864 16.3456117219741 0.2652757197053629
0.7911940030898484 12.98814362269917 10289.166059560293 17.109832906911112 0.2690390880475359
0.8147673614879954 12.990664051420865 8956.826342025333 17.907233959232354 0.272863250253288
0.8386509335586544 12.994131133681776 7807.900586136481 18.73918297698364 0.27674931280158493
0.8628307623227282 12.998401117561723 6814.920419979561 19.607018779228248 0.28069770675473504
0.8873102159976834 13.003365524037742 5955.777834658007 20.512829756162994 0.2847148165694474
0.9120656182461219 13.008841869305236 5211.367655903506 21.45840993599257 0.2888036553957954
0.9370858018204318 13.014741128599987 4565.470221664985 22.445246850707353 0.29296417279888937
0.962363758740018 13.020930489995568 4004.729529809982 23.475358946450317 0.2972001132059848
0.9878887064458205 13.027337041127266 3516.6913796175063 24.551171713746122 0.30151760341007056
1.0136306493235467 13.033786831246593 3092.0401291164235 25.674631200645347 0.30591830342103743
1.0395945895521848 13.040241494974678 2721.576139702544 26.84769093537544 0.31040341676172306
1.0657445081470698 13.046565258106902 2398.4927710952666 28.073451165011345 0.3149817056067046
1.0920748251036698 13.052705221097654 2115.9085530087955 29.353970288897436 0.3196536396739645
1.1185734469062292 13.05853581115638 1868.7176985219155 30.69199686203184 0.3244238557005255
1.1452040019570877 13.06398934805631 1652.2224727587823 32.09093823323614 0.3293004626535205
1.1719670015020385 13.069005353791537 1462.155910595717 33.55272574239676 0.33428109557141544
1.1988223266557643 13.073459311370597 1295.506127051704 35.08190606031961 0.339379351089456
1.2257682776415921 13.077324869913479 1149.1637122409388 36.68050769692602 0.3445920235360063
1.2527625930042499 13.080496996987135 1020.2411609768702 38.353578318102954 0.3499335218802029
1.2798037492415824 13.082935088038562 906.765810614641 40.10334991351828 0.3554003833579208
1.306848507384459 13.084518503302057 806.8357591884461 41.93530869363672 0.36100725585662496
1.3338846734616039 13.085237802569088 718.6392024135827 43.85291842291795 0.3667559582955791
1.3608915497688612 13.085037521720238 640.6589009527769 45.86089072073223 0.37265437484787095
1.3878230636800406 13.08377752111001 571.8518478758158 47.96454654223257 0.37871239671308193
1.4146801028336966 13.081486118833913 510.8516779337377 50.168626914529526 0.3849355978065549
1.441402506480575 13.078035351847467 456.91926531521636 52.478380168613164 0.3913310996165837
1.4679964904944056 13.07343738934071 409.0365482319809 54.90020711794185 0.39791051629133917
1.49440618439814 13.067573061804792 366.55702106234384 57.44029648265597 0.4046829069292386
1.520617525544846 13.06042935583269 328.867961407979 60.10527498923656 0.411658040558017
1.5466006356225623 13.051944339722308 295.31242906791823 62.9022467994797 0.4188464545858178
1.572316118023538 13.042066442702989 265.4829435143078 65.83883671438946 0.42625951802402906
1.5977405635444577 13.030739889462312 238.9426699203672 68.92323753618847 0.43390950004039275
1.622828581693677 13.017921502043501 215.25225560752872 72.16426201927939 0.44180964446930815
1.647578983253973 13.003584879828148 194.10873286359765 75.57139989500683 0.4499742509820342
1.6719286129889384 12.987651918256828 175.24562335661557 79.15459800956904 0.4584175839594018
1.6958663540819008 12.970107101841453 158.3741339806273 82.92402476294177 0.46715282158919247
1.7193461186182808 12.9508978618874 143.28783917442075 86.89242579755799 0.4762015548186459
1.7423321670616345 12.929959401194102 129.78931544801765 91.0713963608002 0.485578200262825
1.7648120015668582 12.907315466408502 117.6873060461171 95.47498481277312 0.4953045200368972
1.7867391024862342 12.882881920730284 106.82892318936604 100.11689824139722 0.5053981955854714
1.8080777153973098 12.856629161245941 97.09198352948823 105.0136389438873 0.5158848432926103
1.828788367877962 12.828497744923226 88.33683082124216 110.18174489572431 0.5267869960563977
1.848868749955257 12.798537036345907 80.4689662091834 115.6388255358314 0.5381279559628991
1.8682564046516525 12.76663111827142 73.38669819812573 121.40512347040202 0.5499371885055392
1.886925787736533 12.732785250125342 67.01420483858017 127.50203886430101 0.5622444174765906
1.904849629680401 12.696974487526516 61.26100745448926 133.95202633563613 0.5750789991933116
1.9219926707928454 12.659161531617489 56.079549901208104 140.78071895225236 0.5884770637232692
1.9383074734320271 12.619290406418493 51.39706748839972 148.01581683074747 0.6024769696791106
1.9538051816903268 12.577438267137085 47.16604881832707 155.68585088042713 0.6171146033009137
1.9684227043870537 12.533515962884243 43.34268447912849 163.82442381677296 0.632437425338526
1.9821395039193044 12.487520421523277 39.88266262993826 172.46527032942822 0.6484868825983756
1.9949284924304023 12.439450886602376 36.746526245103766 181.64773655376456 0.6653163497878883
2.0067681190896445 12.389294145092043 33.90514005503167 191.4137848112589 0.6829801266299033
2.0176168534718966 12.337026554693905 31.33046621003026 201.80943880008076 0.701537432888392
2.0274553263009274 12.282646649027296 28.994677813677757 212.8846693099482 0.7210510369928051
2.0362673914445857 12.226187336914856 26.872107979855564 224.69488333783136 0.7415910335002637
2.044015562967815 12.16759840770724 24.94407392633861 237.3012976142245 0.7632347577548335
2.050675874843206 12.106899334349704 23.18906086302132 250.7707287095092 0.7860646753206136
2.056252075280547 12.044158646480701 21.59563327294876 265.1762454119383 0.8101688799517545
2.0607008296612177 11.979316363009925 20.14249717831198 280.5996281027124 0.8356472334450874
2.0640088617475976 11.912426894837667 18.82247771286426 297.13051717345354 0.8626064569579796
2.0661714484619367 11.843533101950694 17.61979786968447 314.86930479156865 0.8911671337225621
2.0671694421408477 11.772647763947152 16.525035806041796 333.92539310861866 0.9214551677811004
