M[M_sun], R[km], Lambda[1], P_c[MeV/fm^3], rho_c[fm^-3]
0.24162668629717493 15.618656898711224 2160425.4255784233 3.5677272577965504 0.1711233750220791
0.25364382074693687 15.277298850014672 1723241.371561792 3.7848164047733315 0.17388813315134144
0.2660395514310936 14.981270775306934 1382992.6216144566 4.011394756658861 0.17666657982034262
0.27881438091692523 14.723529403842221 1116424.7181520564 4.247718505171676 0.17945740160372256
0.29196775404706443 14.49845124884094 905861.7203737808 4.494412752965644 0.18226716325760134
0.3055049156049962 14.301201595433891 738668.6681849961 4.751632353854083 0.18509155633679247
0.3194217125730055 14.128108549609292 605120.5202869431 5.020060845564396 0.18793722714456884
0.333716966025811 13.97599302999548 497684.5341317788 5.299920529339309 0.19080076441124416
0.3483981899675234 13.842050382759135 411019.8237179237 5.591942070579237 0.1936885062735273
0.36345935662805134 13.724037811353595 340661.8447326717 5.896290163315809 0.19659546799344454
0.3789136389076715 13.620016148276955 283313.78834403935 6.213829954059485 0.1995293527566458
0.39474501229174075 13.528472225615825 236416.25892048952 6.544820401133498 0.20248636639221174
0.41097006051578305 13.447885846831936 197879.82588565577 6.889960829392723 0.20547016820082573
0.4275772745439468 13.377075396164056 166090.93631702845 7.249957685829773 0.20848385664623398
0.44457226129422023 13.314958892759535 139809.6227467824 7.62507223220991 0.2115230151009916
0.46195234934225926 13.260606247868965 117989.17792868544 8.016248890544631 0.21459373480385982
0.4797170243316328 13.213168090867875 99817.92143918909 8.424194727202611 0.21769769697919392
0.4978738297658436 13.171996892997154 84646.09174721116 8.849353802578749 0.2208324159303819
0.5164123979812891 13.136399595725766 71941.65167690776 9.292593017905942 0.2240012092837644
0.5353292013890425 13.10585255696364 61279.94415946068 9.754800123320765 0.22720703997340871
0.5546367305262085 13.07982059118524 52304.36413025784 10.236784628138258 0.2304512588090765
0.5743167617251046 13.057864442605952 44732.57600068122 10.739021959372147 0.23373061698533387
0.5943734362342807 13.039546457672788 38330.69597735945 11.262748292254987 0.2370511959226024
0.6148092040092833 13.02450973141372 32903.705538483795 11.80890516684154 0.24041466250144622
0.6356135368016975 13.01243646655888 28294.9448123055 12.378471491319129 0.24382264949801097
0.6567819466300019 13.003039842207654 24372.503594413993 12.97214221617239 0.24727317507145535
0.6783127186345653 12.995983218461868 21029.765775900127 13.591232200148594 0.25077089177963985
0.7002002640865054 12.991062693102212 18174.21229290317 14.236944671031882 0.254318501142933
0.7224346406853417 12.987990691042665 15731.313514589625 14.910469189962091 0.25791798753980655
0.7450205767354197 12.986657140839855 13635.4489730022 15.612842212606841 0.2615693162892375
0.7679409016879244 12.986747591162482 11837.681139300632 16.345316276235124 0.26527424698245444
0.7911844210575224 12.988135700006044 10289.619771689906 17.109513747954573 0.26903753608560654
0.8147569542587738 12.990674183213077 8957.246792862552 17.906889505972863 0.2728616158472013
0.8386402267205579 12.994130045365864 7808.320234418388 18.738814757204953 0.2767476210222239
0.8628201994470973 12.998400882276188 6815.325409740628 19.606622005199508 0.28069592667990034
0.8872936429088403 13.003348005230935 5956.061407437263 20.512402518224956 0.28471294434655864
0.9120539337739275 13.008838698329102 5211.721106566291 21.45795019371736 0.28880168691250835
0.9370742663662939 13.014731898437187 4565.780790002914 22.444756519206017 0.29296213624098527
0.9623517378078008 13.020930134756195 4005.1943744997657 23.474831872451304 0.2971979726018658
0.9878755279979646 13.027329869724491 3516.993758933437 24.550605416372967 0.301515353779441
1.0136174651432825 13.033780252723453 3092.2672795434414 25.674027871947434 0.30591597505939766
1.0395794876008386 13.040239952494716 2721.7763420162228 26.847043199598488 0.31040096973259523
1.0657301001598227 13.046564374219862 2398.6074787841644 28.072755990148007 0.3149791338525999
1.0920615441025536 13.052695605811806 2115.9180577492352 29.353230138753904 0.3196509755879023
1.1185579576728146 13.058533400972568 1868.8680295523195 30.691202900059544 0.32442105494822077
1.1451886751296374 13.06399278973582 1652.3040069344497 32.09009305074098 0.3292975586897142
1.1719505476368526 13.069002517369807 1462.302743769081 33.551819425612095 0.33427804119040594
1.1988044545654681 13.073457691511901 1295.574126545536 35.08093433168305 0.3393761378462911
1.225751202725076 13.077322763420492 1149.2493778456067 36.67947337629097 0.344588686977747
1.2527455576713769 13.080495329957962 1020.297381525865 38.35247230831249 0.349930025847443
1.2797863559209184 13.082932269975073 906.8536316087439 40.10216949885445 0.35539673154930196
1.3068302254982616 13.08452461063358 806.8995934096171 41.93405179789477 0.36100345607037815
1.3338664416999026 13.08523481639029 718.7335766163925 43.851570954449784 0.36675195292243234
1.3608739085448667 13.08503166928278 640.7262233694794 45.85945550289511 0.37265020142936023
1.387803090796026 13.083776542148486 571.8897413196604 47.96301744489723 0.3787080444084622
1.414660610724445 13.081487377113254 510.90589927520733 50.16698717096729 0.38493100306439004
1.4413820151975434 13.078038974629004 456.918395227023 52.476632381831514 0.3913263008489204
1.4679772275567533 13.073442881129916 409.0763287185918 54.89834354908041 0.3979054998991197
1.4943856587276394 13.067578506301249 366.5883416738751 57.438308766003374 0.4046776582621402
1.5205971464879726 13.060435835123432 328.8880925465322 60.10315407610749 0.41165254382812144
1.5465797773087435 13.051952924234193 295.3359464929941 62.89998289649262 0.4188406927727274
1.5722955419914635 13.042075570311663 265.4987594606802 65.83641921551944 0.4262534727705052
1.5977199451901947 13.030749600792898 238.9608904160859 68.92065494789763 0.4339031515374964
1.6228067405986246 13.017932692830087 215.27384706805694 72.16150187793947 0.441802971329895
1.6475589307172769 13.003596363175738 194.12812861216125 75.5684486757287 0.44996723010131046
1.671907969581953 12.987666961354515 175.26451757068247 79.1514564352439 0.4584102547024432
1.6958454541992596 12.9701239436642 158.39037772416177 82.92066218338529 0.4671450943911651
1.719325669095979 12.950914623062319 143.30214314065938 86.88882490357376 0.4761934005654452
1.7423119810691814 12.9299788222112 129.8003546120433 91.06755565352577 0.4855696561028529
1.7647915580079099 12.907336099627221 117.69587305139362 95.47086729434271 0.4952954852820637
1.7867195497715513 12.882905327133411 106.84325952603307 100.11250032660301 0.5053887050761436
1.8080582029083918 12.85665488968737 97.10093967657063 105.0089378279264 0.5158748604630135
1.8287701777512735 12.828525644149147 88.34527587963579 110.17671570411072 0.5267764813545376
1.8488497445720269 12.798566559498223 80.47774712294537 115.63342056762316 0.538116791163692
1.8682368799707443 12.766663409784488 73.39425503325945 121.39933289181984 0.5499254010095562
1.8869076117269257 12.732819964966861 67.0201045579708 127.49583016575625 0.5622319566681513
1.9048312309105078 12.697010772654771 61.266204364852086 133.94538676552617 0.5750658906203463
1.9219754799467328 12.659201058539882 56.08343253750005 140.77358756477622 0.5884631690685361
1.9382898752354152 12.619321059896231 51.39788268726006 148.00815092119186 0.6024622239206776
1.9537889928492218 12.577482961924098 47.169478026501 155.67762879313682 0.6170990216224561
1.9684080622833495 12.533563285818994 43.34720339124884 163.81559572787162 0.6324209343950917
1.9821250459415416 12.487571494778829 39.886243964038236 172.45575495715022 0.6484693135038536
1.994916866555512 12.439503350681976 36.75151592982802 181.63749940512642 0.6652977026796978
2.0067556623425076 12.38935043847092 33.90796465517968 191.40275941007897 0.6829603061339723
2.017605270922404 12.337086370166373 31.332160092417077 201.79755181553634 0.7015163346633799
2.027444730245452 12.282708829938997 28.99628907684335 212.87186973629161 0.721028644904467
2.036258454874851 12.226251502905361 26.874105607140624 224.68105270867486 0.7415671269285061
2.0440060826595396 12.167667127352686 24.946601368041275 237.28636855244022 0.7632093023330844
2.05066903082798 12.10697090404603 23.191606641710667 250.7545933608008 0.7860375256745382
2.0562445068434907 12.04423538341851 21.59667966056517 265.1587509072 0.8101397680794606
2.0606951759084193 11.97939486971969 20.144714064909603 280.58070794686404 0.8356161999858684
2.0640049209649773 11.912506053282657 18.82423558430054 297.10999023678386 0.8625731996425352
2.066170401901684 11.843617543242726 17.62128505379817 314.84700624957014 0.8911314381426081
2.0671671359732353 11.77273655679439 16.525271214813195 333.9011758969443 0.921416918629718
