M[M_sun], R[km], Lambda[1], P_c[MeV/fm^3], rho_c[fm^-3]
0.24162668629717493 15.618656898711224 2160425.4255784233 3.5677272577965504 0.1711233750220791
0.2536463292119384 15.277242365955546 1723109.337114546 3.7848684510406576 0.1738887818829557
0.2660456584370894 14.981151968783221 1382924.528611866 4.011504169357446 0.17666790200823407
0.27882253753727104 14.723406282732931 1116283.4180941612 4.247888986991687 0.17945937893592406
0.2919807482213047 14.498236750818092 905817.52393164 4.494648778605158 0.18226979145787603
0.30552030012326953 14.301016399089683 738508.6221544585 4.751941938776792 0.18509490044480945
0.3194395288075843 14.12793432122067 604943.4191823421 5.020446271427993 0.18794122608666436
0.33374164962898994 13.975714249504708 497551.4598274668 5.300391944869142 0.19080551078340977
0.3484261875805857 13.841815007834127 410874.9263339356 5.59250065399127 0.1936939107216997
0.3634929109613172 13.723762148980027 340519.5092458124 5.896948465754207 0.19660165090925763
0.3789494335047525 13.619810194574372 279270.5793562964 6.2145959436417675 0.19953633765932471
0.3947866121597801 13.528260010696254 236315.81619829175 6.545693283768692 0.20249402039371572
0.4110162798270143 13.447676026129312 197782.22950942174 6.8909574583629585 0.20547865591135536
0.4276289577402401 13.376862076339103 165996.22590109773 7.2510874154348155 0.20849320260973161
0.44462879073326933 13.314745139178928 139725.8720769465 7.626331941102438 0.21153304319376628
0.4620128647612771 13.260399901732924 117913.1004200445 8.017660554121493 0.21460465516290783
0.47978452056060056 13.213012320092924 99754.66831247964 8.425769355859684 0.2177095359854046
0.4979464434939009 13.171850060477604 84593.21416520308 8.851085591327491 0.2208449548208592
0.5164909762853055 13.136272571097706 71897.66323641605 9.294509996509834 0.2240147049326455
0.5354149438968715 13.10573486632513 61242.040058287435 9.756915292336464 0.22722152154011438
0.5547269885609192 13.079718313261479 52269.96216789948 10.239098026623086 0.23046657990699052
0.5744148907917236 13.057753324379657 44297.9779122864 10.741550979518006 0.23374685407806267
0.594476566838879 13.03944336425689 38298.84856964989 11.265517221041282 0.23706849623976656
0.6149212468255882 13.024443618108354 32877.237728665816 11.811930365557686 0.240433060757073
0.6357311853907478 13.012380874069716 28270.1807448458 12.38177034215497 0.24384218223859452
0.6569082041821311 13.002970783094653 24351.696006038488 12.975699570033882 0.24729350744736603
0.678444464249815 12.995950015371815 21013.308138785993 13.595098580443105 0.25079241874925445
0.7003408912189006 12.991043888436357 18157.294507934814 14.241140813557339 0.2543412654209264
0.7225822445389184 12.987994798887781 15716.992961189762 14.915017163034966 0.25794203438781427
0.745176584484144 12.986649989093813 13622.33646922163 15.617721121469435 0.26159425403503495
0.7681028946490636 12.986770635453825 11826.138228209513 16.35059220295373 0.2653005461538986
0.7913560709223163 12.988143757124046 10280.496631373573 17.115213177714093 0.26906525048253827
0.8149380363579432 12.990684748119792 8947.826206454221 17.913040680159746 0.27289080272888805
0.838825401261173 12.99415844809714 7800.200072201207 18.745390390461658 0.27677783265471445
0.8630120046290891 12.998444020710593 6807.487054937456 19.613707612555135 0.28072771533144636
0.8875034442644115 13.003387286189435 5949.33378859052 20.520032210960668 0.2847463788431291
0.9122654557648942 13.008885179641625 5206.006656122655 21.466160419328865 0.2888368407210023
0.9372927730327473 13.014789186852408 4560.898826308851 22.45351307288009 0.2929985059797217
0.9625831993168218 13.021003266661383 4000.2649054025464 23.48424466438973 0.2972362007467408
0.9881110790052697 13.02738097544733 3512.8652211755443 24.56071876288982 0.30155552930412144
1.01386061781851 13.033850825321931 3088.8802363392642 25.684802620323225 0.3059575568884792
1.039830389267879 13.040300610018972 2718.626089195661 26.85861110058198 0.3104446711794842
1.0659904191008314 13.046626714295924 2395.762251632997 28.085171206565125 0.31502506313667666
1.092327627215571 13.05275753197784 2113.424014926828 29.366448662142563 0.3196985541558867
1.1188334413854812 13.058595581722882 1857.1937274852014 30.70538258037844 0.3244710746893661
1.145471519149711 13.064052407493902 1650.077725361295 32.10518760086105 0.32934942207717344
1.1722411547040246 13.0690520453337 1460.4415611178601 33.5680059423331 0.33433259142065547
1.1991028610586774 13.07349990782572 1293.9508852714093 35.098289231923836 0.3394335257964633
1.2260552091098333 13.077370581190603 1147.6649719469963 36.69794628842179 0.3446482777327357
1.2530567409527353 13.080526825905403 1018.9856942236797 38.372143116970115 0.34999198065209236
1.2801055509628247 13.082959342845667 905.5578579920891 40.123251981516184 0.355461953707455
1.3071608803405907 13.084559535905592 805.7481070402483 41.95650041579008 0.36107132164322636
1.3341959689181628 13.085240427752248 717.6679906037319 43.87563745551274 0.3668234910098692
1.3612096859132339 13.085023607038343 639.8052858462371 45.88508944939562 0.3727247414636753
1.3881524483229744 13.083773715889656 571.0398511856953 47.9903283535748 0.3787857800707117
1.414999732503821 13.081436984767167 510.16432581636184 50.19627459177432 0.38501306964503185
1.4417287501237468 13.077992571252166 456.2282357642868 52.50784981147027 0.3914120122145483
1.4683321063267654 13.073370976804613 408.46589169843895 54.93162924995169 0.3979950990195625
1.494745051157167 13.067488936862715 366.0477862262913 57.47381220167117 0.4047714068929763
1.509294018428579 13.05820039633473 343.2765401788314 61.20909050355936 2.326798949382667
