M[M_sun], R[km], Lambda[1], P_c[MeV/fm^3], rho_c[fm^-3]
0.24162668629717493 15.618656898711224 2160425.4255784233 3.5677272577965504 0.1711233750220791
0.2536440330410379 15.27727118649614 1723241.0296299362 3.784821768320095 0.1738882000053644
0.2660400421672403 14.981262695774605 1383024.444948549 4.011406031914911 0.17666671607515777
0.2788155607796651 14.723504085487836 1116451.3949624137 4.247736073607047 0.1794576053710978
0.29196997385730733 14.498419538353739 905908.107341732 4.494437075600389 0.18226743409578422
0.30550540791004005 14.301220696724208 725464.8423676533 4.751664256566512 0.18509190094697395
0.31942154017957175 14.1281423031054 605107.1019932895 5.020100563368712 0.18793763923211826
0.33371965154291144 13.975953854231715 497684.4587169146 5.299969107909317 0.19080125351683772
0.3484010784307813 13.842026992986163 411006.5306726816 5.59199963121449 0.19368906318850773
0.3634644746124653 13.723972392275689 340649.04417390417 5.8963579992096475 0.19659610512251507
0.37891702255030313 13.620025577988843 283294.64709404676 6.213908886134715 0.19953007252213148
0.3947506562185645 13.528419469996027 236405.92338834534 6.544910347449253 0.2024871550998894
0.41097493258125595 13.447863487066693 197867.36903173564 6.890063526372057 0.20547104281139683
0.42758249567690326 13.37705536467037 166084.06491259186 7.250074097180823 0.20848481968750757
0.4445776813711846 13.314931202265496 139805.81894308885 7.625202036193855 0.2115240484241675
0.4619591327458137 13.260569327226525 117981.81013681063 8.016394351269852 0.21459486006016934
0.47972444268189574 13.21314506031813 99810.91478873981 8.42435697896299 0.21769891688560816
0.49788151390997626 13.171982867837347 84637.56492694102 8.849532247135318 0.22083370794521495
0.5164192779876208 13.136408149639607 71939.64073488345 9.292790543068083 0.22400259987322013
0.5353386561383354 13.105834096273984 61276.52410885976 9.755018068375053 0.2272085321406154
0.5546441460320198 13.079826310648272 52299.546358964406 10.237024413752577 0.23045285568772717
0.5743275496470119 13.057849722591083 44730.27080043305 10.739282543682911 0.2337322900173279
0.5943841411176416 13.03951920752624 38328.75143794891 11.263033594099827 0.2370529784936919
0.6148208219416603 13.024502928192694 32623.79793494847 11.809216871665207 0.24041655818684213
0.635624602056805 13.012452247225076 28292.70027031934 12.37881138971772 0.2438246620616505
0.6567950445789779 13.00301648276345 24370.67663231623 12.97250874727753 0.24727527001294916
0.6783293044438953 12.995965387671106 21027.977288989503 13.59163056881865 0.2507731097896654
0.7002153999543266 12.991059303852898 18172.08468526894 14.237377013277449 0.25432084662071563
0.7224493232711086 12.988002988012283 15729.735113068773 14.910937779037425 0.2579204651468838
0.7450378380949106 12.986642678366193 13537.913304760188 15.613344895792347 0.2615718856722389
0.7679582601384666 12.986760361856607 11836.766059957241 16.345859860952885 0.26527695661593675
0.7912020250266961 12.988144730931657 10288.876376522476 17.11010096237337 0.26904039151047765
0.8147770280380432 12.990656437211273 8956.219879303031 17.907523259136788 0.2728646229606486
0.8386593001906195 12.994135652688833 7807.483518050092 18.739492238160025 0.2767507336966744
0.8628396478901328 12.998400416632741 6814.537558710613 19.607352022888854 0.28069920180887437
0.8873202642799025 13.003352581400295 5955.279615297026 20.51318858624131 0.28471638901848806
0.912075730430036 13.008843553399931 5211.212738495644 21.45879606625735 0.2888053086937709
0.9370965845109888 13.014740555346581 4565.247532103939 22.445658672665697 0.2929658832728485
0.9623794909739687 13.020944041950607 4004.5398162285355 23.475801628256303 0.29720191106833244
0.9878991978919224 13.0273453292842 3516.4891133575507 24.551647339110502 0.30151949284385327
1.0136422745568705 13.03378614752206 3091.740711493724 25.675137928467493 0.3059202589812934
1.0396054586475678 13.040241743473512 2721.438365074271 26.84823496059978 0.3104054719910583
1.0657571158157582 13.046569759398686 2398.3165560986063 28.074035034256436 0.31498386559292796
1.0920883881329646 13.052705545587587 2115.805521894267 29.354591932805047 0.31965587721034056
1.118587276494307 13.058534867339256 1868.5450040785408 30.692663702505392 0.32442620802350614
1.1452170299883018 13.06399130165086 1652.1232556946904 32.091648093823544 0.3293029016645803
1.1719803517241034 13.069008331837164 1462.0199816992772 33.55348694978878 0.3342836609188103
1.198836042644726 13.073463539856855 1289.5242202068778 35.082722207310916 0.3393820498662983
1.2257815421558138 13.077329778376292 1149.067115986069 36.681376415095755 0.3445948258863472
1.2527773541699705 13.080492824450893 1020.1719877482942 38.354503132972994 0.34993643403356983
1.279819233447354 13.082939218731626 906.6811125693962 40.10434133670969 0.3554034504900619
1.3068629280339 13.08452261383354 806.7395654168844 41.936364353674726 0.3610104472768516
1.3338999399824059 13.085237808935103 718.6113485255352 43.85405015564117 0.36675932239052156
1.3609078238826624 13.08503668838655 640.6200531272472 45.86209615475864 0.37265788008627393
1.3878389933837438 13.083774833485469 571.7992374060967 47.965830826381215 0.37871605220034493
1.4146957851672222 13.08148268272785 510.81463337968165 50.17000413154859 0.38493945692041476
1.4414188261057925 13.078033175658627 456.8802206876781 52.47984813218533 0.39133513009455445
1.4680131179949136 13.07343497215457 409.01481255632075 54.90177232811852 0.39791472955563784
1.4944224242556008 13.06757203892895 366.525802851787 57.44196596600428 0.4046873152850826
1.5206344068788094 13.060426186000113 328.83515488407454 60.10705634598092 0.41166265726614015
1.5466177960182161 13.051938164166339 295.2894952382295 62.904148255345994 0.41885129394216997
1.5723337588908295 13.04205897944324 265.4588196025654 65.84086717767777 0.42626459544743595
1.597758074478776 13.030732320793163 238.91536915243427 68.92540666065996 0.43391483216903226
1.6228447253812073 13.017912871903507 215.24011133507685 72.1665802735194 0.44181524926697374
1.6475967009826802 13.003573099945418 194.0917966462482 75.57387863900342 0.44998014785526
1.6719465268505815 12.987639306234252 175.23226562570815 79.1572366360928 0.4584237398448939
1.695883149172121 12.970092184991442 158.36261879758277 82.92684901615152 0.46715931171484293
1.7193633465154592 12.950882094832947 143.27826930761893 86.89545021607125 0.4762084036385362
1.7423463599568447 12.92994366522179 129.78246746870389 91.07462220350446 0.485585376575452
1.7648293852843988 12.907296151936928 117.67901572906655 95.47844315562403 0.49531210841332257
1.7867553565534537 12.882859537241506 106.81931772137295 100.12059209568062 0.5054061667627616
1.808093940185641 12.85660915376471 97.0836902212399 105.01758746424301 0.5158932279838621
1.8288046317751496 12.828474489874345 88.33041963506697 110.18596897523773 0.5267958274830222
1.8488845573261778 12.798510732868358 80.4640764256887 115.64336524067606 0.5381373334265764
1.8682619142750168 12.7665734758932 73.38719561210382 121.4099870603191 0.5499470889923035
1.8869412567534007 12.73275592482785 67.00869325685356 127.507253645565 0.562254883500978
1.904863752753736 12.696943546712053 61.25571309847995 133.95760301873864 0.5750900092973007
1.9220068612094974 12.659127516012342 56.075320291191794 140.7867087286236 0.5884887340854372
1.9383208026205454 12.619243151050728 51.391897974959335 148.0222555702199 0.6024893549148331
1.9538178150288945 12.577401576658275 47.1621688712387 155.69275677250025 0.6171276906576818
1.968435310754944 12.5334762402211 43.34262445598989 163.83183871108636 0.6324512764227255
1.9821514051457272 12.487477577861878 39.880024437090135 172.4732624991688 0.6485016392659558
1.9949410960837468 12.439405081846004 36.744598102330805 181.65633497131282 0.6653320119246763
2.0067782156223717 12.38924749094507 33.903944861609226 191.42304531376416 0.68299677434632
2.0176268977663496 12.336976956589805 31.327784027363105 201.8194229824422 0.7015551538272251
2.0272926819833863 12.283231376496468 29.024173507643045 212.97661443201864 0.9130659543684234
2.0294306832091067 12.23580256433633 27.714138570974207 227.06995269327552 1.7473210117152254
