M[M_sun], R[km], Lambda[1], P_c[MeV/fm^3], rho_c[fm^-3]
0.24162668629717493 15.618656898711224 2160425.4255784233 3.5677272577965504 0.1711233750220791
0.2536458135792005 15.277225471714482 1723083.5778115394 3.784858748922338 0.17388866095073133
0.26604384258753583 14.981191051514157 1382914.9082399278 4.011483773209415 0.1766676555328221
0.2788217607411943 14.723380908123914 1116314.7707139642 4.2478572064110045 0.17945901032908046
0.2919788884761985 14.498252185942517 905738.5358914193 4.49460477926304 0.18226930151498982
0.3055164775780463 14.301088133191772 738533.3590920023 4.751884226249629 0.18509427703937006
0.3194366059773031 14.127955218071332 604975.4049231003 5.020374420189978 0.18794048060233792
0.3337371716587701 13.97575793600638 497558.92804731685 5.300304062755334 0.1908046259563465
0.34842096742061657 13.84185909038688 410902.2486408771 5.592396521170134 0.19369290320800925
0.36348641672849435 13.723825515359527 340557.08887348254 5.89682574212272 0.19660049826293963
0.3789430907870904 13.619842604937485 283205.64284054405 6.21445314347703 0.19953503549376492
0.3947786211565316 13.528311566120944 236333.16268899935 6.545530554924161 0.20249259348158508
0.41100759179583046 13.447736026810786 197799.11095539897 6.890771658562139 0.20547707356228373
0.4276194259236189 13.376907416897655 166014.13709799838 7.2508768004444635 0.20849146024589243
0.44461771652005855 13.31480703367683 139748.2526199376 7.626097092663099 0.2115311736491821
0.4620013902327065 13.26042944163774 117928.12517540276 8.017397374853497 0.21460261925849858
0.4797721818965479 13.213038148626964 99762.85243908176 8.425475792678938 0.2177073288006792
0.4979328386226888 13.171881834159057 84604.79182849979 8.850762726336711 0.22084261714037634
0.5164762481613264 13.136305098870098 71907.32960050194 9.294152603349858 0.2240121888625184
0.5353994094982784 13.105741191667624 61245.08150696161 9.756520946766253 0.22721882164160145
0.5547103734001501 13.079751970917131 52276.562235048266 10.23866837697665 0.23046374476215742
0.5743969521732585 13.057768588275131 44706.63091921115 10.741079470947314 0.23374382684698378
0.5944581463610196 13.039453280473083 38304.761060143304 11.265000980657994 0.23706527076050973
0.6149004554306682 13.024449485306352 32881.756284562325 11.811366342345108 0.24042963055488856
0.6357075048064862 13.01240946906202 28274.905982899098 12.38115529469507 0.2438385404969461
0.6568843114678917 13.002982938932194 24355.568879353395 12.975036322808531 0.24728971659820326
0.6784202298038793 12.995955373872947 21014.277853221643 13.59437771233944 0.25078840514878536
0.7003146153403461 12.991037704161796 18160.018088287794 14.24035845769427 0.2543370211021863
0.7225550800932334 12.987983851197123 15718.547704368199 14.9141692040058 0.2579375509087865
0.7451467589971545 12.986640635140635 13624.516644331203 15.616811455249772 0.26158960442472545
0.7680736827838033 12.986763374965566 11827.870354441446 16.349608506760546 0.2652956426750951
0.7913244668273237 12.98814992547494 10282.204765248947 17.11415051235244 0.2690600831007332
0.8149028251065978 12.990686564153068 8949.795899184806 17.911893778879463 0.27288536076432046
0.8387923221479544 12.994149786163458 7801.873999295846 18.744164341087366 0.27677219959221455
0.8629774762864331 12.998436069004528 6809.121345575151 19.612386467914433 0.28072178818864585
0.8874638014849782 13.003385852310544 5950.675145489402 20.51860960947874 0.2847401447828574
0.9122266112729389 13.008887007230875 5207.132035802568 21.464629563681566 0.2888302860404364
0.937251722453009 13.014780648994664 4561.877607347546 22.45188034146637 0.29299172454296546
0.9625406419015621 13.020990192141053 4001.156933088038 23.482489559950395 0.29722907274612026
0.9880673254036991 13.027366685312074 3513.6184789222666 24.558833020397497 0.3015480381444034
1.0138147448659436 13.033829532392545 3089.484417232283 25.682793541111483 0.30594980346487427
1.0397849283230152 13.040285875788145 2719.115335950818 26.856454113608994 0.3104365224711079
1.0659409426312603 13.04662118167391 2396.2073920116495 28.082856210169094 0.31501649895837014
1.0922780671991148 13.052743789819562 2113.7400911339932 29.363983863466608 0.3196896823940474
1.1187816881208983 13.058583826946046 1866.622424474759 30.702738540087154 0.324461747665909
1.1454198479304036 13.064036532570393 1650.519709455954 32.102372951250416 0.32933975121834314
1.1721873358002752 13.06904040836252 1460.7960014885277 33.56498765382348 0.33432241947717944
1.1990476774233416 13.073491195084687 1294.2704828564117 35.09505305171902 0.3394228246258564
1.2259988878668455 13.07735787512083 1147.9412384173338 36.69450161088862 0.34463716573623837
1.245064386620516 13.075327374788275 1052.0288107571923 38.67564988995055 0.9221973475295673
