M[M_sun], R[km], Lambda[1], P_c[MeV/fm^3], rho_c[fm^-3]
0.24162668629717493 15.618656898711224 2160425.4255784233 3.5677272577965504 0.1711233750220791
0.2536446132118429 15.277252344033123 1723154.627520891 3.7848309006656735 0.17388831383564643
0.2660403530052698 14.981250983734904 1382850.497418349 4.011425229997649 0.17666694807265773
0.2788170951210822 14.723468724423855 1116515.1312317932 4.247765986999696 0.17945795232137401
0.2919718607629644 14.498393484818525 905880.914538621 4.494478489327262 0.18226789524724457
0.30550809604356566 14.301189793006861 738632.3709903063 4.75171857690061 0.18509248771025413
0.31942599474175 14.12808075510653 605062.4362591895 5.020168190524111 0.18793834088995723
0.33372240597886094 13.975974915786024 497673.5757604916 5.300051822421544 0.19080208631472764
0.34840598809435636 13.841985567279012 410980.72482471226 5.592097639679782 0.19369001144737064
0.3634686858488642 13.723958339727368 340642.4645446142 5.896473503638052 0.19659718996455
0.37892403248288026 13.61995557495198 283284.57753794244 6.214043284401971 0.1995312980725028
0.39475687206651533 13.528412529439613 236393.8962498622 6.545063500093792 0.20248849804168292
0.41098275399245165 13.447849518378897 197851.6944431648 6.8902383901410875 0.20547253202463264
0.4275918538913891 13.37703896662922 166079.40244162543 7.250272313100937 0.20848645947701627
0.4445882354456264 13.314886245219022 139791.45944382463 7.625423056488997 0.2115258078878324
0.4619699618015006 13.260539334199322 117967.5797206291 8.016642031248724 0.21459677606504657
0.47973594329038355 13.213126376200965 99805.67494661231 8.424633250145796 0.21770099405868282
0.4978944039411813 13.171951574714532 84633.56045528545 8.849836090926924 0.22083590790408864
0.5164333054948747 13.13637558210832 71930.52644263524 9.293126876851044 0.22400496768402015
0.5353530577222707 13.105820143595253 61267.913886625574 9.755389172757388 0.22721107291765386
0.5546609855116569 13.079781022570497 52298.10452797939 10.237432707929473 0.23045557476766923
0.5743446381041235 13.0578318741774 44322.74857472914 10.739726253647017 0.2337351387727416
0.5944025666924866 13.039533044933624 38323.20055120659 11.263519392952913 0.23705601377371713
0.6148401956274947 13.024488526311702 32896.62393347869 11.809747629501556 0.24041978608003703
0.6356468345075362 13.012439265393544 28287.536930647493 12.37939015569927 0.2438280889779734
0.6568176790329636 13.003005538487287 24367.26455823239 12.97313286360433 0.2472788372059422
0.6783506068805382 12.995970167829931 21024.56275843466 13.592308898568774 0.25077688654797864
0.7002395992193667 12.991062405135942 18169.346503207744 14.238113193837878 0.25432484043618525
0.7224757789405627 12.987990895101543 15726.077007277367 14.911735681516383 0.25792468395806173
0.7450643672571398 12.986639256475101 13631.814139992393 15.61420085452615 0.2615762607655062
0.767985857321237 12.986758322422698 11834.288380759052 16.346785468083326 0.2652815705353317
0.7912334408015076 12.988140862422929 10287.128540139734 17.111100863714352 0.26904525369210386
0.8148065946218839 12.99067841738738 8954.610433563252 17.908602408529962 0.27286974344735637
0.8386907922595919 12.994144817567566 7806.26353462323 18.740645849007084 0.27675603394162235
0.8628722093406038 12.998412860358968 6812.830025223408 19.608595095847864 0.28070477869327637
0.8873566952882053 13.003365532462787 5954.280605122263 20.514527104692487 0.2847222546138817
0.9121135680181982 13.008853315979746 5210.232027288748 21.46023642332971 0.2888114758856461
0.9371369837508999 13.014736866560318 4564.445057081313 22.44719486813001 0.2929722637542302
0.9624193408619904 13.020959440618734 4003.7980275316195 23.477452941502374 0.2972086175420777
0.9879407672638791 13.027340852741283 3515.8025419532287 24.55342154336827 0.30152654091511505
1.0136843952844778 13.033800416823233 3091.4284319132853 25.677028155732874 0.3059275537323477
1.0396497345979774 13.04025276521897 2720.847804041586 26.850264320807693 0.3104131385484978
1.0658020352044302 13.046580219807565 2397.6809772834636 28.07621302756749 0.31499192293724965
1.092135695123636 13.052713814018 2115.2339329555616 29.3569108396517 0.3196642238511725
1.1186341537416862 13.05854879192246 1867.9454375242044 30.69515121016037 0.32443498286794553
1.1452674087172838 13.064008449962106 1651.6772141266085 32.094296083162085 0.3293119998951311
1.1720307035396635 13.069014652947672 1461.7100297128477 33.556326483547835 0.33429323044034653
1.1988868774438648 13.073472053019477 1295.0902879066778 35.08576668857276 0.33939211714047046
1.2258356045036227 13.077336743918591 1148.797069166291 36.68461700852081 0.34460527953910336
1.2528322310460385 13.080497151414223 1019.9378807347832 38.35795299062827 0.34994729730460034
1.2798757288067015 13.08294161921742 906.5166540947191 40.10803967266916 0.3554148919059863
1.3069209833741375 13.084518621272949 806.6083978636477 41.94030232112025 0.3610223523490389
1.3339581701419523 13.085240057431903 718.4482405006304 43.85827190896213 0.3667718716247215
1.360967967645264 13.085031766923988 640.4775674757601 45.86659284742511 0.3726709558577185
1.3878994800826308 13.083768560577624 571.6596759256456 47.97062166647781 0.37872968847777666
1.4147496624907678 13.081460205922896 510.7169085703806 50.1751416561904 0.38495385283062805
1.4414800450085856 13.078026199845548 456.749171504422 52.48532418515143 0.3913501652842996
1.4680771288089849 13.073420755539528 408.9112791534876 54.907611158587315 0.3979304466371691
1.4944860819695123 13.067553582056918 366.4352971534094 57.44819378745964 0.4047037601649527
1.5206982242604166 13.06040700074335 328.7498008671992 60.11370151209002 0.4116798794157474
1.5466817356625036 13.051915338357311 295.214532807865 62.91124145338933 0.4188693466951245
1.5723979736807718 13.042032381823656 265.3946551365316 65.84844164148194 0.4262835363266114
1.5978123861499856 13.030694874820524 238.85535615694025 68.93349840522978 0.43393472324653
1.6229095152030288 13.01787558688606 215.17266767458275 72.17522835382728 0.44183615756058764
1.6476622575656552 13.003532757904699 194.04561629011772 75.58312543570638 0.45000214576548286
1.6720110189195103 12.987597439685151 175.18957911343867 79.16707988339932 0.45844670402824594
1.6959478149068123 12.970041425860087 158.32308261120485 82.93738475837183 0.46718352281978015
1.7194280427079334 12.950826105868876 143.24155320707692 86.9067326929117 0.4762339528974956
1.7424067344204537 12.929870117731365 129.7519717771025 91.08665611104243 0.4856121475902018
1.7648920379357746 12.907230714893556 117.64672892477 95.49134443089666 0.4953404166919855
1.786818449915512 12.882788995164853 106.79853389085646 100.13437197250707 0.50543590313913
1.8081563519675263 12.856528410341038 97.05892540274051 105.03231740400192 0.5159245070418153
1.828865195521994 12.828387792606005 88.30518491027873 110.20172692533431 0.5268287731649371
1.848944329290728 12.79841594218528 80.44147611659075 115.66030068081534 0.5381723162019331
1.868319538388986 12.766473414705569 73.36759765637984 121.42813080535383 0.5499840230082534
1.8869967856592806 12.732649635484028 66.98830605813367 127.52665659932167 0.5622937452816866
1.9049195500676857 12.696827519475468 61.240358961939286 133.97840708093304 0.5751310829756764
1.922059724593022 12.659005594934822 56.05847143053284 140.8090539167051 0.5885322710092655
1.9383725280887765 12.619111528595505 51.377401655499 148.04627570985403 0.6025355588484959
1.9538670548641364 12.577263906768307 47.15083411537983 155.71851972494267 0.6171765140314681
1.9684823574330583 12.533325610476608 43.32867194806644 163.8595006123917 0.6325029490842503
1.982196056934168 12.487318173777032 39.869090430449546 172.5030780721151 0.6485566904614339
1.9949810986193712 12.439234324614004 36.734819678582205 181.68841230800345 0.6653904412382358
2.006817156853553 12.389072896247356 33.89453074286054 191.45759273906984 0.6830588806671261
2.0176627911547436 12.336792224559304 31.319788555456544 201.85667030420038 0.7016212641492006
2.0274974501371776 12.28240176170006 28.983861636621317 212.93552707420267 0.7211400096086449
2.0363047876743274 12.225927712399606 26.862040242495755 224.74983813406826 0.7416860241738473
2.0440472955609303 12.167327599242201 24.93564500822648 237.3606171864244 0.7633359030746231
2.0507037473013328 12.106614755997198 23.181257168979347 250.8348416592046 0.7861725529949384
2.0562751700967854 12.043861077422093 21.588569389116554 265.2457592355493 0.8102845549929112
2.0607190299244946 11.979008709902345 20.137237274335384 280.67480703744644 0.835770544395795
2.0640216709400905 11.912104993512296 18.81716615695095 297.2120810298712 0.8627386050200788
2.066179702194062 11.843195825492323 17.614192542192544 314.95790858415296 0.8913089709674648
2.067172361331001 11.772295347821244 16.521626514478093 334.02162126936776 0.9216071524743523
