M[M_sun], R[km], Lambda[1], P_c[MeV/fm^3], rho_c[fm^-3]
0.24162668629717493 15.618656898711224 2160425.4255784233 3.5677272577965504 0.1711233750220791
0.2536448156960832 15.277248224975335 1723157.4576232126 3.7848356273926185 0.17388837275201754
0.2660409682723321 14.981263084868452 1383013.6112348828 4.011435166582927 0.17666706815042665
0.2788171469315127 14.72350092392884 1116398.3913436641 4.24778146967716 0.1794581318971007
0.29197291470477355 14.49837968952938 905862.1883778308 4.4944999244399995 0.18226813393219973
0.3055093257679022 14.301177042201266 738614.1908707529 4.75174669234592 0.1850927914107226
0.31942807032982273 14.12805357128505 605040.2516689635 5.02020319347609 0.1879387040590939
0.33372743011044004 13.975885615940891 497636.76791682263 5.300094634500239 0.19080251736132203
0.3484084398867218 13.841914402399144 410949.4784797408 5.5921483678467485 0.19369050225634088
0.36347293010390824 13.723912519343722 340620.521278945 5.896533287675593 0.19659775146888225
0.3789263291290239 13.619955006179461 283272.52990410064 6.2141128478811245 0.1995319324076728
0.39476061954634045 13.528388890299388 236373.0038814472 6.545142770859879 0.20248919313921193
0.4109869438197847 13.447812073261131 197842.50804265647 6.8903288986454525 0.20547330283303622
0.4275961524134202 13.377001413325454 166054.31871982306 7.250374908781934 0.20848730822479214
0.44459231851532427 13.314878728384649 139780.79542095275 7.625537455847408 0.2115267185802839
0.4619758050151685 13.260518645504586 117960.71211909805 8.016770229857457 0.21459776778492926
0.4797420356255635 13.21310856471065 99795.83586200283 8.424776247818306 0.21770206920127302
0.4978998986454312 13.171948914110532 84624.87565097118 8.84999336046174 0.2208370466027168
0.5164405291790132 13.136361960238501 71928.16275322679 9.293300963588447 0.22400619326550453
0.5353606655673661 13.105827110918623 61263.8846167426 9.755581257218083 0.22721238802954802
0.5546685383678139 13.079781202324908 52295.80155222871 10.237644042375019 0.23045698217263472
0.5743534786224166 13.057825425782141 44720.30189546429 10.739955919856433 0.23373661330094775
0.5944132282719369 13.039489321478458 37988.74301577997 11.263770845101321 0.23705758485129075
0.6148504504413594 13.024482613787987 32894.58907542228 11.81002235326286 0.24042145685887223
0.6356569956074046 13.012437208599996 28285.65123203681 12.37968972944381 0.24382986277634408
0.6568289043017359 13.0030092121362 24365.346571428687 12.973455911627951 0.24728068361597316
0.6783620386258636 12.995982974850664 21022.616172154158 13.592660008689169 0.250778841435061
0.7002525210685335 12.991046867425672 18167.30712174798 14.238494248928259 0.25432690767864796
0.7224895414738185 12.987985874626938 15725.43228798128 14.912148685439643 0.257926867665487
0.7450784124342743 12.986638954347562 13630.491016744878 15.614643909859307 0.2615785253704791
0.7680007452703647 12.986752561398832 11833.03953522372 16.347264575366967 0.2652839587649764
0.7912471041067453 12.988139141459731 10287.279390799753 17.111618427851962 0.26904777043124317
0.8148232531693913 12.990678737845883 8953.712657226697 17.909160993882267 0.2728723938949123
0.8387090806853529 12.994141749078251 7756.10813006202 18.741242977888305 0.27675877743986876
0.8628901994623575 12.998410570340036 6812.131389031533 19.60923853327215 0.2807076653912044
0.887373545812812 13.003373505090362 5953.683484975174 20.515219947985376 0.2847252907606182
0.9121276951438807 13.008878926002188 5209.327611305567 21.460981981934314 0.28881466815168694
0.9371542023506444 13.01474741185824 4563.893681165684 22.447990036097476 0.29297556642926703
0.9624400162525213 13.020959085082538 4003.372040683313 23.478307698835042 0.2972120889655788
0.9879623864864436 13.027352287219028 3515.4576986466363 24.554339913958668 0.30153018916549973
1.0137066172228435 13.03380566886205 3090.8926012635457 25.678006584396353 0.30593132967699477
1.039672578967702 13.040267851495113 2720.592244462116 26.851314770547805 0.3104171069584619
1.0658264773748125 13.046590875291793 2397.449003584585 28.077340416280308 0.31499609363832454
1.0921596511284593 13.052722588362627 2114.9912648256623 29.35811117129859 0.3196685443080939
1.1186600066748098 13.058552087806971 1867.764637300995 30.69643881737377 0.3244395249858257
1.1452926760960478 13.06400850263943 1651.5227582558196 32.09566676303957 0.32931670941618363
1.172057304632645 13.069015524242495 1461.5296281494086 33.557796316176415 0.33429818392785093
1.1989149827516004 13.07347797668928 1294.971167353736 35.087342612351904 0.3393973282931742
1.2258629377924346 13.07734576461474 1148.6177311577399 36.68629444974327 0.3446106907048247
1.2528599682014778 13.08049793674513 1019.8574120478662 38.359738757718205 0.3499529205139712
1.279904458744669 13.082941171846729 906.394968907014 40.10995406565288 0.3554208143983206
1.3069496374130938 13.084527591694584 806.5048484749663 41.94234076029431 0.36102851485948423
1.3339885449246307 13.085235973974456 718.3272037793696 43.86045725197803 0.36677836759434096
1.3609602811971353 13.084999097268517 640.4662072620216 45.981383391313564 0.37296752340689115
1.3815275824461581 13.079450803915652 585.2309911162616 48.2139780060032 0.6984646505048859
1.3916322284428335 13.060125699187983 553.3594557280003 51.05581557996357 0.9780045277729231
1.3951706302023066 13.028070579916761 532.8788499738711 54.39486384087813 1.2379571652979962
