M[M_sun], R[km], Lambda[1], P_c[MeV/fm^3], rho_c[fm^-3]
0.24162668629717493 15.618656898711224 2160425.4255784233 3.5677272577965504 0.1711233750220791
0.25364483034647545 15.277260264972096 1723136.8991841062 3.784848189965628 0.17388852933842974
0.2660426857559631 14.981220579275519 1382951.7564936888 4.011461575868679 0.17666738729105927
0.27881964249326674 14.72343878519763 1116347.6386935096 4.247822619400287 0.17945860917187764
0.2919764926185979 14.498298036599696 905761.9473310537 4.494556894666709 0.18226876830889624
0.3055130864318231 14.301126657374551 738558.8042133466 4.751821417786723 0.18509359858809893
0.3194314891651616 14.128017408723853 605038.2380519371 5.02029622485578 0.187939669295565
0.3337316312326317 13.975854336632285 497573.7304878786 5.300208421439143 0.19080366300699012
0.3484152914086775 13.841906854807833 410932.57843094075 5.592283194728355 0.19369180674351003
0.3634812066747718 13.723843054109802 340645.5307547089 5.896692183996683 0.19659924385675595
0.378934530651202 13.619909687571097 283232.6593057649 6.214297736920133 0.1995336183730877
0.3947704057376854 13.528347306611533 236355.62918985827 6.54535346093895 0.20249104060657702
0.41099791974239225 13.447759277882 197814.45269985305 6.890569457675755 0.20547535153468496
0.42760912175227994 13.376946331508762 166031.19853595822 7.250647594625718 0.20848956408489436
0.4446071777522815 13.314836187328057 139766.10794136333 7.625841515091286 0.21152913908737464
0.46198885220879277 13.260467923056284 117943.73525607678 8.017110966745092 0.21460040366022906
0.4797583355962821 13.213072172642192 99779.67904620938 8.425156319944847 0.21770492681233353
0.4979189448786951 13.17189793447873 84617.9640530591 8.850411366657893 0.22084007314617726
0.5164603968886384 13.136322980970494 71915.59172411232 9.293763669447925 0.2240094507436016
0.5353809801453261 13.10577880104187 61253.314446780096 9.75609180070221 0.22721588348048674
0.5546914529659721 13.079763772555397 52285.71712340219 10.238200812595712 0.23046065942797936
0.5743770969693535 13.057789833957942 44712.78937678122 10.7405663554062 0.2337405324862665
0.594437908426416 13.039495335255893 38314.46987657343 11.264439187855478 0.23706176066891324
0.6148772964760754 13.02446771062019 32889.203826662335 11.810752552364228 0.24042589768771885
0.6356849401001216 13.012420858643518 28280.1281985849 12.380485980450336 0.24383457743763792
0.6568591830774579 13.00300542250277 24360.0163978291 12.974314557970148 0.24728559128636066
0.6783942036873668 12.995965134184868 21018.288171018823 13.593593245270906 0.25078403744631905
0.7002867218583236 12.991038828377157 18164.119182931143 14.239507080768758 0.25433240234081395
0.7225247425171052 12.98800310950398 15721.65888075918 14.913246439188287 0.2579326719033575
0.7451159914334817 12.986651833950653 13627.539602034461 15.615821542111092 0.2615845446453959
0.7680402469631411 12.986750238811165 11829.787657824467 16.348538036426362 0.2652903066489624
0.7912879427849981 12.98815054991224 10284.500673854653 17.112994110468374 0.2690544599099615
0.8148662128325045 12.990680984860111 8951.463112110352 17.91064571469949 0.2728794387890274
0.838755005157837 12.994148891738405 7803.667926002357 18.74283015099961 0.2767660696790898
0.8629383193899381 12.99842129765844 6810.427737586823 19.610948799519733 0.2807153382772488
0.8874235866867235 13.003383545818233 5952.197944038434 20.517061540829083 0.2847333609060028
0.9121827805061468 13.008867060532193 5208.294110718917 21.462963698725577 0.2888231532891077
0.9372056824663471 13.01477329789942 4562.980310259033 22.45010362078075 0.29298434505674875
0.9624941760343559 13.020975452998437 4002.191586018678 23.480579680513177 0.29722131615824526
0.9880185194584373 13.027362992718398 3514.7448308761996 24.556780989277534 0.3015398863989087
1.013765390019824 13.033820994031993 3090.342143500907 25.680607303027056 0.3059413663510608
1.0397328924982465 13.040276543840546 2719.711046840432 26.854106933238253 0.310427655246323
1.0658889055990795 13.046599987635956 2396.710039476798 28.080337096324925 0.3150071796608659
1.09222546960437 13.05273752499376 2103.8981636936965 29.361301746342576 0.31968002841922916
1.118725596804472 13.0585688300347 1867.1493085616678 30.699861387716833 0.3244515983244879
1.1453611692194319 13.064023002494475 1650.8614030698373 32.09931015633004 0.32932922775666984
1.1721278047935915 13.069030613725786 1461.1180732835537 33.56170327830935 0.33431135079306357
1.1989872689918784 13.073483821079169 1294.5307901568485 35.0915315880773 0.33941118010026416
1.2259369635482449 13.077347759472655 1148.2758193999443 36.690753280841705 0.344625074203736
1.25293596785858 13.080511400747724 1019.4716901653309 38.36448554331304 0.3499678676867514
1.2799810394354352 13.082950936033102 906.0613007881088 40.115042770480876 0.35543655715103195
1.3070345766149107 13.084548682831816 806.2047233550771 41.9477592100181 0.3610448956538908
1.334068282146612 13.085242697816106 718.0506751875356 43.86626621095805 0.3667956348246019
1.3610784048203068 13.085028642820133 640.1464747641306 45.87510780877288 0.3726957162086477
1.3880202552273722 13.083776889813706 571.3737803523977 47.97969366480808 0.3787555103135294
1.4148642314617887 13.081455043303041 510.45553567195645 50.18487019125078 0.38498111325797396
1.441597918865154 13.078006551098685 456.5314934067979 52.49569381016154 0.3913786363894146
1.468192976556865 13.073403240181085 408.695973986421 54.91866779927983 0.3979602091254199
1.4946049469283993 13.067524005193246 366.2538432924583 57.45998709011291 0.4047349009814958
1.5208180651231402 13.060370530566788 328.606935497966 60.1262851766895 0.4117124922580424
1.546802105112415 13.051875953850947 295.06659431737444 62.924673600036165 0.4189035325762437
1.5725203625390913 13.041981450803677 265.25615963477406 65.86278521375449 0.4263194041948042
1.5979351292609973 13.030635033856024 238.72862721731045 68.9488216146488 0.433972390667126
1.623043617877908 13.017819426568135 215.06307358070018 72.1916051700916 0.44187575146706454
1.6477834072842992 13.003459800643279 193.93195207239 75.60063612794103 0.4500438032873352
1.672133726952608 12.987511391555868 175.10131552197223 79.18572015844671 0.4584901915766729
1.6960703334434915 12.969948314157524 158.23542270135673 82.95733652750509 0.46722937192713937
1.7195492490155462 12.950721475754428 143.16608469767885 86.92809868872203 0.4762823363657361
1.742531487223512 12.929771545297477 129.67692248807498 91.1094452259854 0.4856628449825782
1.765011871682335 12.907102645328333 117.58164984267847 95.51577625926721 0.49539402557879264
1.7869227768948808 12.882622366928668 106.73717736575766 100.16046778960747 0.5054922167802978
1.808272837512197 12.856377627594956 97.00985888291909 105.06021256334593 0.5159837424711529
1.8289759939594097 12.828223352300247 88.26499931560917 110.2315690667956 0.5268911651444914
1.8490562192504005 12.79824050078914 80.40171050485982 115.6923729411793 0.5382385664245588
1.8684286889069532 12.766282881246662 73.32451335156863 121.46249154925825 0.550053968891035
1.8871048592790953 12.732443102742863 66.95638115393933 127.56336811629758 0.5623672204763255
1.9050238295558763 12.696608587850834 61.207471793889994 134.01780640482227 0.5752088694744152
1.9221602602707153 12.65877101133699 56.02908344953643 140.85137214183206 0.5886147230046206
1.9384694513012022 12.618863354103231 51.35192296520239 148.09176632950653 0.6026230623186969
1.9539617742597937 12.576996314522058 47.12724791972685 155.7673112762567 0.6172689789053113
1.9685688413977898 12.533043783874827 43.30535783466166 163.91188885132385 0.6326008107499521
1.982279663870622 12.487023780845677 39.848583005250816 172.5595455150439 0.6486609514207795
1.9950612408430708 12.438920052201139 36.71664430589602 181.74916370327728 0.6655011007470928
2.0068917274996365 12.388738697554894 33.87754170185788 191.5230227129987 0.6831765049159725
2.0177307009252905 12.3364414997815 31.30405762893655 201.92721418294917 0.7017464725753998
2.0275592892122027 12.282037816706966 28.968796443777325 213.01148763702673 0.7212728980687295
2.0363609271458447 12.225541742815182 26.849762564736636 224.8319186930796 0.7418279023741594
2.044095712889454 12.166923797725449 24.9234307564806 237.44921772428944 0.763486975130667
2.0507465272437413 12.106190422994857 23.170669373155835 250.93060249020914 0.7863336819991295
2.0563101677248374 12.043416847403549 21.578318425624097 265.34943929477305 0.8104568476454043
2.06074606510332 11.978544459192861 20.12716936635405 280.78709841075164 0.8359547283836039
2.0640414959165736 11.911618171472284 18.807757460430047 297.33391047361374 0.8629359905484774
2.066188364070325 11.842688187535957 17.60719560208539 315.09025472255763 0.8915208311045686
2.0671743534493427 11.771773932550953 16.512012716504607 334.16535726278994 0.9218341719944125
