M[M_sun], R[km], Lambda[1], P_c[MeV/fm^3], rho_c[fm^-3]
0.24162668629717493 15.618656898711224 2160425.4255784233 3.5677272577965504 0.1711233750220791
0.2536422708598588 15.277372878369285 1723107.9234548646 3.7848073266243794 0.1738880199965942
0.26603799059887795 14.981313326657096 1353375.8202011525 4.011375672612184 0.17666634920090116
0.278812385135119 14.723583531957432 1116477.686581419 4.247688769619493 0.17945705671612777
0.29196619287373504 14.498468600530149 905913.4091983406 4.494371585660985 0.18226670485010954
0.30550063135445527 14.301294431055341 738671.033229097 4.751578357019343 0.18509097306792277
0.31941631677407856 14.128191992867544 605115.9286223464 5.019993621484931 0.18793652966879826
0.3337128161690268 13.976005471576798 497720.7664263417 5.299838308242714 0.19079993658123093
0.3483930974471347 13.84209134485643 411050.9795771079 5.591844647220849 0.19368756367573464
0.3634550713526749 13.724038267584938 340689.4523278422 5.896175349010873 0.19659438963319528
0.37890726539753183 13.62005479985917 283333.2041872883 6.213696359457846 0.19952813453473722
0.39473770776824607 13.528527944442834 236435.03573701112 6.544668164981431 0.2024850314868191
0.4109622456950597 13.447918038595638 197888.66896077752 6.889787012873579 0.2054686879064094
0.4275692134771188 13.37709703809334 166100.20986625255 7.249760657954328 0.20848222668511435
0.44456282115326656 13.314971266172616 139825.09847331487 7.62485253758022 0.2115212661904761
0.46194215688101176 13.260640331076322 117997.6461021114 8.016002697289494 0.21459183029999263
0.4797048428226224 13.213208500231447 99826.17767320875 8.423920115647732 0.21769563228420113
0.49786064766741167 13.172025379625621 84657.2808294857 8.849051785289998 0.22083022919616926
0.5163969305134042 13.136444466535618 71949.78142572784 9.292258707474423 0.22399885571748468
0.5353134887903624 13.105881105295907 61286.873653152295 9.754431253161169 0.22720451449304174
0.5546190225185995 13.07985728022779 52310.386522684385 10.236378793943679 0.23044855611165702
0.5742996862465727 13.05786788840208 44738.3660952111 10.738580924506264 0.2337277854048794
0.5943546364945845 13.039548253614925 38336.812837626014 11.262265424443877 0.23704817895578048
0.6147901443350104 13.024537669011893 32910.0537328472 11.808377613697477 0.24041145409812734
0.635590223167814 13.01245694776931 28301.5617397159 12.37789622250817 0.24381924328869464
0.6567605545559705 13.003028180590942 24376.637817384737 12.971521873409134 0.2472696294466041
0.6782911087327989 12.995981508260591 21033.421406118105 13.590557974791757 0.2507671378734888
0.7001767294724275 12.991061460642674 18040.77764730304 14.236212948208733 0.2543145315109056
0.722408568366362 12.98800919948957 15733.59524559731 14.909676122546397 0.25791379429343075
0.7449941236219202 12.98666294281792 13637.748363163697 15.611991443923838 0.2615649677240672
0.7679128018037334 12.986752221548933 11838.988912908611 16.344396285624757 0.2652696610600034
0.7911544491503596 12.98813785724547 10291.718134177865 17.108519918454096 0.26903270342928465
0.814727386980894 12.99066335284847 8959.061074237574 17.905816914532227 0.27285652647750946
0.8386072742213918 12.994122248843235 7809.967201736286 18.73766816107623 0.2767423530062772
0.8627846343044282 12.998392254564214 6816.526002901165 19.605386496601454 0.2806903837320154
0.8872585176249195 13.003343500601334 5956.97145004482 20.511072151060816 0.2847071144713687
0.9120173733510054 13.008839075652462 5212.85166753956 21.45651861473168 0.2887955573058583
0.9370351414009321 13.014718460783328 4566.697668659602 22.443229691634976 0.2929557946684989
0.9623119649982877 13.020917387723859 4006.075904362264 23.47319063677252 0.2971913070561157
0.9878342842899914 13.027313783910724 3517.7556417047485 24.54884204796373 0.30150834875386134
1.0135748885711864 13.033776400385053 3093.1718204318895 25.67214919629895 0.30590872488825765
1.0395363997464664 13.040231059278835 2722.4252296424347 26.84502625091811 0.3103933500636718
1.0656856817648768 13.046547981237419 2399.151080391236 28.07059132784215 0.3149711258254632
1.0920131048899775 13.052681520295623 2116.531961192474 29.350925434418176 0.31964268006738933
1.118509208832649 13.05852517961091 1869.211982929403 30.688730639678358 0.32441233388952767
1.1451375623541635 13.063979640628252 1652.5221768474269 32.08746130285406 0.3292885162631915
1.1719008007993548 13.068988595823141 1462.716160525512 33.548997322289594 0.3342685304112381
1.1987536944406574 13.073448483650155 1295.8953918882619 35.077908554280846 0.3393661324207121
1.225697431859475 13.077320586429002 1149.4767625767988 36.676252704887695 0.3445782975903493
1.2526912310048566 13.080488552398938 1020.5537569087942 38.34901969018022 0.3499190887100891
1.2797300083628838 13.082927316321483 907.0260935752215 40.09849393374446 0.3553853605787786
1.3067732545154775 13.08451688555084 807.0937299959786 41.930138093686296 0.36099162434963233
1.3338079170706396 13.085233268230196 718.8571147459053 43.84737523557423 0.3667394810760682
1.3608157250153778 13.085032157032547 640.8869487125174 45.85498656019102 0.3726372063510367
1.3877450523371577 13.083779991516542 572.0452032450394 47.95825619174683 0.37869449234503016
1.4145997946968156 13.081495897208761 511.0397843749362 50.161881403198755 0.3849166961404354
1.4413219058193627 13.078045550546719 457.0689383446323 52.47119020411576 0.3913113586679207
1.467914650388085 13.073454707087924 409.192339835461 54.892540866113485 0.3978898801201626
1.4943231613646262 13.067593782864407 366.6947524494187 57.432119530831606 0.404661315271318
1.5205339223197474 13.0604548137092 328.9703707043155 60.09655011540045 0.41163542846976475
1.546516098028161 13.051975271638875 295.41271103883105 62.89293371838258 0.4188227520540029
1.572232028203402 13.042100670649683 265.58075712738895 65.82889179806732 0.4262346495365245
1.5976554526734503 13.030780947988509 239.02115497744802 68.91261350600602 0.43388338411373767
1.6227363345162567 13.017942839896769 215.32296791390078 72.1529076062672 0.44178219312836076
1.6474944070740354 13.003638807293083 194.17996682002857 75.55925946486167 0.4499453691864266
1.671842865392576 12.987711687261127 175.30675846872916 79.14167453547108 0.4583874336421854
1.6957809447798273 12.97017154714379 158.43300101546254 82.91019216681066 0.4671210343235702
1.7192455239840436 12.950936360991694 143.3468492143344 86.87761287900148 0.47616801084620997
1.7422488918063006 12.93004233506925 129.835689384323 91.05559695382185 0.48554305239785084
1.764729249368246 12.907404150709725 117.73121227629518 95.45804672971683 0.49526735410058154
1.786657093242839 12.88297815998972 106.86925389513274 100.09880673421615 0.5053591548978524
1.8079968684365328 12.856733087355137 97.12651825095018 104.99430020686131 0.5158437774440001
1.828709057382412 12.82861186200746 88.37138366152759 110.16105660996834 0.5267437423541265
1.8487904832912532 12.798657162245572 80.49700551100415 115.61659148983337 0.5380820280962466
1.8681789505128872 12.766765106549727 73.41219810644918 121.3813032134298 0.5498886991914941
1.886851966322732 12.732926575470055 67.03645253543192 127.4764986724959 0.5621931585154265
1.904777185732155 12.697125109320961 61.2853338479742 133.9247137556885 0.5750250756800142
1.921922863917907 12.659324538610308 56.09928475854933 140.75138329416754 0.588419906705533
1.9382402096549196 12.619448915540628 51.41397832746832 147.98428243614197 0.602416311702153
1.9537509192016782 12.57765877395301 47.18289853887435 155.65202867110955 0.6170505068286061
1.9683610715324944 12.533711552903387 43.35778918833017 163.78810885144878 0.6323695886815021
1.9820822180463213 12.487727302599518 39.89797696250884 172.42612827429744 0.6484146110732805
1.9948768695518244 12.43966818731449 36.761520641010165 181.60562552788912 0.6652396439703537
2.0067098715883773 12.389509438262445 33.91718874741929 191.3684313803312 0.6828985942231919
2.0175700743225238 12.33727030081013 31.341745455716037 201.7605413360191 0.7014506447130195
2.0274121025908167 12.282902510647162 29.00351621598135 212.83201801116 0.7209589266956022
2.0362287015132767 12.226453901286503 26.882296316792004 224.637990928138 0.7414926936156926
2.0439799748377996 12.167879591296998 24.952983391274753 237.23988695464425 0.7631300469389699
2.050647004845216 12.107193978496976 23.19764048819426 250.70427583079376 0.7859527339846575
2.056220834807559 12.044445116771747 21.60155917071708 265.1042822271049 0.8100491290312187
2.060681823082028 11.979636733498758 20.150201253397338 280.5218007564318 0.835519578483031
2.06400150937275 11.91277413094996 18.82993520643245 297.0460806567985 0.8624696546715691
2.0661643530834013 11.843879938431618 17.625735896591806 314.77758116151387 0.8910203022314939
2.067165487620678 11.773008788286502 16.530197728350203 333.8257774696047 0.9212978328365189
