M[M_sun], R[km], Lambda[1], P_c[MeV/fm^3], rho_c[fm^-3]
0.24162668629717493 15.618656898711224 2160425.4255784233 3.5677272577965504 0.1711233750220791
0.25364463425168593 15.277279147115493 1723246.2411861545 3.784831780536295 0.17388832480280927
0.2660404439000866 14.981252049720593 1382924.3268684694 4.01142707967149 0.1766669704248745
0.2788168606254956 14.723495385406585 1116485.819512751 4.247768869064582 0.1794579857489835
0.2919720392259633 14.498390063255254 905890.8455179133 4.494482479421613 0.18226793967787122
0.30550790558229474 14.30121776577599 738594.0778273029 4.7517238105191035 0.18509254424332236
0.3194249206594772 14.128112889245516 605095.6655993549 5.020174706230169 0.1879384084929224
0.3337247731926719 13.975890485540925 497650.5301423343 5.300059791770334 0.19080216655284643
0.34840646116201845 13.841981575053573 410978.2399995263 5.592107082580373 0.19369010281003152
0.3634700332221087 13.723943213071834 340651.6287160383 5.896484632255281 0.19659729448687807
0.3789247338805439 13.619954307313908 283284.15653093514 6.214056233424182 0.19953141615199374
0.3947575061314754 13.528422344153709 236386.5795587361 6.545078256088069 0.20248862743181836
0.41098336948894765 13.447828007798206 197842.1260158317 6.8902552379928945 0.20547267550800855
0.4275925458570396 13.37704138321799 166072.51976891287 7.250291410927669 0.20848661746844246
0.44458869448263516 13.314887861594542 139791.69046028025 7.625444351516851 0.21152597740994677
0.4619711788136754 13.26053194471406 117964.27137561781 8.016665894942346 0.21459696067000972
0.47973697432410173 13.213120558327407 98736.55417011457 8.424659868613498 0.217701194192348
0.4978949746283586 13.17195998074496 84633.69026455618 8.849865366031018 0.22083611986835056
0.5164346855007681 13.13637242340088 71929.66467127026 9.2931592823913 0.2240051958210438
0.5353544812543818 13.105818767432362 61266.918917042545 9.755424928478991 0.22721131772025055
0.5546622425481533 13.07980329778991 52298.25727477072 10.237472046931563 0.23045583675007694
0.5743462374016189 13.057819670714888 44722.83348372542 10.739769005006085 0.23373541324970953
0.5944037782518838 13.039521776449357 38321.1885739334 11.263566199640872 0.23705630622275053
0.6148430706061129 13.024481639287119 32896.18377181576 11.8097987680649 0.24042009708782497
0.6356477651758373 13.012438309086521 28288.018467713395 12.379445919938963 0.24382841916217451
0.6568197592147018 13.003009747743933 24366.360588799333 12.973192997439861 0.24727918090628706
0.6783528913851343 12.995969437271512 21024.52540983384 13.592374255989421 0.2507772504405865
0.7002419147664058 12.991058094569091 18168.859568843243 14.238184125324736 0.2543252252429633
0.7224771424368761 12.987995891199713 15725.981333544807 14.911812560071395 0.25792509044396167
0.745066980958192 12.98663922140909 13631.606100789295 15.614283326955489 0.26157668230985887
0.7679889065157328 12.986751744533848 11834.06551634907 16.346874651340784 0.2652820150915022
0.7912358243584259 12.988145577777193 10287.049945019487 17.111197205451308 0.26904572216934663
0.8148116761582086 12.990670821881698 8954.4028530147 17.908706386078983 0.27287023681339173
0.8386939229898419 12.994142573683256 7806.071829078151 18.740757001164173 0.27675654462827254
0.8628777209062217 12.998400811603126 6812.715560419777 19.608714868004945 0.2807053160354089
0.8873603437364501 13.00336070845988 5954.154277232527 20.514656073387506 0.2847228197747002
0.9121163840881814 13.00886241891778 5210.143855585024 21.460375204583897 0.2888120701067873
0.937137959071757 13.014743642521323 4564.216961147251 22.447342883795105 0.29297287852703563
0.9624231581463748 13.020955260924982 4003.642979819888 23.477612049265346 0.29720926372597867
0.9879453514082608 13.027344637271474 3496.4639064597877 24.553592492236582 0.3015272200138156
1.0136884873582217 13.033798068297406 3091.403102884341 25.677210283938713 0.3059282566001699
1.039654025007125 13.040253698660193 2720.7792336662133 26.850459855149722 0.3104138772420322
1.0658063908530468 13.046580963375517 2397.653624504738 28.076422883461035 0.3149926992854522
1.092140459469631 13.052716285998729 2115.1330225801903 29.357134273270127 0.31966502807500985
1.1186392646773027 13.05854924602931 1867.9470550973012 30.695390889378828 0.3244358283519195
1.1452718259512282 13.064002437543216 1651.7079944223822 32.09455122564962 0.32931287653958774
1.1720363849984063 13.069017566838156 1461.7314056091966 33.556600082445385 0.33429415249684047
1.1988932249643574 13.073472095039218 1295.1034602992956 35.086060035385984 0.3393930871588553
1.225840897861891 13.077335631582859 1148.7616805778046 36.684929251899916 0.3446062867879101
1.252837282060425 13.080497511451007 1019.9125362554175 38.3582853978872 0.34994834402319197
1.279880007093467 13.082939792366432 906.4651515615391 40.10839602243218 0.35541599433310433
1.3069254935389647 13.084523391319888 806.5829153222676 41.94068176092392 0.3610234994530503
1.3339642999997494 13.085241085908773 718.3943519659258 43.8586786934956 0.36677308079872845
1.3609734685892036 13.085030574382177 640.4488635807722 45.86702612424803 0.3726722157678633
1.3879065432590432 13.083767791475887 571.6660828409267 47.97108328647496 0.37873100239730273
1.4147552225950266 13.081461690245026 510.67202691928907 50.17563668184508 0.38495523994706543
1.4414871214529739 13.078021683290672 456.7530381320572 52.48585183053363 0.39135161400082746
1.4680825030912754 13.07342091823825 408.90805694530724 54.9081737603577 0.39793196105995327
1.4944917928122823 13.06755494959325 366.4236216874305 57.44879387156664 0.40470534471761244
1.5207044402216694 13.06040257327954 328.7503309742679 60.11434181071853 0.41168153886542747
1.5466880238443268 13.051914780291222 295.2098801570254 62.91192492360081 0.418871086181151
1.5724042580683175 13.042031055983756 265.38856523864894 65.84917148573523 0.42628536139201223
1.597818200898447 13.03069234759715 238.84413482328617 68.93427809399127 0.43393663987272163
1.6229159721882838 13.017871381076985 215.17131093493433 72.17606165051059 0.4418381722055842
1.647668327726136 13.003529586670318 194.04178486338253 75.58401642420631 0.45000426540600924
1.6720170300416295 12.987594162862129 175.18132471543646 79.1680283453457 0.45844891677911576
1.695954278231911 12.970036422597907 158.32086065867003 82.93839994886665 0.4671858557245805
1.7194342250602608 12.950820786355836 143.23774919501 86.9078198386603 0.4762364147477303
1.7424127809683845 12.929865961238871 129.74240624380522 91.0878156645322 0.4856147271699003
1.7648982977002259 12.90722351405426 117.64487856112363 95.49258756425529 0.4953431444041525
1.78682399122373 12.882782503361343 106.7935561986511 100.13569976821985 0.5054387684646734
1.8081623626896148 12.85652101006451 97.05582995327258 105.03373674835125 0.5159275210225162
1.828871169997381 12.82837986872025 88.30482193910038 110.20324532964482 0.5268319477444431
1.848950578075566 12.79840654776988 80.44164418116347 115.66193254970332 0.538175687079941
1.8683252715311225 12.766463379789885 73.36611086574281 121.42987910823047 0.5499875819122287
1.8870028758873212 12.732639191119786 66.98813635653717 127.52852450535653 0.5622974837477263
1.9049250783836233 12.696816651809561 61.239877027649136 133.9804117365567 0.5751350407883176
1.9220642235249243 12.658994269801372 56.0576882142738 140.81120707872324 0.5885364661876831
1.9383768849257594 12.619099230726418 51.3759710006634 148.0485902745273 0.6025400110288016
1.9538715996498066 12.577250631768855 47.151104060652585 155.72100223168093 0.6171812186302396
1.9684860427465827 12.533312116357171 43.32712769461973 163.8621661074638 0.6325079282511967
1.9822010406285537 12.48730500300935 39.868801274915725 172.5059511025359 0.6485619951979753
1.9949868142534857 12.43922358795934 36.734944744199225 181.6915032901838 0.6653960715051361
2.006821235998355 12.389055155823579 33.89373718846309 191.46092174878302 0.683064865267813
2.0176664549920535 12.336773936531802 31.319638796466577 201.86025948757836 0.7016276345956527
2.027500106335688 12.282383857253775 28.98366172529284 212.93939183466858 0.7211467707758588
2.036307909964017 12.22590763848589 26.86200433877232 224.75401425009977 0.7416932426898271
2.0440492986932686 12.167307928561705 24.934998196954687 237.36512500613273 0.7633435893213212
2.0507064714104284 12.106593079863112 23.181169564894684 250.8397137561994 0.7861807508784452
2.056277295091672 12.043838378576826 21.588420461231212 265.25104178011287 0.8102933454539744
2.060720249284791 11.978985239819716 20.136488248495617 280.6805201110716 0.8357799151662465
2.0640232423063294 11.912080331028275 18.81667723775747 297.2182793393073 0.8627486473919853
2.0661798779911598 11.843170634443464 17.614067035351226 314.96464191160374 0.8913197497003699
2.067169842957623 11.772269933651302 16.51948994466086 334.02893403242547 0.9216187023994626
