M[M_sun], R[km], Lambda[1], P_c[MeV/fm^3], rho_c[fm^-3]
0.24162668629717493 15.618656898711224 2160425.4255784233 3.5677272577965504 0.1711233750220791
0.25364381925069424 15.277272626979261 1723268.8053694356 3.7848157777439777 0.17388812533572304
0.26603949810603306 14.98127675194104 1383002.460626366 4.011393438518293 0.17666656389139176
0.27881425870893506 14.723544479216981 1116446.0300600794 4.24771645132542 0.17945737778220108
0.29196773054449643 14.498460043845327 905891.0510216871 4.49440990951952 0.18226713159516883
0.30550479378435436 14.30121147527977 738692.8448456951 4.75162862426032 0.1850915160500618
0.3194196983946565 14.128153480306269 605121.4047422715 5.020056202350264 0.1879371789694301
0.33371819074695996 13.975939795603725 497688.36174952035 5.299914850262354 0.19080070723236253
0.3483978527823648 13.842053229538832 411021.5652445453 5.591935341460647 0.19368844116745382
0.36345889283996974 13.724039491855606 340654.74999137607 5.896282232977569 0.19659539351002955
0.37891324566353535 13.620019478973806 283318.37506755104 6.213820726534251 0.19952926861272632
0.3947445071226276 13.52848736886831 233300.55183835505 6.544809886002286 0.20248627418871626
0.41096905722331983 13.447920505460607 197879.5543600758 6.889948823663179 0.20547006595499492
0.42757679592421655 13.37707524183667 166092.80291123767 7.249944076843155 0.2084837440625754
0.4445714241846605 13.314948215391988 139813.79541812206 7.625057057580467 0.21152289430118398
0.46195163241615206 13.260594278254795 117984.02546622396 8.016231885593026 0.21459360325681123
0.4797162767677273 13.213169777245069 99820.72194211361 8.424175759328921 0.21769755436730037
0.4978728612622799 13.171998422929322 84650.70611737248 8.849332941720748 0.2208322648888568
0.5164105892940255 13.136408774709192 71940.27435162067 9.292569926473467 0.2240010467186402
0.5353274856673355 13.105860969813445 61281.81223663111 9.754774644750535 0.22720686553363031
0.5546347062134199 13.079832202831033 52303.539142652495 10.236756596353642 0.23045107212832616
0.5743156786249618 13.057865706774521 44332.252987378415 10.738991496171323 0.23373042140214825
0.5943726073552875 13.039528047531032 38331.720369395625 11.2627149395209 0.23705098753411627
0.6148083079100438 13.024524236505195 32904.89908791681 11.808868727545669 0.24041444088972969
0.6356113198920929 13.012455917995906 28295.16639169891 12.378431756140976 0.24382241422307266
0.6567796033532562 13.00302730438449 24178.999646192507 12.972099367581976 0.2472729301664834
0.6783126710142195 12.995987689650546 21030.203013669514 13.59118562969446 0.2507706324878282
0.7001991950349822 12.991067273679342 18174.168688765098 14.236894129015361 0.25431822695002665
0.7224328698645386 12.98799668382347 15731.652111195543 14.910414410641168 0.25791769790088764
0.7450188528435175 12.986643359749525 13635.484291100924 15.612783447638412 0.26156901592169923
0.7679388385800884 12.986760794390856 11837.850920536466 16.345252729830978 0.2652739302195678
0.7911823838762453 12.988136669696662 10290.07266261005 17.109445101194463 0.2690372022796579
0.8147547462103617 12.990673505032873 8957.455825595609 17.90681541879271 0.272861264308829
0.8386401480717663 12.994116344552724 7808.672603197444 18.738735558207974 0.27674725714381143
0.8628180599851037 12.99839610685336 6815.540349579045 19.60653666462492 0.28069554381056366
0.8872917154866743 13.003345215899527 5956.193538503536 20.51231062533896 0.284712541657684
0.9120510275138701 13.008839163965625 5211.81956187996 21.45785130966049 0.2888012635196124
0.9370715752560529 13.014727082021984 4565.898764392753 22.444651055887977 0.29296169820640383
0.9623481179492667 13.020929134933647 4004.9327608333197 23.474718506410607 0.2971975121886902
0.987873279013076 13.02732421991246 3517.0411485547897 24.55048361401843 0.30151486991650867
1.0136141864399397 13.033778725701934 3092.243724040721 25.673898104752464 0.3059154742628005
1.0395764176293938 13.040236916858797 2721.8245799959996 26.846903881170586 0.31040044341266165
1.0657274452078669 13.046561202577807 2398.681232789636 28.07260646835945 0.31497858070648693
1.0920582515137691 13.052696369461254 2116.0827644703127 29.353070943526706 0.31965040258283073
1.118554673211711 13.058531536390129 1868.8657533918683 30.691032130815348 0.3244204525486463
1.1451844854390574 13.063986892161148 1652.3544066197037 32.08991126482363 0.3292969340912074
1.1719452995185144 13.069001149241103 1462.2843920601247 33.551624490757305 0.33427738423984665
1.198802657452977 13.07345931335738 1295.6377917602274 35.08072532787083 0.33937544672734515
1.2257467987997814 13.077326057649438 1149.2522603980003 36.67925091001995 0.3445879693359938
1.2527417205889428 13.08049458030443 1020.3523892002414 38.35223382007492 0.3499292703689882
1.2797822075345684 13.082933314022286 906.872137985275 40.10191561032595 0.35539594610301345
1.3068250867780355 13.084520357952346 806.8584446169469 41.933781459639114 0.3610026387968752
1.3338619630934032 13.085240293072733 718.7214024589431 43.85128113563527 0.36675109143103235
1.360869507071299 13.085035661093086 640.7208620111721 45.859146810770824 0.37264930379459543
1.3877999255346014 13.083777273071773 571.9048095473566 47.962688560996334 0.3787071082987142
1.4146560191626103 13.08148838372845 510.9131222412436 50.16663448911166 0.3849300148109642
1.4413788546611066 13.078037971049367 456.9554700197524 52.47625646187575 0.3913252687135669
1.4679720398857317 13.073446683734776 409.07865458679066 54.89794272655646 0.3979044209569716
1.4943809166071773 13.06758105047228 366.5988568398668 57.437881241622435 0.40467652936222925
1.5205923802540346 13.060437881344363 328.89294765834063 60.10269790368939 0.41165136157481097
1.5465754235001488 13.051954913447531 295.3426032128663 62.899495969690406 0.4188394535053034
1.5722909303045893 13.04207851986244 265.50785597375915 65.83589925320622 0.42625217254073244
1.5977153464418141 13.030752537328542 238.96076972081283 68.92009947806439 0.4339017860849163
1.6228023669819143 13.017936859606356 215.274123796386 72.16090821993402 0.4418015360546151
1.6475543657104592 13.003600909067357 194.13122390501027 75.56781392064865 0.44996572003401764
1.6719032704606656 12.987669363957773 175.2621529562768 79.15078073855858 0.4584086783098068
1.6958405752935206 12.97012662370602 158.39395618024434 82.91993895293628 0.46714343240969963
1.7193211538584254 12.95091845514972 143.3039332950098 86.8880504165501 0.4761916467333914
1.7423072922944631 12.92998263498829 129.80137002674655 91.06672958754602 0.48556781841011193
1.7647873177438427 12.907340798279263 117.70011979332232 95.4699816920333 0.4952935420728515
1.7867154874965983 12.88290888475485 106.84881700772462 100.11155441685793 0.5053866638439508
1.8080544289647484 12.856660555067574 97.10376485314877 105.00792670596611 0.5158727133434113
1.8287662662998705 12.828530088348844 88.34878431040747 110.17563402002169 0.5267742198408438
1.8488464942488063 12.798571549615792 80.47984202225713 115.63225806209987 0.5381143898284307
1.8682330691083358 12.766669868871324 73.39420070181164 121.39808744984066 0.5499228657460902
1.8869040091715015 12.732827205515395 67.02197707201316 127.49449479530456 0.5622292765903099
1.9048274849853315 12.697019072557561 61.26627192590619 133.94395872401816 0.5750630712230065
1.9219719716919237 12.6592091308983 56.08483533802058 140.77205374431134 0.5884601806029881
1.9382869993755167 12.619328985524422 51.40067209904226 148.00650213706774 0.6024590524023827
1.953786679173719 12.577492809170009 47.1708919073695 155.67586038774135 0.6170956703172118
1.9684045967477122 12.533573680704146 43.34681947807089 163.81369698536113 0.6324173875283026
1.9821219981104683 12.48758220670271 39.88755523889496 172.45370839596782 0.6484655347523967
1.9949143933397493 12.439513929792572 36.75149538846682 181.63529760670343 0.6652936920733407
2.0067528564325543 12.389362316581359 33.909703872314914 191.40038807715106 0.682956043160328
2.017602813133986 12.337099074031485 31.33274933528369 201.7949951766114 0.7015117968814798
2.0274427741228895 12.282721568609826 28.99669679266282 212.86911682135843 0.7210238288444931
2.036254923350714 12.226269627607476 26.8747266769769 224.67807803891216 0.7415619851410045
2.0440045609107704 12.167681207827332 24.946934844835287 237.28315763683705 0.7632038274270212
2.0506676120542036 12.106986453719857 23.19216884001009 250.75112300291264 0.7860316863840388
2.0562435148842906 12.044251193695128 21.59686203453748 265.15498822929857 0.8101335067648257
2.060694111242323 11.979411878359791 20.144809738234407 280.5766386476207 0.8356095253879883
2.0640041535250284 11.912524728671714 18.824643854654738 297.1055753605298 0.8625660467519413
2.0661699862967207 11.843635690212151 17.62159038025259 314.8422103474179 0.8911237608465437
2.067167271285669 11.772755008522715 16.526142119757584 333.895967339647 0.9214086921295235
