M[M_sun], R[km], Lambda[1], P_c[MeV/fm^3], rho_c[fm^-3]
0.24162668629717493 15.618656898711224 2160425.4255784233 3.5677272577965504 0.1711233750220791
0.2536447219842694 15.277279567577311 1723135.2733371833 3.784833130005588 0.173888341623293
0.2660404086755745 14.981273059445648 1382944.4199705063 4.011429916542059 0.17666700470678112
0.27881681197777075 14.723487677987098 1116486.1830396433 4.247773289329488 0.1794580370173952
0.2919721305349474 14.498375379603287 905891.6887023618 4.494488599089846 0.1822680078217973
0.3055087420195574 14.301191931129436 738665.5239518161 4.7517318374023665 0.18509263094898115
0.31942588983338444 14.128097370677619 605071.6915393032 5.020184699475157 0.1879385121766962
0.3337260205211235 13.97586615445418 497642.30764259555 5.300072014495736 0.19080228961541007
0.3484071867270566 13.841975451735593 410974.42946374224 5.592121565322396 0.19369024293454465
0.36347047132770394 13.723947711269359 340643.7917736917 5.896501700416942 0.19659745479466442
0.37892540575224415 13.61995393201159 283271.5229965567 6.21407609358135 0.19953159725271394
0.39475808031018145 13.528405675857499 236390.02104808594 6.545100887639868 0.2024888258799539
0.41098474036551375 13.447821506631529 197839.30492207856 6.890281077876304 0.20547289557129897
0.42759318784367223 13.377021303872718 166061.02809524056 7.250320701652851 0.20848685978310533
0.4445901763263148 13.314883901166176 139782.91650977224 7.625477012144829 0.2115262374095462
0.4619728337939966 13.260538937680483 117962.72168199782 8.01670249519979 0.21459724380259107
0.47973834282170574 13.213122122201883 99808.76598953028 8.424700693941583 0.21770150114174244
0.4978967441953463 13.171981603400239 84630.096014265 8.849910265914865 0.22083644496269386
0.5164369649364056 13.136369601260412 71932.12129021029 9.29320898351289 0.2240055457200383
0.5353569109203647 13.105836925229607 60677.910387588425 9.755479767870126 0.22721169317975046
0.5546645834548783 13.079799246113518 52297.24951615647 10.237532382105528 0.23045623855879874
0.5743487984423136 13.057815585213039 44320.36545673774 10.73983457381394 0.23373583422176664
0.5944075208534306 13.039499086759175 38322.070798249144 11.263637988231164 0.23705675475916177
0.6148451732684201 13.024486865049179 32617.690192243157 11.809877200588433 0.24042057408842982
0.6356512981395127 13.012417978919764 28055.227816640185 12.379531447010622 0.24382892557431216
0.6568230271639126 13.003003155580883 24366.296016157543 12.973285226301972 0.24727970804864266
0.6783562194082572 12.995982232845776 21024.326117380795 13.592474496437749 0.2507778085525468
0.7002455496673569 12.991052273881468 18168.64319309795 14.238292914907339 0.25432581543175836
0.7224818967453903 12.987996069578532 15726.064340973602 14.911930470878 0.25792571388284297
0.7450709719685159 12.986639217232877 13631.152239108518 15.614409817281187 0.26157732884449947
0.7679933656322074 12.986763856787736 11833.894444506075 16.34701143430332 0.26528269692026407
0.7912393462666887 12.9881419241002 10286.620244930267 17.11134496763426 0.26904644068680583
0.8145009407591328 12.990487608303438 8969.900054872565 17.876870648832384 0.30928324559234377
0.8314221644528401 12.986554480577459 8102.3242345043855 18.855503247002122 0.5012384107958313
0.8421232259991397 12.970899732196285 7536.499962105117 19.956175508531928 0.6627375299298482
0.848843191938277 12.944296041984888 7125.90094980599 21.226740528210698 0.8092097584551192
0.8528462015326401 12.907878242664895 6800.509220592989 22.653092280930878 0.9457320818566216
0.8549616429196412 12.86242369621798 6523.246220339348 24.236667166065143 1.070505945291328
0.85579308202832 12.808720926520659 6269.301750931055 25.97250123640516 1.1843971659117494
0.8557931343277292 12.747302604059223 6024.6285903714015 27.859041802777295 1.2900490548959356
