M[M_sun], R[km], Lambda[1], P_c[MeV/fm^3], rho_c[fm^-3]
0.24162668629717493 15.618656898711224 2160425.4255784233 3.5677272577965504 0.1711233750220791
0.2536438742912212 15.277277521702565 1723267.5121609601 3.7848184132731175 0.17388815818632233
0.26603973650170376 14.981273083169347 1383013.0711060502 4.0113989789274624 0.17666663084396686
0.2788148139578416 14.723525068931497 1116500.8988227895 4.247725084056246 0.1794574779088694
0.29196923697993094 14.498422253446416 905888.8109169835 4.494421861102383 0.18226726467881782
0.3055039288073178 14.301252972277863 738703.8656326014 4.7516443005077065 0.18509168538345214
0.3194215061376777 14.128130951856939 605123.9814345229 5.020075718738041 0.1879373814594859
0.3337187745877512 13.975941417019497 497689.2255491324 5.2999387206038255 0.1908009475670931
0.3483992702239293 13.842041241149733 411014.28400247864 5.591963625354741 0.1936887148219098
0.3634611802923169 13.72400196151449 340665.3732345095 5.8963155658607835 0.1965957065795227
0.3789150148724133 13.620012642169824 283309.8749731911 6.213859511780927 0.19952962228747553
0.39474732034095317 13.528459539892394 236398.2338863188 6.544854083343924 0.20248666173969473
0.41097164781061973 13.447906128211303 197877.9924917069 6.889999286324643 0.20547049571619577
0.42757900785369696 13.377073111131756 166082.5590763312 7.25000127835758 0.20848421727604474
0.4445739388703758 13.314941311507923 139806.3315013385 7.625120839849353 0.21152340204905618
0.4619549677957187 13.260582586227683 117986.04884783052 8.016303361127287 0.21459415617785424
0.47971934746261186 13.213162856895588 99812.33416536376 8.424255485480325 0.2176981537965038
0.49787626798836043 13.171996142742463 84648.22489622221 8.849420624527186 0.22083289974983938
0.5164141793197267 13.136417739647255 71941.18243242966 9.292666984909477 0.22400173001608062
0.5353329178511227 13.105846387825535 61279.39981645149 9.754881736892617 0.22720759874312219
0.5546380204891439 13.079838838438654 52301.65020739496 10.236874420265591 0.2304518567896165
0.5743210544141608 13.057863327721504 44732.33773689159 10.739119539908856 0.2337312434826062
0.5943778758705054 13.0395406265047 38330.423697194085 11.262855128665835 0.23705186343843074
0.6148125150879609 13.024513398481474 32904.04123044719 11.809021890261647 0.24041537237458918
0.6356176265301974 13.0124521296442 28294.162058943948 12.378598772258384 0.2438234031378969
0.6567866255135105 13.003023073085735 24371.945844791135 12.972279470136838 0.2472739595588325
0.6783185116024054 12.995982286096751 21028.833751168993 13.591381376166396 0.25077172235174033
0.7002061123403958 12.991067564489462 18175.37779837185 14.237106568956117 0.2543193794470734
0.7224405358541044 12.988002650275046 15730.636390919733 14.910644661037617 0.2579189153215272
0.7450268055088343 12.98664234844506 13635.092538461591 15.613030450714822 0.26157027843758224
0.7679469016538197 12.986750228476067 11836.885714090835 16.345519830497715 0.2652752616494003
0.7911910097318734 12.988136683396661 10289.564048871058 17.109733639962627 0.26903860534598006
0.8147639526576724 12.990671538097812 8898.748047318635 17.90712682504714 0.27286274190923965
0.8386459526148293 12.994133406213102 7807.76201699567 18.739068450745076 0.2767487866127762
0.8628268928862155 12.998407408595927 6815.222404477351 19.606895371812026 0.2806971531034874
0.887302519992844 13.003345342721204 5955.758899821629 20.51269687360748 0.2847142342574854
0.9120624035394794 13.008839161166419 5211.445796626607 21.45826694366303 0.28880304314404903
0.9370824039323847 13.014733350539021 4565.613472659828 22.445094344258273 0.2929635393739239
0.9623598116300948 13.020928543418165 4004.6506105649837 23.475195012030763 0.2971994474195973
0.9878842907653512 13.027332482581157 3516.870160715594 24.550995579727587 0.30151690371322964
1.0136261353990859 13.033786837973548 3092.1509031344144 25.674443548819244 0.3059175792365008
1.0395895939261717 13.040239478332685 2721.651118841409 26.84748947165901 0.3104026556680799
1.0657402195721073 13.046570533568866 2398.5523447951005 28.073234946356497 0.3149809057198812
1.0920704518265312 13.052696229662521 2115.952967216209 29.353740081621112 0.3196528110691177
1.1185686696182993 13.058536919474141 1868.754162210359 30.691749917696264 0.32442298458838015
1.1452000500608306 13.063993937262383 1652.2240252536442 32.090675357815364 0.32929955943946687
1.1719618453358145 13.06900539325364 1462.1804951200306 33.55244385240221 0.33428014557306973
1.1988167941573515 13.073466189232928 1295.5584049138117 35.08160382529402 0.33937835168016245
1.2257629255387545 13.077326413263483 1149.1793924174528 36.68018599393024 0.3445909857719405
1.2527575730175393 13.080489680123623 1020.2775457149638 38.35323584159017 0.34993244345449614
1.2797988657572346 13.082934553346647 906.7967947932087 40.10298277090293 0.35539924754132335
1.306841804013878 13.084519214274952 806.8209912814177 41.934917763107926 0.36100607401441065
1.3338793882475792 13.08523784344756 718.6612709361605 43.85249932152311 0.3667547125094904
1.3608862632263978 13.085034627628513 640.6829621311148 45.860444326624496 0.3726530767944437
1.3878169840806975 13.083778355662211 571.8636759655083 47.964070948744656 0.3787110430204904
1.4146737527416138 13.08148663721354 510.87626855088206 50.168116906665226 0.3849341687083151
1.441396775814474 13.07803560575592 456.9199068249804 52.477836555991175 0.39132960705999775
1.467990829831037 13.073438001386547 409.0581181742595 54.899627493524264 0.3979089560466502
1.4943995317499204 13.067576209214963 366.5667647277586 57.439678244432535 0.4046812744397094
1.5206105359558837 13.060431292654059 328.8595801329719 60.10461532276815 0.41165633091307763
1.5465942489031974 13.051946545591264 295.32073635451565 62.90154265870058 0.4188446624915533
1.5723099497041964 13.04206956254314 265.4844183633589 65.83808480047303 0.4262576377707188
1.5977341794086588 13.03074457814054 238.9488839915688 68.9224342742604 0.43390752546678574
1.6228211318578363 13.017925288314217 215.25864031920833 72.16340353273219 0.4418075689232733
1.6475728369703577 13.00358873120551 194.1180481274488 75.57048197714316 0.44997206727718964
1.6719219144747608 12.98765623992641 175.24888220395985 79.15362088523916 0.4584153043395192
1.6958596437232853 12.970111433822971 158.37858624631244 82.92297889889085 0.4671504181966495
1.7193398423680726 12.950904158530218 143.29344530243608 86.89130581003153 0.4761990185979428
1.7423257743059324 12.929965799113223 129.7913740077267 91.07020178360924 0.4855755427682832
1.7648054599059915 12.907320951883705 117.68850561202825 95.47370413829454 0.4953017099511305
1.7867317926363964 12.882888135408246 106.8391938980908 100.11553035451693 0.5053952437449278
1.8080717844528262 12.856636735708626 97.09528082395633 105.01217675151923 0.5158817383240518
1.8287826403532061 12.828506803644505 88.3398342523528 110.18018066103407 0.5267837256577589
1.8488627394824682 12.798545132811164 80.47093993914902 115.63714442212796 0.5381244833620955
1.868249401731431 12.766642212374041 73.38746518374845 121.40332241904295 0.5499335222249838
1.8869202934072953 12.732796030515274 67.01627766277404 127.50010776364661 0.5622405417729858
1.9048440702245555 12.696985923510491 61.26122438716358 133.94996121950524 0.5750749220128564
1.9219874037655615 12.659174065888125 56.08129472549038 140.7785008642895 0.5884727420444213
1.9383023765159013 12.619292325283634 51.39738933303428 148.0134324882361 0.6024723832776616
1.9538002366937797 12.577451620193717 47.16673114294275 155.68329354769637 0.6171097568993963
1.9684182058742914 12.533530595483278 43.34308903259402 163.8216779967794 0.6324322961239587
1.9821350571195122 12.487535294658693 39.883521144181664 172.46231074051548 0.648481418041043
1.9949241762655356 12.439467501828453 36.746349110006726 181.6445524673635 0.6653105499303589
2.00676436978356 12.389311557699353 33.90672466950592 191.41035555079904 0.6829739618072468
2.017613549257694 12.337045422173691 31.331457310279873 201.80574155692213 0.7015308706464883
2.0274519771122383 12.282665734755959 28.99448308200161 212.88068821942383 0.7210440723131137
2.0362645619222883 12.226208079799575 26.87220250385623 224.69058155234924 0.7415835977616468
2.0440119113279542 12.16762013681686 24.944548174228153 237.29665417696617 0.7632268402677547
2.0506740302958595 12.10692140209328 23.189975125633236 250.7657100736399 0.7860562308679963
2.056250166490154 12.044182274473865 21.59616729244098 265.17080402916866 0.8101598251746881
2.0606987949748143 11.979340839908089 20.143967794229734 280.5937432905926 0.8356375809835329
2.0640071093742405 11.912450039874837 18.823567982650555 297.1241325934558 0.862596112794387
2.066171779256044 11.843559073539035 17.620573976533535 314.8623691767216 0.8911560311673223
2.067168142437367 11.772676339903258 16.52471379311434 333.91786071610227 0.9214432709688041
