M[M_sun], R[km], Lambda[1], P_c[MeV/fm^3], rho_c[fm^-3]
0.24162668629717493 15.618656898711224 2160425.4255784233 3.5677272577965504 0.1711233750220791
0.25364503683578943 15.277268435023982 1723273.8286291116 3.784839331566754 0.1738884189227612
0.26604187817648756 14.981234983185018 1382885.8743439058 4.011442953557037 0.1766671622514132
0.2788179269131573 14.723460624942918 1116433.9883119753 4.247793602959273 0.17945827262488875
0.2919736765115151 14.498335039444841 905811.5986373195 4.494516722481406 0.18226832098228943
0.30551047034253265 14.301172901598422 738570.7829989332 4.751768725592599 0.1850930294118378
0.319428307042947 14.128072871617391 605045.7399442293 5.020230624298099 0.18793898866445957
0.333726213158612 13.975933723369966 497639.5206643662 5.300128185162984 0.19080285516082524
0.3484105412601522 13.841946963461726 410957.0611320155 5.592188122187284 0.1936908868905216
0.36347455670814205 13.72390715675922 340626.80144559435 5.896580138932883 0.1965981915058055
0.3789282659812784 13.619962762866072 283251.11023949675 6.214167363120328 0.19953242952101374
0.39476375434432776 13.528397901652351 236372.1083997002 6.545204893549265 0.20248973787127422
0.41099026957758783 13.447796114399125 197834.58918476207 6.8903998281928835 0.20547390689882658
0.4276009573388254 13.376987636261635 166048.00725652944 7.250455310898698 0.20848797337089883
0.4445970660734176 13.314864135767051 139783.1610704678 7.625627108374004 0.211527432272042
0.46198030300046516 13.260532775795253 117960.6083968992 8.01687069672243 0.21459854497735378
0.47974624232239993 13.213107841576276 99791.15317024078 8.424888312586747 0.21770291177166803
0.4979058225630589 13.17196208472682 84626.70839347324 8.850116609985873 0.220837938981932
0.516446019039083 13.136360102485682 71923.78615538149 9.293437392658275 0.22400715373466146
0.5353670985954259 13.105796886311484 61260.22509857162 9.755731791025363 0.22721341866367484
0.5546760077225424 13.079781195452789 52291.715250686924 10.237808574922713 0.23045807115490347
0.5743603711743462 13.057805940628336 44718.91911342944 10.740135906381957 0.23373776887019446
0.5944183168120116 13.039500058081405 38319.02319752851 11.263967905254518 0.23705881608669396
0.6148582647680396 13.024478906646705 32892.65822830877 11.81023765139559 0.24042276623073622
0.6356650085653004 13.012429072425652 28284.260060283945 12.379924502558014 0.24383125288537416
0.6568378571030151 13.003012235104013 24364.112369999442 12.973709081594194 0.24728213063168297
0.6783715438934701 12.995966529005209 21021.229875950263 13.592935171041777 0.2507803734653199
0.700262526429109 12.991054678619816 18030.85999936712 14.238792879320775 0.25432852776310205
0.7224993837121811 12.988001991647529 15723.979601376866 14.912472354350852 0.25792857902502847
0.7450894324923325 12.986638763418535 13629.869754314635 15.6149911302743 0.2615803001309201
0.7680111419616483 12.986761944020706 11832.344358645103 16.347640050023493 0.2652858304119669
0.7912601823329418 12.988142856166387 10286.782301934642 17.112024041542846 0.2690497427932696
0.8148375016476211 12.990669706316186 8953.309895445691 17.909598756374965 0.2728744710466386
0.8387220899343167 12.994139059860608 7804.998405993382 18.7417109473934 0.2767609275176108
0.8629053228287493 12.998420619943158 6811.693937164052 19.60974279542382 0.28070992769745745
0.887387863875486 13.003372060721237 5953.059491963064 20.51576293026268 0.2847276701931481
0.912148483469581 13.008866036744699 5209.321884640109 21.46156627806442 0.2888171699385115
0.937169729110555 13.014760156322572 4563.423874058305 22.448613211889988 0.29297815474672667
0.962455123504566 13.020968978294 4002.960927818033 23.478977575924695 0.2972148095354798
0.9879794535951936 13.027353764178821 3515.1678490270842 24.555059646026713 0.3015330483193332
1.0137236410573305 13.033810364555968 3090.5554671967707 25.678773385157566 0.3059342889088098
1.0396906605508103 13.040263607795284 2720.351765105692 26.852138015830583 0.31042021703089884
1.0658445241570864 13.046595104883725 2397.1941282257744 28.07822396045065 0.31499936225240505
1.092178884270529 13.05272377285546 2114.8062237932427 29.35905188254086 0.3196719302909664
1.11867918514157 13.058559470427626 1867.5696386097313 30.697447928745273 0.32444308469157745
1.145312700946849 13.064015961674627 1651.3599790341482 32.09674098058397 0.32932040032186
1.172078099699845 13.06902336160293 1461.405030596918 33.55894824255177 0.33430206603850443
1.1989366168198983 13.073480371379382 1294.8370710980535 35.08857768552681 0.3394014123453345
1.225884397452288 13.0773423550302 1148.532406526839 36.6876090851238 0.3446149315150611
1.252882009303717 13.080508160597747 1019.6720028250138 38.36113829138953 0.34995732751133374
1.279927196801229 13.08294165830146 906.3154992546149 40.111454407754536 0.3554254559555512
1.3069727592352274 13.084523768865491 806.4164523890771 41.943938321507275 0.3610333445290605
1.33401213952039 13.085236812362881 718.2710423553773 43.86216994705755 0.36678345860985795
1.36102175101413 13.08503192593787 640.3068909467328 45.8707447543912 0.37268302903918193
1.387955373949288 13.083767130542395 571.5305237262448 47.97504517926415 0.37874227922310755
1.4148064823324562 13.081456755836761 510.59612572683955 50.17988528852934 0.3849671450112009
1.4415378570908377 13.07801789573148 456.67759214625636 52.490380405517435 0.39136404777102257
1.4681335464406162 13.073412059018713 408.80921837332625 54.9130023592283 0.39794495877970837
1.4945442871831054 13.067539381444025 366.3523358482721 57.453944174615245 0.4047189443552282
1.5207564610203121 13.060390621376845 328.6944126841862 60.119837268422266 0.41169578133780216
1.5467404062308865 13.051895589806476 295.13876645665545 62.91779091662298 0.4188860155997596
1.57245754485079 13.04200755419692 265.3254153303798 65.85543550105967 0.42630102533344505
1.5978720819955683 13.030666078499086 238.795103028637 68.9409699190067 0.4339530896764487
1.622970101341262 13.017845719292062 215.1271986378158 72.18321358707966 0.4418554633019166
1.6477222918244563 13.003496726637376 193.98549712230715 75.59166352501005 0.45002245767759796
1.6720709241240257 12.987553200668982 175.14239438418144 79.17616873583665 0.458467908216999
1.6960070261194615 12.969993102383603 158.28196874712853 82.94711306738706 0.4672058784455637
1.719486035439891 12.95077713999744 143.19857778750887 86.91715054713589 0.4762575442116316
1.7424683301877293 12.929820298988597 129.71550582190122 91.0977678464593 0.48563686711142157
1.7649495131753006 12.907167512103737 117.61022136587181 95.50325711294717 0.49536655577637695
1.7868759887937968 12.882726673433224 106.7606152277405 100.14709597458707 0.5054633609836034
1.808212788357569 12.856454755587933 97.03524141874495 105.0459187191353 0.5159533894630105
1.8289262185478692 12.828320062116898 88.28578298412873 110.21627753667391 0.5268591946226727
1.84899879534028 12.798328377391515 80.42061054773173 115.67593863297128 0.5382046188148448
1.8683723064200963 12.766381312932227 73.34724691404699 121.4448845548027 0.5500181275025671
1.8870480594164336 12.732551371802451 66.9697382223025 127.54455651654827 0.5623295705488122
1.9049698273056295 12.696721544965174 61.224601943211276 133.99761748724063 0.5751690102825058
1.9221086676331405 12.658891037522347 56.04383653749959 140.82968748242223 0.588572473041831
1.938419395788381 12.61898933654362 51.36451353861409 148.06845602553113 0.6025782237892403
1.953912601915522 12.577131873197708 47.140271667006026 155.74230945979158 0.6172215979603929
1.968525426646905 12.533190941827865 43.318591197734605 163.8850439617484 0.6325506642731287
1.9822367495220827 12.48717686460649 39.85794989962515 172.5306102835175 0.6486075256794787
1.9950207628593262 12.439084076409026 36.72615796588981 181.7180332064725 0.6654443961155141
2.006853048608015 12.388909849922852 33.88470362208255 191.4894947218507 0.683116231244178
2.017695407784411 12.336620456708904 31.310866481448723 201.89106561063917 0.7016823124253122
2.0275274720339445 12.282226510885712 28.97612780145759 212.9725633230675 0.7212048023102255
2.036331837020252 12.225739990846376 26.856505001137837 224.7898582148483 0.7417551998362186
2.044071409401024 12.167131894443823 24.929885654023487 237.40381610701792 0.7634095612025554
2.050724620852696 12.106407724801349 23.17652708218812 250.88153159502465 0.7862511143731711
2.0562916849147763 12.043644576662285 21.58334605627295 265.29633508537336 0.8103686402827013
2.0607320258383712 11.978779168394137 20.132927957719563 280.72955642747115 0.8358603461382444
2.064031876182443 11.911867492662468 18.813011370873255 297.2714806733365 0.862834843085787
2.0661855143545527 11.84295050607554 17.61023787851757 315.0224355856702 0.8914122660054095
2.067170563677915 11.772045042296384 16.515323986018917 334.0917013186969 0.9217178383143129
