M[M_sun], R[km], Lambda[1], P_c[MeV/fm^3], rho_c[fm^-3]
0.24162668629717493 15.618656898711224 2160425.4255784233 3.5677272577965504 0.1711233750220791
0.2536448567889333 15.277238962407216 1723105.011550546 3.784835594898624 0.17388837234699558
0.26604097923747944 14.981255876044571 1383037.7899498504 4.011435098273578 0.1766670673249485
0.2788173650677855 14.723477597511103 1116389.3753603844 4.247781363240946 0.179458130662601
0.2919728356302989 14.498360877865208 905838.7106009561 4.4944997770834325 0.18226813229135017
0.3055093151150183 14.301176949680661 738614.8232712022 4.751746499064967 0.18509278932291942
0.3194280534889114 14.1280539171775 605048.6481706909 5.02020295284646 0.1879387015624686
0.3337276391518682 13.975915296105175 497641.2853204621 5.300094340186114 0.19080251439806714
0.34840846597015734 13.84196197048793 410953.26666357415 5.592148019112739 0.1936904988822434
0.3634728105234932 13.723914325567145 340644.29567335837 5.896532876686103 0.19659774760878196
0.37892672864419197 13.619953352057399 283271.1242821582 6.214112369661811 0.1995319280468885
0.39476064589887544 13.52840187773565 236379.70733159463 6.545142225906713 0.20248918836070887
0.4109868930525614 13.447814256432762 197836.14391812062 6.890328276437065 0.2054732975340485
0.42759616165631215 13.377011257062144 166060.29150729498 7.250374203478679 0.20848730238999907
0.4445918697909598 13.3149077822106 139782.45972629872 7.62553666939816 0.2115267123196422
0.46197576252572015 13.260522295584941 117960.46023540315 8.016769348543285 0.2145977609672516
0.47974234679028954 13.213103288174482 99795.28651161585 8.424775264765735 0.21770206181009197
0.4978999299617745 13.171949901010603 84625.9989591829 8.849992279295073 0.2208370387746082
0.5164404938024576 13.136366570053331 71927.85672443222 9.293299766809161 0.22400618484010373
0.535360617123434 13.10581455384958 61264.754861811474 9.755579936710365 0.22721237898865318
0.5546685108009829 13.079781209894506 52296.01535148907 10.237642589529921 0.23045697249725314
0.5743533619112832 13.057811796380282 44721.1710205465 10.739954340986309 0.23373660316411246
0.5944129356228709 13.039491383325041 38321.96180026413 11.263769116459674 0.23705757405070643
0.6148512659368198 13.024493042207054 32894.55204853617 11.81002046463599 0.24042144537286975
0.635656285947329 13.012420328293974 28284.95031951464 12.37968766998073 0.24382985058211037
0.6568288238758079 13.003005538626626 24365.42454166378 12.973453690786169 0.24728067092255224
0.6783623505202342 12.995968742070865 21022.7327660949 13.592657594928571 0.2507788279958887
0.7002525169928836 12.991067246240029 18167.557584415714 14.238491629304411 0.2543268934670608
0.7224883983980721 12.987991455015676 15725.052183396245 14.91214584617637 0.2579268526532318
0.7450783107762211 12.986638959067252 13630.494055550584 15.61464086400084 0.261578509802071
0.7680009503512771 12.986753897064702 11833.540467904562 16.34726128166089 0.2652839423466777
0.7912483542580666 12.988143294880603 10287.322497399815 17.111614869764928 0.26904775312947077
0.8148234663808281 12.990677383411816 8953.57771673803 17.909157153784793 0.27287237567392436
0.8387088832384028 12.99414016920887 7755.797739549156 18.741238872813774 0.27675875857917537
0.8628902051224928 12.998419373140617 6812.017622548659 19.60923410983757 0.28070764554604316
0.8873734349753826 13.003366082546659 5953.62360637654 20.515215184897077 0.2847252698880267
0.9121282255423241 13.008869087595993 5209.287379032781 21.46097685644029 0.28881464620580577
0.9371532399866954 13.014754996317437 4563.861040407985 22.44798456955047 0.292975543724343
0.9624398351065375 13.020962531039025 4003.408585056504 23.478301822624218 0.2972120651005407
0.98796167898326 13.027351639625335 3515.405585265254 24.554333600420115 0.3015301640848082
1.0137063108485402 13.033805708981847 3090.802770205423 25.67799985797135 0.30593130371842525
1.039672199265878 13.040262954281046 2720.581468067272 26.851307548992313 0.31041707967672566
1.065825547969786 13.046593034874455 2397.399867532805 28.077332665784358 0.31499606496586985
1.092159459420792 13.052717273326621 2114.9537800747594 29.35810291933421 0.31966851460608886
1.1186594600099844 13.058552595168283 1867.7470749111521 30.696429965405745 0.3244394937599349
1.1452926785376676 13.064010810178452 1651.5220917194322 32.09565733996228 0.3293166770394182
1.172057194198345 13.06901766128498 1461.5168477473183 33.55778621144083 0.33429814987385015
1.1989149554928837 13.07347406639408 1294.9215867516157 35.08733177825698 0.3393972924677594
1.2258632715683575 13.077345850409793 1148.6343451932062 36.68628291773276 0.3446106535043439
1.2528600058613653 13.080504470004824 1019.850388248049 38.35972648098468 0.34995288185571427
1.2799042824622104 13.08293822250522 906.3926195993034 40.10994090463496 0.35542077368252795
1.306949806718163 13.084527120293126 806.4921051200214 41.94232674647708 0.3610284724935917
1.3339882051828766 13.085236408634955 718.3265127417939 43.86044222821631 0.36677832293595136
1.3609983747387184 13.085033132938086 640.3855795782096 45.8689045124708 0.37267767786565537
1.3879303061479844 13.0837664063557 571.5946538914745 47.97308455255398 0.3787366986465863
1.4147811232361562 13.0814608802301 510.64164222617217 50.17778277379605 0.38496125353321625
1.441512163332718 13.07801810136581 456.7098391554242 52.488139341026226 0.391357894647584
1.4681080011442058 13.073416626970221 408.86000964256647 54.91061281982266 0.39793852656937767
1.4945182025156003 13.067546908663063 366.3877374272695 57.45139543109076 0.4047122142680894
1.520730590517449 13.060398038678734 328.7194943716138 60.11711771552896 0.41168873312470644
1.5467147952270588 13.051903700578919 295.1752197439035 62.91488799388094 0.41887862743058846
1.5724311507098423 13.042019569958766 265.3630029221403 65.85233560559092 0.4262932736632215
1.5978446620030125 13.030679381522484 238.81614896589574 68.93765830948345 0.4339449490979738
1.6229426908246118 13.01785704041391 215.15254905722932 72.17967427778159 0.4418469063834607
1.6476956117146457 13.003513163359186 194.02069877596654 75.5878791688578 0.45001345478399457
1.672041691678165 12.987576201206663 175.15326639166122 79.1721402605717 0.4584585098302946
1.6959808985490343 12.970014748644607 158.30157832040547 82.9428011599967 0.467195969694939
1.7194610219455484 12.950797686723757 143.2214952463271 86.91253300600934 0.4762470877528534
1.7424430164566205 12.929853636784095 129.7253526586791 91.09284274976899 0.48562591058414856
1.7649247829098689 12.907198279170256 117.63475199955218 95.49797700415564 0.49535497003869733
1.7868514417549608 12.882753779766828 106.78343968729546 100.14145625580285 0.5054511907151394
1.8081883531662515 12.856487264255637 97.04609960482793 105.03989013909431 0.5159405877606571
1.8289008439574987 12.828355638929695 88.29481560940557 110.20982818894996 0.5268457107521585
1.848974757610926 12.798367682918535 80.4284121318306 115.66900732919291 0.5381903011330478
1.8683498712594342 12.766421028207986 73.3577818545273 121.43745868174204 0.5500030111462945
1.8870249376413943 12.732595625234314 66.97961032193423 127.53662261268855 0.5623136914683938
1.9049475329223389 12.696768920742969 61.232756095907014 133.98910271679893 0.575152199481841
1.9220860751528057 12.658946004515643 56.05095357315159 140.82054190402025 0.5885546539772163
1.9383988105048364 12.619043945185322 51.37054390847514 148.05862485727855 0.6025593130479753
1.9538924908803825 12.577190623804741 47.14469485073033 155.7317649235993 0.6172016150087855
1.968506801601005 12.533249143843966 43.3231738647488 163.87372214250695 0.6325295150206948
1.9822188878050306 12.487240349167415 39.86301360029096 172.5184069062999 0.6485849934777361
1.9919631174051986 12.442997345168703 37.22205040234683 182.46070371985536 1.2579724198941384
