M[M_sun], R[km], Lambda[1], P_c[MeV/fm^3], rho_c[fm^-3]
0.24162668629717493 15.618656898711224 2160425.4255784233 3.5677272577965504 0.1711233750220791
0.25363973238706755 15.277421544768293 1723284.7533788863 3.7847586415235113 0.17388741316029835
0.26603280555849323 14.981431218956265 1383198.454618781 4.011273328105291 0.17666511242793495
0.27880388083186186 14.723729941003478 1116649.314257852 4.247529304562244 0.17945520716177238
0.29195480401757146 14.498634665594107 906119.449441699 4.494150816944548 0.18226424653921428
0.3054856123046159 14.30148263990738 738823.8735584826 4.751288790121705 0.18508784519278154
0.3193962785297891 14.128446739449746 605269.7619426281 5.019633124836978 0.18793278937693683
0.3336918941916482 13.976186615706665 497885.99470162095 5.299397392854648 0.19079549729488404
0.3483679377706456 13.842293995185333 411180.4228865629 5.591322213732011 0.19368250898801362
0.36342505324083485 13.724268118172377 340814.00040258444 5.895559662502186 0.19658860697521255
0.3788721336848911 13.620291018208274 283450.8809056296 6.212979971459457 0.19952160193877921
0.39469970777402386 13.528712108061042 236540.9964033867 6.5438518207758 0.2024778732509627
0.41091889104270324 13.448116567185439 197991.78823306493 6.888854956019893 0.20546075011912093
0.42751941555493045 13.377314815097932 166200.0883916854 7.248704144834138 0.20847348642283214
0.44450963172956176 13.315148234174252 139900.21130468982 7.623674489655769 0.21151188817151514
0.4618835480151716 13.260789564741447 118064.96884623298 8.014682570633019 0.21458161805302822
0.47964118055441446 13.21336501868871 99884.57218769997 8.42244761936079 0.2176845611706354
0.49779221092262926 13.1721699267771 84708.84836492587 8.84743234981756 0.22081850379141726
0.5163230569235404 13.136575643321141 71997.61243201321 9.290466130653146 0.22398623586490876
0.5352340856858655 13.105998710989613 61329.22110079473 9.752453384771984 0.22719097295910265
0.5545333174813345 13.079943266765332 52348.58958314252 10.23420274564341 0.23043406447885642
0.5742059632176513 13.05795143206522 44770.95423306359 10.736216151778907 0.23371260283145484
0.5942583985335347 13.039648776175438 38363.473240572675 11.259676372261724 0.23703200251089412
0.6146859345896695 13.024587547223275 32934.70379471932 11.805548992233197 0.24039425136017378
0.6354788685413595 13.012505590519439 28323.51188286369 12.374811788256368 0.24380098012461554
0.6566422965621139 13.003091251113617 24397.14336090477 12.968195790246085 0.2472506189191687
0.6781660967971913 12.996034686626452 21050.90095776695 13.58694302262725 0.25074701078834044
0.7000458094758727 12.991078602608429 18192.817345979143 14.232289750812026 0.2542932479735568
0.7222699889496218 12.98803352283928 15746.849147583285 14.90542405900065 0.2578913120306369
0.744849036945836 12.98665564330455 13650.324759339373 15.607430046721808 0.2615416528872647
0.767759435352837 12.986748051363806 11849.762035429476 16.33946379950653 0.26524507385381424
0.7909955176161362 12.988112406568824 10232.862832240175 17.103191596861617 0.2690067936057015
0.8145597380694171 12.990642233969645 8968.383727436982 17.900066370597546 0.272829240557723
0.8384329371560217 12.994100628599558 7817.049705126008 18.731520897354304 0.2767141095101546
0.8626043901022952 12.998358429639335 6823.462733701202 19.598762605563223 0.28066066651039634
0.8870699134710934 13.003291181184828 5963.448035355474 20.50393976344011 0.28467585924292055
0.9118201706868967 13.008790628837618 5218.140677766205 21.448843679409098 0.2887626954553684
0.9368308294227253 13.01466859609489 4571.544827099533 22.4350441739681 0.29292179668823776
0.9620990357930119 13.020867677353374 4010.142839090421 23.464391844716918 0.297155572547202
0.9876122770324496 13.027263291687529 3521.4970837360966 24.53938858172375 0.30147079462026105
1.0133510817576143 13.033730147169136 3096.6730234982056 25.662077641452125 0.30586985681843176
1.039300824590858 13.040174207089736 2725.5481504449913 26.83421351931251 0.31035250151070953
1.0654450937319229 13.046511401990253 2401.797512904644 28.058986824730557 0.31492819572242875
1.0917638811008898 13.052627773750311 2118.907848085528 29.33857027860434 0.31959820909256387
1.118252235550355 13.058468282072063 1871.4584494876171 30.675477372262854 0.32436558212992916
1.1448749999477104 13.06392992745121 1654.6348482602527 32.073323297421624 0.3292398488708978
1.1716284312752692 13.068943573977274 1464.4107713539959 33.533868892304355 0.3342175460423814
1.198474877555196 13.073404977270531 1297.5337394102576 35.06168845432436 0.33931249694743504
1.2254121970124248 13.077287566654821 1150.8744704239832 36.65898799129419 0.34452260429681686
1.2524005733723504 13.08045690184681 1021.9703864581322 38.330511796248274 0.34986045975944646
1.2794331500164522 13.082904370783815 908.2278232005633 40.07879109157014 0.35532440656738556
1.3064694204931169 13.084508480944987 808.1477628263532 41.909158889934055 0.3609282010383539
1.3334983816442583 13.085229028913169 719.8377219489016 43.82488454999942 0.36667262712721377
1.3605005870184839 13.085041661237927 641.7943072992795 45.83103150293793 0.3725675482985933
1.3874250665066 13.08380065079685 572.8157446857025 47.932734483372755 0.37862184932441084
1.414273736698176 13.081529503104083 511.72412088934465 50.13451330487901 0.38484000771291665
1.440999998528067 13.078114433759815 457.67361083331184 52.44201914662688 0.391231265873507
1.4675813956523842 13.07352126787732 409.74412874020067 54.861437735632435 0.3978061560866836
1.4939862689358605 13.067677828654263 367.1923093693423 57.398944757721885 0.40457371559261546
1.5201943940052434 13.060556677214194 329.4330349405263 60.061152738331785 0.411543689766236
1.5461743315811567 13.052098258956734 295.8309173077079 62.85515035509237 0.4187265903905187
1.5718883595627062 13.04224695736547 265.9802382737075 65.78854551237079 0.426133758682424
1.5973044896846893 13.030934786105904 239.36078221495126 68.86951255939637 0.4337774336278024
1.622395740077805 13.0181566643533 215.62738112789108 72.10684408101702 0.4416708262496394
1.6471476013952133 13.003849428378409 194.4582049575099 75.5100077439099 0.44982820050946515
1.6715025351865034 12.987953390475788 175.5660594330478 79.08920874201254 0.45826496162565805
1.695437300778861 12.970441509879421 158.6739133580063 82.85407687400091 0.4669920815441277
1.7189010555581972 12.951228437609522 143.5576505742657 86.81752143621061 0.476031933293841
1.7419164878630793 12.930388840163053 130.03736768825493 90.9915043432079 0.4854004699308767
1.764395954365785 12.907773098015008 117.90848062827315 95.38933583451907 0.4951165870541203
1.7863242753756765 12.883371462202803 107.03135913095943 100.02541773547786 0.5052007846224668
1.807130184627726 12.857247315266408 97.46507794314867 104.96144626523649 0.5962277065341927
1.8249631429233775 12.828229177461186 89.5154255474436 110.35785331448213 0.7261056449929073
1.839782837106854 12.79502886297371 82.84360616907541 116.26027023338952 0.8585417364153363
1.8516996662451255 12.756928827660872 77.16222489738801 122.70676221411594 0.9940178754506666
1.8609224275670315 12.713719826491813 72.26657802464518 129.73935546797344 1.1330176502514373
1.8676609949809546 12.66542531266236 67.99616347450039 137.403853963671 1.2761576068225025
1.8721029259224706 12.61211785769562 64.2402982145412 145.75125146855743 1.423942204655532
1.8743853621066584 12.553790519663986 60.89941950120199 154.83738070409962 1.5770691510518533
1.874676455408565 12.49069252940707 57.90953913396675 164.7240937049638 1.7362043557517848
