M[M_sun], R[km], Lambda[1], P_c[MeV/fm^3], rho_c[fm^-3]
0.24162668629717493 15.618656898711224 2160425.4255784233 3.5677272577965504 0.1711233750220791
0.2536409447674076 15.277374142108519 1723312.9510963957 3.7847799574305663 0.17388767885279666
0.26603485059785625 14.98138615294325 1383152.8802460558 4.011318137600711 0.17666565392424236
0.2788078557605102 14.723657468638542 1116629.5888357626 4.2475991228022405 0.1794560169481425
0.29195994638672224 14.498553118204864 906041.885249945 4.494247475165833 0.18226532285094146
0.30549383802773533 14.301342422990214 738787.5442197453 4.751415569335089 0.18508921465024786
0.31940553869071125 14.128313782950254 605232.8505037249 5.019790958036185 0.18793442695729662
0.33370052783265053 13.976140866430095 497815.219298823 5.299590434189311 0.1907974409008106
0.34837752970968866 13.84223353630745 411125.71301924175 5.591550944258959 0.19368472201878345
0.3634388959852804 13.7241441746377 340731.79577810323 5.895829219576253 0.19659113871229655
0.37888827087138033 13.620169868777218 283399.2013064135 6.213293615750641 0.1995244619970625
0.3947159238244639 13.528643765378579 236488.10470858292 6.54420922572611 0.20248100720954648
0.41093735924173747 13.448062774326095 197947.27690718285 6.889263019455703 0.20546422535857747
0.42754079890966384 13.377230846968741 166158.63943192537 7.24916669433077 0.2084773129762765
0.44453294905804486 13.315065584673262 139864.84618735744 7.624190245932388 0.21151599392310722
0.46190934864472827 13.260714854399897 118039.74769553448 8.015260527245239 0.2145860890146816
0.4796698789888426 13.21329400651617 99864.5149694733 8.423092281145156 0.21768940812603316
0.4978215129864529 13.172112544859342 84684.71241428638 8.848141339115573 0.2208236371768627
0.5163549455137506 13.13651731391334 71974.38075578277 9.29125091786073 0.22399176081577593
0.5352691345939988 13.105956248828322 61311.24109159401 9.753319288563091 0.22719690139480617
0.5545701884697557 13.079902392975459 52331.4629674496 10.235155407770797 0.23044040883699013
0.5742490722442671 13.05792735296536 44757.83256045063 10.737251432583722 0.23371924965491161
0.594299205146204 13.039595400027729 38354.358240819434 11.260809836160714 0.23703908441384652
0.6147312169503393 13.024574379683301 32923.7083097811 11.806787332110364 0.24040178253275143
0.6355272345940215 13.012491091756317 28311.975314550058 12.376162114416454 0.2438089755060076
0.6566939726760559 13.003056795377223 24193.475794260077 12.969651901981159 0.24725894145673966
0.6782211256591641 12.996002379884292 21042.942729660157 13.588525590335427 0.25075582210134434
0.7001022588139851 12.991072233665644 18185.93275682125 14.234007255972605 0.2543025655228758
0.7223305598852761 12.988004953208012 15741.69563918856 14.907285527877617 0.2579011543182754
0.7449126694132594 12.986663021885287 13644.600126225201 15.609426928657276 0.2615518596231347
0.7678263495105718 12.986754840168812 11844.922185234958 16.341623126980412 0.2652558375596935
0.7910647288596667 12.988124361224449 10297.01705748299 17.10552420187391 0.26901813627398996
0.8146343828237584 12.990644415280366 8963.751951724453 17.902583803079526 0.27284118559484494
0.8385081013318668 12.994117365560447 7813.471227479312 18.73421199355124 0.276726473704769
0.862683938607421 12.998366561384863 6820.467537043419 19.60166234301459 0.2806736758035719
0.8871525825074326 13.0033230464871 5960.820011231462 20.507062091600194 0.2846895417690427
0.9119070256072229 13.008802159000732 5215.783513407645 21.452203502666766 0.28877708124559665
0.9369219081326657 13.014686273221093 4569.320286353324 22.438627499931677 0.29293667978425403
0.9621916766945642 13.020888809410653 4008.200313837391 23.468243623175297 0.29717121576399635
0.9877095076693774 13.027289947473678 3519.871050730621 24.543526933347643 0.30148723432669505
1.0134466464282659 13.033744088209787 3094.798112266334 25.666486551789358 0.30588687165253137
1.039403999378997 13.04019235455854 2724.167835887603 26.838946864804633 0.3103703832376474
1.065551160174512 13.046532286247055 2400.5689862094678 28.064066750316663 0.31494698857609266
1.0918737203300222 13.052648529243813 2117.938706353151 29.343978785939147 0.3196176763981287
1.1183655770027967 13.058491849251709 1870.515163945407 30.681279003760125 0.32438604776097213
1.1449927028546902 13.063944947424739 1653.7819470859606 32.0795289957598 0.32926126163731645
1.1717472796726844 13.068967431767565 1463.656899199018 33.5404913217715 0.33423986431248676
1.1985968100931848 13.073425864596452 1296.8367183697137 35.068788725301616 0.339335975618669
1.2255376595837129 13.077297782092204 1150.258854501746 36.66654550727464 0.34454698367349146
1.2525270365229277 13.080466097084287 1021.2626390738053 38.33861346649124 0.3498861240747135
1.2795636781553976 13.082915152206212 907.7219507819045 40.08741580526323 0.3553510885502213
1.3066022019225636 13.08450917212395 807.7122079155407 41.91834227995293 0.36095596381765843
1.3336338358523339 13.085236641820233 719.3367449165045 43.834729522335195 0.36670189147644044
1.360637896246817 13.085038722167349 641.3611473700665 45.84151743833191 0.3725980399743123
1.3875647254358343 13.083793466811713 572.4748584488342 47.943906146481034 0.37865364748390834
1.414416626238394 13.081513293991708 511.420225575973 50.14649312744369 0.38487357649594667
1.4411439243478488 13.078094224263884 457.40281751508087 52.45478812023659 0.39126632469091827
1.4677279444339368 13.073491219872322 409.5106749009766 54.875052368375655 0.39784280422949003
1.4941339123125366 13.067638348533906 366.97549308566084 57.41346613336679 0.4046120600248925
1.5203430665182662 13.060512198664174 329.23274298824464 60.07664692584492 0.4115838457549673
1.5463239566774523 13.05204487192368 295.65038459898017 62.871688859004124 0.41876868219784347
1.572038707865549 13.04217917892596 265.79143727343734 65.80620576853475 0.42617792032697827
1.597460847280474 13.030875954363207 239.21155137806903 68.88837848124288 0.43382380972263296
1.622547602352214 13.018075675749328 215.50126183634092 72.12700666202721 0.4417195729250594
1.6472996338612595 13.00375857556901 194.33801986846328 75.53156572274771 0.4498794864302325
1.6716491330122762 12.987848663960905 175.45043301863493 79.11219477194811 0.4583186576911567
1.6955880063806104 12.970323510147335 158.55984362115925 82.87863885795423 0.4670485249117163
1.7190512051611007 12.951099683506257 143.46672468592593 86.84382365233257 0.47609149487242075
1.7420569136909532 12.930230487379244 129.94718877594997 91.01955774273794 0.48546287841874586
1.764543597909206 12.907614058878787 117.82476043018725 95.41941047976688 0.495182577541136
1.7864704720195135 12.883197511632005 106.9571682090756 100.05753980755341 0.5052701026604292
1.8078116139866174 12.856972816325587 97.20845247342076 104.95018868486557 0.5157501065345808
1.8285370958134166 12.828893311930074 88.44356010791597 110.11368288247247 0.5266443958581313
1.8486124937330444 12.798936189663415 80.56888280602716 115.56587669375536 0.5379772688278801
1.8680045547406694 12.767064354630035 73.47683615954631 121.32697081963384 0.5497780983483266
1.8866819186152604 12.733252517772744 67.0943011289536 127.41824374829402 0.5620762413473775
1.9046120952386951 12.697470877518088 61.33632197711863 133.86241667815077 0.5749020819058838
1.92174705834477 12.659645148213396 56.14853620118376 140.68447243489652 0.5882895389067593
1.9380926067223896 12.619873679618262 51.457916766174066 147.9123572558695 0.602277960039398
1.953588840236445 12.578028926637675 47.22260192282913 155.5748860380272 0.6169043138168285
1.968220738153683 12.534154600760806 43.393602199833765 163.70506866459988 0.6322141461182014
1.9819506078507114 12.488204429977946 39.92964639249395 172.33685381603726 0.6482497755471703
1.9947492794541186 12.440164251883505 36.790464295189174 181.5095804826596 0.6650646965887282
2.0065953277847406 12.39003808565972 33.948333401573436 191.26499229670392 0.68271264054199
2.0174629523104755 12.337824084263664 31.36652692767101 201.64902049041274 0.7012527062126926
2.0273145644620882 12.28348691208363 29.028294840727423 212.71193702666736 0.7207488521974494
2.0361397884034393 12.227067356295963 26.902286342803546 224.508238853866 0.7412684140663546
2.0439026408559586 12.168523104171518 24.97214598568347 237.0998319036661 0.762891240211376
2.0505804760480486 12.107866352419272 23.215422259171135 250.552602466923 0.7856970469772518
2.0561655123570843 12.04514665104172 21.618402559129137 264.940164894626 0.8097760282549579
2.060637729947846 11.980370496169847 20.165297670163834 280.3441392617135 0.835227891722758
2.0639708987421717 11.913540895882225 18.843616529407768 296.85352188925606 0.8621576749652557
2.0661458418611587 11.844676171370029 17.6388152505232 314.5684069428218 0.8906854554487703
2.067161306215593 11.773839201656225 16.542569453509124 333.59860878289595 0.9209390380419691
