M[M_sun], R[km], Lambda[1], P_c[MeV/fm^3], rho_c[fm^-3]
0.24162668629717493 15.618656898711224 2160425.4255784233 3.5677272577965504 0.1711233750220791
0.2536451231481208 15.277248775875243 1723046.9476602257 3.784851915300961 0.1738885757729375
0.26604299229294354 14.981205526316261 1382933.569082752 4.0114694073651105 0.1766674819300718
0.27881986760872396 14.723442045577169 1116344.1815802418 4.247834822110468 0.17945875070492667
0.29197715167009886 14.498290688114205 905778.0113068526 4.494573788903434 0.18226895643014313
0.3055145832503997 14.301110953870287 738553.7731660176 4.751843577308257 0.18509383795322357
0.3194331791234655 14.128010200697936 605000.4199605094 5.020323813004086 0.1879399555332517
0.33373342266585887 13.975808977985292 497563.7872885242 5.3002421646758116 0.19080400274539322
0.3484172927483185 13.841890105349204 410921.46261064906 5.592323177414184 0.19369219358699427
0.36348329549550285 13.723827543328676 340595.4602616629 5.8967393045652585 0.1965996864231078
0.3789383228605509 13.619875372094643 283230.01863384264 6.214352565758132 0.19953411834607201
0.3947729924223099 13.528327431511434 233223.69499205705 6.545415941231719 0.20249158847433787
0.4110013879845833 13.447746548945448 197812.34945158 6.890640795819979 0.20547595908025706
0.4276119551490393 13.376942655865426 166031.1158264253 7.2507284602421995 0.20849023306541545
0.4446113207127245 13.314826709358119 139759.59932616522 7.625931684778826 0.21152985689606638
0.4619930714028693 13.260469126559055 117930.59460890223 8.017212013565604 0.21460118533907857
0.47976282477586096 13.213063330627376 99774.132689037 8.425269032076454 0.21770577424999454
0.4979233665699077 13.171895302709421 84608.72318384668 8.850535328598154 0.2208409706835896
0.5164663171126728 13.136315476933301 71913.1180078939 9.293900887664847 0.22401041676840328
0.5353877832626397 13.105767023261233 61249.799200674126 9.756243205847223 0.22721692008025293
0.5546982761546977 13.07975685107179 52283.042966316156 10.238365771784421 0.23046174795021002
0.5743823569795449 13.057807656334315 44710.60237122322 10.740747385090875 0.23374169475291812
0.594444615372503 13.039499695004405 38310.2660960416 11.264637390904666 0.2370629990451513
0.6148858227685261 13.0244600046499 32887.85886080462 11.810969100021827 0.24042721465877884
0.635693841114218 13.012399564069288 28277.72586569633 12.380722117046362 0.24383597561994502
0.656867946317932 13.002987169131687 24358.295115309746 12.974569199104618 0.24728704671066476
0.6784034803973193 12.995957920205779 21016.815849898245 13.593870007674392 0.2507855783852326
0.7002964082314798 12.991052613393132 18163.2288490871 14.239807448855993 0.25433403185234665
0.7225345211777329 12.987992607895828 15719.822064066602 14.91357199276968 0.25793439322786066
0.7451270320165554 12.98664375651694 13626.501993185357 15.616170785468308 0.26158632974577567
0.7680519604752719 12.986764785390486 11829.185050765522 16.348915700121637 0.26529218920776204
0.7913018161320866 12.98814505652609 10284.086726765117 17.11340209051875 0.2690564437787929
0.8148790777598821 12.990683755226327 8950.811192837531 17.91108603285054 0.27288152806716987
0.8387674435124056 12.994145190927656 7803.347929077858 18.74330085403381 0.2767682323159837
0.8629518330254359 12.998429529813414 6809.890374889076 19.611456009212233 0.2807176138072587
0.8874380615160361 13.003378634464495 5951.523907964432 20.517607699159786 0.2847357542564911
0.9121986220212797 13.008869574735366 5207.708813463185 21.463551414928823 0.28882566971969503
0.937223213517875 13.014769030924436 4562.669954847337 22.45073044626624 0.29298694853295515
0.962511087862327 13.020990571239608 4001.872614101207 23.481253483544357 0.2972240526725613
0.988035210664224 13.027361117038213 3514.1739658707565 24.557504942435717 0.3015427623211295
1.0137833407854862 13.033829505092026 3090.0960761717406 25.681378603483733 0.3059443429480672
1.0397509569228693 13.040286576491164 2719.4966231512167 26.854935012879547 0.31043078358209586
1.0659065460879318 13.046609655075136 2396.6424584547235 28.081225832673443 0.31501046748307127
1.0922423321744494 13.05274447087056 2114.1526883870874 29.36224798892089 0.3196834343115152
1.1187459359372431 13.058572898722623 1867.0595341977344 30.70087643694599 0.3244551789764173
1.1453814202005494 13.064033346616164 1650.8046535295214 32.100390698579204 0.3293329403934089
1.172148388204316 13.069030913369344 1461.0240685913375 33.562861991966386 0.33431525577755616
1.1990086016364476 13.073494247355702 1294.4534537647753 35.092773943924065 0.339415288234246
1.2259584777209107 13.077352642601683 1148.1554165375946 36.692075672797685 0.3446293400354841
1.2529578177238363 13.080515902816787 1019.409033741592 38.36589333961637 0.34997230070235
1.2800047398120817 13.082951158808466 905.9685347891813 40.11655197727459 0.3554412261326583
1.307057732371262 13.084551241599664 806.1282894481877 41.94936621639097 0.3610497538776164
1.3340918569174263 13.085238442474964 717.9933421080311 43.86798903999768 0.36680075596348927
1.3611022471808856 13.085030017587005 640.0874863194599 45.87694284958861 0.37270105225806843
1.38804317222537 13.083779551099044 571.2905256753204 47.98164875793809 0.3787610751396952
1.4148899024784667 13.081449160839336 510.4020312938644 50.18696678227211 0.38498698813706483
1.4416229771648972 13.078004533561954 456.49332503038784 52.49792856980962 0.39138477220211615
1.4682193174069393 13.073394811059217 408.67726758986106 54.92105062617058 0.3979666232668677
1.494631003562622 13.067517778386522 366.2232695254009 57.46252868482846 0.4047416121918404
1.5208442211416584 13.06036375809563 328.56737797962677 60.12899711359584 0.4117195207329307
1.5468288368489596 13.051864183726186 295.0376719550184 62.92756840627078 0.4189109000882581
1.5725471725927755 13.041970646550903 265.22779746944923 65.86587645617813 0.42632713422702323
1.5979606010048781 13.030624810517333 238.69616327456365 68.95212399566051 0.43398050856012965
1.6230696299068814 13.017806922456325 215.0345766709351 72.19513463331094 0.44188428458084955
1.6478121045995482 13.00343978535422 193.91770610670812 75.60440997488703 0.4500527811797859
1.6721597839558575 12.98749384662852 175.0806455620349 79.18973746345773 0.45849956390330265
1.6960964237656921 12.96992819667612 158.21787413181275 82.96163650095588 0.4672392532536057
1.7195769454875753 12.95069888963112 143.15017402010113 86.93270347440348 0.4762927639397069
1.7425536083324629 12.929734718530675 129.66997384604787 91.11435674028077 0.485673771294022
1.7650372907940641 12.907074940104264 117.56680626617897 95.52104183594552 0.495405579429771
1.786948492279496 12.882592599403745 106.72517225572372 100.16609201415721 0.505504353612876
1.8082978537299121 12.856345039976262 96.99721270597762 105.06622461131441 0.5159965090676156
1.8290008960450321 12.828186478937674 88.25212242141508 110.23800076228864 0.5269046121088865
1.8490802846865482 12.798202638591862 80.39281715857285 115.69928531631274 0.5382528450063072
1.8684529236376315 12.766241231125841 73.3199017125948 121.46989718437796 0.5500690440502762
1.8871281032009963 12.732401358102582 66.94561915040309 127.57128043735752 0.5623830563604788
1.905046327488786 12.696561139520387 61.20101950916857 134.02629806293618 0.5752256346441685
1.9221826013235146 12.658721308178116 56.02220911474007 140.86049295178256 0.5886324938108729
1.9384907227032377 12.618817464905614 51.34669838044277 148.1015709348465 0.6026419219648779
1.9539791809542464 12.576940290736038 47.12105673264549 155.7778273836944 0.617288907981583
1.9685883279382117 12.532983020775063 43.30087538772388 163.92318021502143 0.632621903111177
1.9823001535828884 12.486963339354402 39.84415137502821 172.5717161505403 0.6486834231685138
1.995077856793827 12.438852037038407 36.71194558178697 181.7622577465135 0.6655249517284068
2.0069064026391343 12.388666588511345 33.87268887144033 191.53712523324486 0.6832018571857533
2.017744642219113 12.33636536134767 31.299965795762386 201.9424190239727 0.7017734596683827
2.0275720496181706 12.281953586334176 28.96759931690847 213.02786006776037 0.7213015406567665
2.0363730370907906 12.22545887769546 26.846184459944563 224.8496103315158 0.7418584827923745
2.04410629544953 12.166835699719487 24.920901154502932 237.46831479520318 0.7635195373908618
2.0507547249623292 12.106099562024799 23.167253027958427 250.95124303113485 0.7863684121677218
2.0563174702416567 12.043321157818596 21.575409247622503 265.3717764450969 0.8104939501866649
2.0607517506891346 11.978442124914348 20.12514398731115 280.8113023158625 0.8359944284213953
2.0609786052329055 11.927952761987822 19.268235649598758 301.25856918489734 3.623196976978661
