M[M_sun], R[km], Lambda[1], P_c[MeV/fm^3], rho_c[fm^-3]
0.24162668629717493 15.618656898711224 2160425.4255784233 3.5677272577965504 0.1711233750220791
0.2536445998929192 15.277279035823396 1723158.4564469266 3.7848315545683864 0.1738883219862283
0.2660405339830376 14.981267166217519 1383025.7336695478 4.011426604639161 0.17666696468438917
0.27881721663142345 14.72349735456991 1116447.3323023582 4.24776812889401 0.1794579771641203
0.2919719479190723 14.498377841663725 905881.1547136229 4.494481454687304 0.18226792826721688
0.30550834156468365 14.301195899744812 738620.0416828262 4.751722466423297 0.18509252972452242
0.3194247543213106 14.128116762542483 605059.0589564393 5.020173032868963 0.18793839113115404
0.33372395686392586 13.975915002377297 497662.68367995473 5.300057745084915 0.19080214594612033
0.34840633966830986 13.841982600353626 410978.8781250346 5.592104657457625 0.1936900793463018
0.36346959880358704 13.723979712600313 340639.1754732444 5.896481774207012 0.19659726764348393
0.37892463015648403 13.619948969352915 279369.3964225212 6.214052907859653 0.19953138582684948
0.3947573595831438 13.528416484408881 236392.1071915156 6.5450744664570575 0.20248859420187393
0.41098325730466245 13.447826269007026 197849.6584076092 6.890250911131029 0.2054726386586372
0.4275905734386051 13.377055475921512 166073.58705419023 7.250286506227202 0.20848657689311248
0.4445884795119051 13.314884565255722 139789.0668529032 7.62543888253106 0.21152593387330335
0.4619709280430874 13.26053315934718 117968.1911990784 8.01665976627153 0.21459691325978614
0.47973710187723717 13.213128840097369 99803.6954548639 8.424653032461245 0.21770114279403985
0.4978945942197876 13.171959568449495 84630.1775244719 8.849857847600969 0.22083606543170464
0.5164347212049543 13.136370326879929 71930.11763909915 9.293150960001991 0.22400513723090423
0.5353541794619942 13.105821655324501 61269.21405221819 9.755415745695315 0.22721125485005278
0.5546616836535584 13.079785592929959 51812.11324252253 10.237461943888828 0.23045576946775356
0.5743458684653048 13.057819601204418 44321.33195446446 10.73975802560086 0.233735342758527
0.5944037808922937 13.039531976718106 38322.69850677556 11.263554178744712 0.2370562311159738
0.614841877852491 13.024505041972793 32895.765381928635 11.809785634654899 0.24042001721477954
0.635647681232024 13.012420578079247 28287.94659650239 12.379431598560947 0.2438283343642326
0.6568191879084966 13.003005978071972 24366.56948754827 12.973177553860445 0.24727909263712006
0.678352327583617 12.995970004473653 21024.45981632166 13.592357470886473 0.2507771569856303
0.700241383874554 12.991062566517602 18169.434231802086 14.238165908687378 0.25432512641681654
0.7224766208039096 12.988016184236757 15726.24915531023 14.911792816104922 0.25792498605016834
0.745066318879923 12.986643730682243 13631.696261245226 15.614262146367231 0.2615765740487413
0.7679889399267992 12.98675967850937 11834.05886164764 16.34685174727377 0.26528190092047266
0.7912351821706886 12.988143476072974 10287.010315335678 17.111172462939216 0.26904560185488885
0.8148088584506409 12.990667213329292 8954.46787072086 17.90867968253275 0.2728701101069742
0.8386939677900623 12.99413200615017 7806.199411055434 18.74072845503049 0.2767564134735584
0.8628753910457638 12.998406006797607 6812.677106080798 19.608684108076798 0.28070517803501055
0.8873593944070657 13.003357928965142 5954.287621086279 20.514622951597786 0.28472267462988204
0.912117355863621 13.00885242815403 5210.214369525 21.46033956272524 0.2888119174986699
0.9371369566169118 13.014745547533744 4564.180444397603 22.447304870347995 0.2929727206408179
0.9624222460936489 13.020966345769203 4003.6962928116614 23.47757118713657 0.2972090977727324
0.9879423618783552 13.02734368920865 3515.6406139424003 24.553548589065024 0.3015270456073568
1.0136874294522045 13.03380046533641 3091.303043471406 25.67716350968022 0.30592807608929823
1.0396530101263293 13.04025516415935 2720.768421824272 26.850409637915057 0.31041368753036225
1.0658058100609562 13.046581638724785 2397.6848260493944 28.07636898815197 0.3149924999032685
1.0921383829549143 13.052714714739293 2115.2221786336563 29.35707689091702 0.3196648215337716
1.118638050930391 13.058548721221305 1867.9698640806778 30.695329334814385 0.3244356112142048
1.1452704550717598 13.064008586101133 1651.724509465017 32.09448569979296 0.3293126513991983
1.1720350060706672 13.069016819110335 1461.7023875260443 33.55652981659371 0.3342939156936756
1.1988919100953903 13.07347544217334 1295.0885994823423 35.08598469785276 0.339392838038057
1.2258391333084924 13.077339693870004 1148.7712803373133 36.684849061329984 0.34460602810554475
1.252835451672242 13.080497509466824 1019.9202817316356 38.35820002880703 0.34994807520414256
1.2798793207307864 13.082943541336617 906.4650955468765 40.108304504409304 0.35541571120691573
1.3069253108947703 13.08452146270977 806.6241470980266 41.94058431288937 0.36102320485287853
1.333961751627544 13.085238890406663 718.404721113944 43.85857422275285 0.3667727702576527
1.3609715611879614 13.085031194689225 640.4514678650618 45.866914849722164 0.3726718921966576
1.3879034072967114 13.08376870394883 571.6614415511821 47.970964732818516 0.37873066495532653
1.414753374954001 13.08146084772935 510.70654119657405 50.175509548901694 0.38495488370654773
1.4414850750836568 13.07802224171511 456.76126948513416 52.485716320147475 0.3913512419400785
1.468079771107538 13.073421639424978 408.8938229828435 54.908029272423036 0.3979315721244187
1.494490377755407 13.067552996475856 366.4245692487121 57.448639757364546 0.4047049377712094
1.520702959450276 13.060404020994286 328.751206912011 60.11417736856396 0.41168111268384805
1.5466864002055982 13.051914515123269 295.20476710282065 62.91174939405528 0.4188706394445024
1.572402657996056 13.042032259147792 265.39437234995745 65.8489840463367 0.426284892676722
1.5978169369435442 13.030691697248729 238.854193559851 68.93407785344723 0.43393614764262894
1.6229143372781973 13.017871100907469 215.17189530852792 72.17584764229312 0.44183765480212733
1.647667114770671 13.003530751035717 194.0468883273596 75.58378759948054 0.45000372103740943
1.672015374352665 12.987595944309268 175.18471474176127 79.16778476019465 0.45844834849774513
1.6959532421092454 12.97003766813236 158.32282095548163 82.93813922637348 0.46718525658505056
1.7194326372992548 12.950822152902553 143.23871903374 86.90754063649045 0.4762357824921857
1.7424111324780476 12.929866897408472 129.7411153951967 91.08751786647736 0.48561406467884377
1.7648978933903223 12.90722336797325 117.6449888723156 95.49226830106238 0.4953424438694192
1.7868230139506582 12.88278364443482 106.79438782729083 100.13535876188305 0.5054380325877927
1.8081608701684377 12.856523129732025 97.05905140243419 105.03337223031842 0.5159267469677093
1.8288696412123375 12.82838226004051 88.30358513820349 110.20285537083905 0.5268311324443123
1.848949269617662 12.798408948667014 80.43913549364572 115.66151345069207 0.5381748213660037
1.8683235782564278 12.766466535979687 73.3660850567276 121.42943010640289 0.5499866679090486
1.8870013483782375 12.732641322931201 66.98939592937711 127.5280447868 0.5622965236290165
1.904923706683533 12.696819472859186 61.240161087007145 133.97989689767672 0.5751340243365124
1.9220635925741858 12.658996983999298 56.05769206573129 140.810654100104 0.5885353887750456
1.9383756411583921 12.619103003915125 51.37615986801679 148.0479958441139 0.6025388676123267
1.9538707272929798 12.57725398446608 47.151084526929445 155.72036467000552 0.6171800103870438
1.9684851462089399 12.533315481834563 43.32737491024425 163.86148155029943 0.6325066494927246
1.982197518536277 12.487310248556694 39.86821025205579 172.50521324564184 0.6485606328258959
1.994984461343799 12.439225276229985 36.73338718906293 181.6907094583873 0.6653946255295117
2.0068197773666876 12.389060366246946 33.89183386909629 191.46006678616112 0.6830633282912538
2.0176652361360445 12.336778499001912 31.31957964266883 201.85933770649058 0.7016259985251482
2.0274995612223656 12.282388460253939 28.98361162284163 212.93839927916116 0.7211450343593813
2.0363072343728583 12.22591319379507 26.861824739196575 224.75294173142157 0.7416913888157587
2.0440487019598113 12.167313141258008 24.93566185741256 237.36396729841587 0.7633416153233151
2.050705937376811 12.10659884698144 23.181114211770804 250.8384624937778 0.7861786454803836
2.0562764423810553 12.043843746982883 21.588545297108713 265.2496851053654 0.8102910878683734
2.0607202928506863 11.978987608173265 20.136938717383167 280.6790528666064 0.8357775085438255
2.0640225978868427 11.912086927221806 18.816715870444963 297.21668747512996 0.862746068286786
2.0661803413693094 11.84317690800741 17.61385963315448 314.9629126424603 0.8913169814805922
2.0671700835015034 11.772276345765633 16.519897925063937 334.02705595082347 0.9216157361195924
