M[M_sun], R[km], Lambda[1], P_c[MeV/fm^3], rho_c[fm^-3]
0.24162668629717493 15.618656898711224 2160425.4255784233 3.5677272577965504 0.1711233750220791
0.25363461959559913 15.27750763026187 1723539.5563989114 3.7846445108207334 0.17388599057614668
0.2660199956719802 14.981685475587181 1383492.5264486528 4.011033412939935 0.17666221319474987
0.27878368350184524 14.724118798118006 1117060.9472987792 4.247155498883805 0.17945087157921563
0.291927008787813 14.499093131548708 906494.8933029646 4.49363332282686 0.18225848412210968
0.30545043803456495 14.301941804271808 739254.0735917932 4.750610049022864 0.1850805134935172
0.3193537219769524 14.128903475175884 605613.7831161824 5.018788148585307 0.18792402242219486
0.3336389991922534 13.97673729284249 498245.9329372485 5.298363950645253 0.19078509224662615
0.34830603693745177 13.842825810147296 411497.305338304 5.590097737247799 0.193670661841187
0.3633544541982287 13.724768530505893 341097.9584625159 5.894116660188526 0.1965750539921108
0.3787920990248313 13.62077292612323 283714.9733411579 6.2113009983878955 0.19950629172598175
0.3946081918740341 13.529211714875043 236780.95215728492 6.541938632020644 0.20246109717017138
0.41081682095035305 13.448590586854646 198203.79999100283 6.886670641445578 0.20544214757959403
0.4274081743222447 13.377729348546374 166392.06053943784 7.246228228195689 0.20845300379900533
0.44438512828171206 13.315580911008118 140068.82701625885 7.620913825055464 0.2114899115061952
0.46174717275319666 13.26118682822216 118213.9515724941 8.011589037120363 0.2145576870702934
0.4794932475363151 13.21373199867746 100034.69802974515 8.418997119436991 0.21765861823491883
0.49763104482528786 13.172507257569523 84829.8115890943 8.843637614974275 0.22079102828978645
0.5161476911928202 13.136875064770324 72113.05829562961 9.286265792021847 0.22395666521908383
0.5350467585293324 13.10628494998792 61428.41082965377 9.747818993537397 0.22715924346358446
0.5543325694089886 13.080192471850799 52435.3599009522 10.229104125679243 0.23040010965887317
0.5739900028370037 13.058172042551208 44846.86148738777 10.730675461041713 0.23367702988063088
0.5940305161091218 13.03984212749371 38432.00084807576 11.253610347015135 0.23699410187538084
0.6144403181084142 13.024752449316455 32991.3464981703 11.79892183669386 0.24035394719732975
0.635218752210875 13.0126327500396 28373.769975282426 12.367585475109182 0.24375819258825715
0.6563626080980752 13.003165870828433 24445.25152592646 12.960403501253762 0.24720608139066705
0.6778754451539785 12.996100853727135 21094.02286690009 13.5784741913289 0.2506998586046069
0.6997376316882538 12.991140950936137 18229.281843624813 14.22309901975771 0.2542433878090334
0.7219452948321702 12.98805635675849 15779.912928615626 14.895463158566 0.2578386449952491
0.7445088942182251 12.986655396813987 13679.285400895706 15.59674472490872 0.26148703661001027
0.7674022367152297 12.986741951983298 11876.434321176008 16.327909475547067 0.26518747844680085
0.7906211607880298 12.988080408770728 10255.747014929295 17.09071034871647 0.2689461015224769
0.814168589341944 12.990588149375203 8988.783924142825 17.886596438842382 0.27276532669469106
0.8380243002415793 12.994032528388082 7836.055380079346 18.717094540781467 0.2766477105722082
0.8621818412353262 12.998278784904175 6839.403856176719 19.583247691087582 0.28059106087388863
0.8866255085563519 13.003208977329546 5978.107063683255 20.487234246917613 0.28460265307928767
0.911359034567417 13.00867283485775 5231.241891054604 21.430867872530424 0.28868572825587374
0.9363530072619433 13.014564166537188 4583.127267481377 22.415872914145066 0.29284217018939296
0.9616006787818029 13.020749303346557 4020.4064517182796 23.44378477977857 0.2970718811335318
0.9870991852120612 13.02713412393055 3530.7658647203307 24.51724883447698 0.3013828439146811
1.0128140356348196 13.033585112684635 3104.7848799222375 25.63848850835242 0.30577881361705644
1.0387456228315728 13.04002461081311 2732.968788191051 26.808891634872413 0.31025683999099507
1.0648763759737396 13.046370422546147 2408.5011663211785 28.031811460707306 0.31482766223415276
1.0911777377950307 13.052499051821473 2124.7790902033994 29.3096376757588 0.3194940694870286
1.1176501032065334 13.05834227552772 1876.6257997640416 30.64444247959232 0.32425610453502296
1.1442589628838222 13.063812073268444 1659.2647339524913 32.04004069412256 0.32912474468143826
1.1709919543521734 13.06883576688459 1468.6238649765207 33.498444764670445 0.3340981630798747
1.1978217444044128 13.073306594660835 1301.2779801084428 35.02370919962197 0.33918690984833344
1.2247444675523345 13.077201956166952 1154.2020920484458 36.618563722311734 0.3443922018626218
1.2517222078228316 13.08039880721504 1024.9418651033375 38.28717796347913 0.3497231876769545
1.2787359369246816 13.082858192416458 910.9745494651364 40.03266054879506 0.3551816940792581
1.3057584035962218 13.084470411757424 810.6819220613763 41.86004118073892 0.36077971076215665
1.332773326790442 13.085225417728457 722.0166042492866 43.772229675058576 0.36651610960779357
1.3597626772045461 13.08506323567069 643.7912374159791 45.774949675482475 0.3724044699624932
1.3866758013673957 13.083849811808017 574.5824961687406 47.87298646089258 0.378451787165351
1.413505361156794 13.081588600513994 513.3677036322142 50.070444798881766 0.3846604806986171
1.4402296075804015 13.078232077580328 459.15285717480657 52.37373174806034 0.3910437742621205
1.4667973518200523 13.073659802179229 411.0785888024054 54.78862947081305 0.3976101693320707
1.493198674592734 13.067875675120346 368.4100909341037 57.32128921213213 0.4043686621678148
1.5193996113896453 13.060800192028198 330.4979098825856 59.9782968703048 0.4113289538015402
1.5453733720985454 13.05237746468421 296.81266431718706 62.76671209153632 0.41850150797861485
1.5710827022292093 13.042575398742805 266.84729388303134 65.6941111022836 0.4258976138149177
1.59650071937679 13.031331182994773 240.14322919971585 68.76863365796908 0.4335294537232394
1.6215965110145238 13.018602105088766 216.36112402209875 71.9990345337872 0.4414101772283988
1.646324357176358 13.004343144904507 195.1153216272905 75.39474003663973 0.4495539813655199
1.6706918381605327 12.988512636930976 176.16279804546284 78.96591007767464 0.4579761984391161
1.694624217361293 12.971063942815888 159.2121354267884 82.7227537516183 0.4666903013913674
1.7181151287885343 12.95196304363574 144.0472028588067 86.67689798810213 0.47571349037192817
1.7411180603843217 12.931151066664174 130.47823450534287 90.84152199640587 0.4850668144157595
1.7636044307662773 12.908605101453904 118.31468967233849 95.22855208005171 0.4947637915955511
1.7855410995394028 12.884281010826646 107.40394881488466 99.85369264565786 0.5048302093287174
1.8068873720434893 12.858123482676273 97.61023226904787 104.73206554236292 0.5152865378824917
1.827636306628758 12.830173748264276 88.81497413222472 109.8796752836901 0.5261536448492978
1.8477185115326813 12.800288551326766 80.90469511750005 115.31538636094272 0.5374598422378578
1.8671413012236666 12.768548706656496 73.7841298132979 121.05862212955964 0.5492318387541596
1.88583996079368 12.73484675311159 67.369546672488 127.13053231363178 0.5614988067937002
1.9037827032556547 12.699147142358065 61.592035920877 133.55416829842358 0.5742925949231179
1.9209549950523328 12.661470564465429 56.379908161097084 140.3540350258226 0.5876457211748874
1.9373312587251492 12.6218223220286 51.67101953329948 147.55717133086338 0.601594742241047
1.9528733597274555 12.580148214776804 47.41803074364954 155.19394933466458 0.6161824006316549
1.9675265666064294 12.536363968710313 43.57224260572796 163.29488129892673 0.6314460973361403
1.9812938157271769 12.490537569841932 40.095406902038384 171.89604642627964 0.6474358728988658
1.9941439345622831 12.44266674620395 36.94146846275533 181.03536230198367 0.6642009015972196
2.006016545022636 12.392639979555284 34.084824756941366 190.75428885354165 0.6817945428372505
2.016921835314662 12.34054554146165 31.49500198199415 201.09844060449532 0.7002754812254166
2.0268238615921246 12.28635801837557 29.145422192290194 212.11804737701962 0.7197082354659284
2.035694565936756 12.230072509732008 27.008330391347435 223.86771048782003 0.7401612455368265
2.0435170567190415 12.17169676492753 25.069626050939622 236.40756819464735 0.7617094565095044
2.050254703070251 12.111208860261446 23.307606563555794 249.80393338623196 0.7844349601355434
2.055885180436809 12.048608178097648 21.702868762399042 264.13011309634794 0.8084280549996057
2.0604151334583944 11.983981780883278 20.243517789960478 279.4665558277553 0.8337858849902998
2.063814598413877 11.917316383051839 18.913961764667366 295.90255602676734 0.8606158913098135
2.0660540197710624 11.848608988034226 17.70355104816614 313.5361314059197 0.8890329853471619
2.0671341388824382 11.777926013784962 16.60095554388624 332.47746988125846 0.919168072682073
