M[M_sun], R[km], Lambda[1], P_c[MeV/fm^3], rho_c[fm^-3]
0.24162668629717493 15.618656898711224 2160425.4255784233 3.5677272577965504 0.1711233750220791
0.2536443036968316 15.277275150731183 1723197.1946510288 3.7848251801721053 0.17388824253245377
0.2660405727719234 14.981243785323036 1383066.616568734 4.011413204327117 0.17666680274952642
0.27881590544204277 14.72348499390018 1116462.1810001135 4.247747249252199 0.17945773499174023
0.2919708451011854 14.498404285918147 905904.8917409193 4.494452547755429 0.1822676063818215
0.3055061077667247 14.301231283762242 738676.7829542711 4.751684550605083 0.18509212016132226
0.3194242079796972 14.128096784839299 605088.3189031178 5.020125828801892 0.18793790137073907
0.33372114443721057 13.975933249810101 497657.6541149304 5.3000000099320985 0.19080156464893142
0.3484029126077769 13.842011518331944 410996.8865862742 5.592036247002085 0.19368941745632537
0.36346635532195476 13.723950527069677 340630.65407801035 5.8964011514157395 0.1965965104171667
0.3789191324347768 13.619989905477798 283294.0563405113 6.213959096989781 0.1995305303846719
0.39475138097843465 13.528452387855848 236398.6713965566 6.5449675648419925 0.2024876568191268
0.4109768229636547 13.447861387062863 197855.7572675566 6.890128854917205 0.20547159917670138
0.42758643052492146 13.377040332435506 166069.29126957973 7.250148149945126 0.20848543230704852
0.4445813934678474 13.31493330857757 139792.88748846465 7.625284608522033 0.21152470575299362
0.4619632645086018 13.260556171863323 117976.51533980548 8.016486883467005 0.2145955758715234
0.47972838090848063 13.213152841102962 99805.98225189927 8.424460192618252 0.21769969290800567
0.49788581290372264 13.172005127573252 84641.09782425409 8.84964576169948 0.22083452983916052
0.5164245441137223 13.13639104887274 71935.77547817012 9.292916195620684 0.22400348447502397
0.5353439852207255 13.105832531522069 61273.35773835416 9.755156710916857 0.22720948136084437
0.5546500115954749 13.079836599485256 52296.68069284876 10.237176950057497 0.23045387152001334
0.5743333498679016 13.05783461164968 44728.25076090893 10.739448310988845 0.23373335429478026
0.5943903987317607 13.03951975865384 38324.35880266816 11.26321508539218 0.23705411245457084
0.6148281321225817 13.024498850388817 32899.68790605552 11.809415159163587 0.24041776410566765
0.6356329509387555 13.012443931858693 28290.57012573332 12.379027612537126 0.24382594233300858
0.6568039198712043 13.003028558975876 24369.390526046056 12.972741912484892 0.24727660268966056
0.6783360718259037 12.995974191790529 21026.85018895388 13.591883987530803 0.2507745207571597
0.7002251048452162 12.991046996212882 18171.72393616974 14.237652044356297 0.2543223386777413
0.7224594531583842 12.98799054750201 15728.675571114583 14.911235868657352 0.25792204125907015
0.7450471837102404 12.986655690507645 13633.170083543951 15.6136646745017 0.26157352016888347
0.7679670399728636 12.986751631008202 11753.92488416953 16.346205659385912 0.2652786803343961
0.7912138562737304 12.988138029381785 10287.929762414613 17.110474516114955 0.2690422079758271
0.8147873444505921 12.99066679487786 8955.650614293778 17.907926418842877 0.27286653592462673
0.8386712772997525 12.994133828952357 7807.034179556518 18.739923215623307 0.27675271381512445
0.8628529795229112 12.998404805228851 6814.044650509428 19.607816422081385 0.28070128527517
0.8873331403877165 13.003365224123293 5954.873101657293 20.513688642427137 0.2847185803422293
0.9120904323311392 13.008852395159659 5210.879280269326 21.459334167771228 0.28880761268862615
0.937110123243985 13.014747857628853 4564.920827331421 22.446232577919726 0.2929682669485416
0.9623943997385234 13.020950663270197 4004.3070966042974 23.476418539641724 0.2972044165287709
0.987915583045615 13.027332765990288 3516.328399959505 24.552310160528496 0.3015221259186908
1.0136569978711993 13.03380105812111 3091.692779977607 25.67584409415629 0.30592298421068626
1.0396221011424016 13.040248262733648 2721.247799404026 26.84899310393083 0.3104083361200444
1.0657746059315967 13.046572099037242 2398.00802586674 28.074848704260816 0.314986875712085
1.0921069109012211 13.052703188457578 2115.662693599385 29.355458245606314 0.3196589954045064
1.1186042900383077 13.058539975348433 1868.4531400574415 30.693593001427377 0.3244294861856705
1.1452347073346174 13.063998839855627 1651.950395509936 32.09263734573274 0.32930630063670296
1.171999377236771 13.069006803244323 1461.9465569118904 33.55454775897248 0.3342872359551334
1.1988562209756715 13.073468964462414 1295.3590250371271 35.08385958080805 0.33938581085211067
1.225801728356622 13.077338003778424 1148.9660828747437 36.682587052226054 0.34459873121432694
1.252796863572996 13.080494415807147 1020.0495265164127 38.3557919470123 0.3499404923854254
1.279842156390125 13.082937489608183 906.6336457486445 40.105722977004525 0.3554077248235579
1.3068839138889778 13.084528546436555 806.6674233927909 41.937835515272695 0.36101489482124227
1.3339215688783796 13.085236290067357 718.5263594854309 43.85562733341217 0.36676401057851327
1.3609314509375172 13.085032534511944 640.5734431736948 45.86377604386893 0.37266276497561096
1.3878618267717817 13.083776079225066 571.7492743702579 47.967620602431815 0.3787211464807372
1.414718801879317 13.081481421176404 510.7790395433425 50.171923420877725 0.3849448349806251
1.4414416368602943 13.07802807651464 456.8222260166753 52.48189388785584 0.39134074697314725
1.4680370837232968 13.07343050959272 408.98595890013934 54.903953608903194 0.3979206011712154
1.4944459449735688 13.067565648234039 366.4894787369397 57.444292564468206 0.4046934587868704
1.5206584083919108 13.060418697473846 328.80457353087303 60.10953885418097 0.41166909113504885
1.546641472729578 13.051930167556604 295.2552668742642 62.906798137087954 0.4188580381018782
1.5723592712713805 13.042048405843541 265.4381498277399 65.84369684805795 0.42627167138656025
1.5977822120474803 13.030721337917674 238.89268836651536 68.92842957371268 0.4339222630755916
1.6228692898978136 13.017897608679561 215.20834849275744 72.16981101888804 0.4418230601764883
1.6476208856199166 13.003558880221236 194.07942876535236 75.5773330486711 0.4499883658139957
1.671970660808792 12.987623381783678 175.2198274878998 79.16091386371058 0.4584323187748559
1.695907013093607 12.97007273283894 158.351931955842 82.93078494050411 0.4671683564575419
1.7193869722429418 12.950861687734834 143.26390072944395 86.89966509918052 0.4762179482750168
1.742367628734254 12.92991219411772 129.77424388296583 91.0791177997488 0.48559537762232613
1.764852523015032 12.907273761736453 117.66824603632406 95.48326277477838 0.49532268373391586
1.7867787163588809 12.882835618840396 106.81537357517632 100.12573993438845 0.5054172755753604
1.8081177284114425 12.856577368626349 97.07636549629943 105.02309021783311 0.5159049130926449
1.8288273349216486 12.828443435344433 88.32212413455673 110.19185576192245 0.526808135188049
1.8489065118852392 12.798476615900809 80.45703139125315 115.6496919001026 0.5381504021217893
1.8682831911200501 12.766537326375625 73.38113514068391 121.41676510382545 0.5499608866050066
1.8869619558524444 12.732715550304082 67.0012756783768 127.51451337468612 0.5622694415790033
1.904885975904863 12.69689984158302 61.25095463114518 133.9653748699612 0.5751053533447524
1.9220268069617972 12.65908163701398 56.06896413246779 140.7950562923304 0.5885049983139561
1.9383398018408065 12.619194407061055 51.38681673714833 148.03122883801095 0.6025066154418771
1.9538363993365346 12.577349982824687 47.157055285806464 155.70238109472297 0.6171459297117021
1.968452604802041 12.533419030640582 43.33358774863172 163.84217241346272 0.6324705798646436
1.9821678424996216 12.487419020112233 39.87530861278102 172.48440073452102 0.6485222047997042
1.9949583240744382 12.439342184040004 36.741910506801595 181.66831811828462 0.6653538393930412
2.00679345484312 12.389182240982832 33.899586451782035 191.43595119300915 0.6830199754002214
2.017641031427031 12.336906895905107 31.3247974404342 201.8333374394549 0.7015798506158747
2.0274766258784274 12.282522439953565 28.989280201205347 212.91040275909103 0.7210960561224972
2.036286327035245 12.226056912571645 26.866411304688455 224.7226897903357 0.7416390976153951
2.0440304925041803 12.167461435026569 24.939437472177033 237.33131253989671 0.7632859359603227
2.0506903044162903 12.106754860685024 23.1857262119742 250.8031689650985 0.7861192599145856
2.0562639948954406 12.044008245423353 21.59214025216952 265.211418366326 0.8102274097913611
2.060709171062034 11.979159657097918 20.14017095927892 280.63766745172654 0.8357096268310515
2.064015331909591 11.912263202189093 18.819776971483996 297.17178711094056 0.8626733216515019
2.066175372345246 11.843362609651644 17.61651828612312 314.9141367271062 0.8912389008335946
2.0671687419641493 11.772468677639068 16.522291757459985 333.9740827407178 0.9215320691657006
