M[M_sun], R[km], Lambda[1], P_c[MeV/fm^3], rho_c[fm^-3]
0.24162668629717493 15.618656898711224 2160425.4255784233 3.5677272577965504 0.1711233750220791
0.2536376795937847 15.277470671216253 1723429.384440894 3.78471671288851 0.1738868905400901
0.2660272581994054 14.98157392503165 1383304.2992936757 4.0111851883559035 0.17666404731108012
0.2787966858981182 14.723860085897021 1116685.1304032449 4.247391974479501 0.1794536143397646
0.29194450829100643 14.49883230635811 906255.3376248119 4.4939606956610705 0.18226212949459789
0.30547290304741975 14.301675029280698 739030.1148166469 4.75103942536299 0.18508515157746763
0.31938234087695017 14.128570114767927 605385.5374071199 5.019322682647771 0.1879295684194041
0.33367275742439223 13.976443117074686 498044.7327702528 5.299017703956631 0.19079167445769882
0.3483448925756617 13.842497095518295 411295.47040169634 5.590872333147285 0.19367815626959853
0.36339831584682963 13.72445309058626 340906.7090343772 5.8950294875902465 0.19658362746024263
0.37884380128327905 13.620443114403141 283546.0376010483 6.21236309076356 0.19951597672960536
0.3946656416601812 13.528913352292326 236624.22574032997 6.54314887777198 0.20247170939044867
0.41088094864017355 13.44831678701067 198066.58603207974 6.888052386473732 0.2054539151000806
0.42747793855354876 13.377471287074442 166255.49956135132 7.247794422872314 0.20846596052618374
0.4444639203875931 13.315304990758575 139966.07792669474 7.6226601324129115 0.21150381323563242
0.4618335408586536 13.260926085187908 118120.7795591432 8.013545893308914 0.21457282493496213
0.4795870463034356 13.21350234348028 99935.95628407985 8.421179764754719 0.21767502867642596
0.49773358597532286 13.172285962532445 84756.50788879914 8.846037994968329 0.22080840806654686
0.5162588788152288 13.136694473823407 72041.62070925966 9.288922721138768 0.22397537016570718
0.5351641344875027 13.10610103594077 61362.36204042606 9.750750463623664 0.22717931385951257
0.55445950707102 13.080035018107562 52380.68077334438 10.232329220827483 0.23042158753444675
0.5741269042295262 13.05802912861671 44798.22659047627 10.734180164883497 0.2336995311649165
0.5941744815780176 13.03971198761631 38388.54234292143 11.25744732026235 0.23701807535366445
0.6145954451153862 13.024649360118413 32956.25691959042 11.80311371694427 0.24037944082325002
0.6353832235713257 13.012547768205105 28341.2266881141 12.372156311011617 0.24378525684680508
0.6565372174263701 13.00311054793933 24221.795972298514 12.965332304756553 0.247234252410338
0.67805899429622 12.99605016581507 21066.889176379267 13.583830888518506 0.2507296832594136
0.6999321992640489 12.991105257472618 18205.982508560504 14.228912294271645 0.2542749251069884
0.7221510034218381 12.988022648026806 15759.578333721218 14.901763535431886 0.2578719574626841
0.7447234639680801 12.986665992307737 13660.733900957708 15.60350326947195 0.2615215818066977
0.7676286987824417 12.986736787065784 11859.05059300263 16.33521762247217 0.26522390772627596
0.7908584794091654 12.988105490510105 10241.09352527487 17.098604726279593 0.2689844892073058
0.8144163679713798 12.990623099640162 8975.66775918409 17.895116101658516 0.2728057518855685
0.8382819184254843 12.994080052946067 7823.459489700817 18.726229179813213 0.2766897968060615
0.8624472186930885 12.998331720064131 6829.343582754139 19.5930606770534 0.2806350855531909
0.886906998038077 13.003256962444372 5968.8534870581 20.49780020311206 0.28464895473760915
0.9116498162977711 13.008755297756968 5222.988131898454 21.442237189641556 0.2887344083793373
0.9366535529015289 13.014633382337395 4576.10322663441 22.427998263996642 0.2928925319895491
0.961915865935202 13.020823193198437 4014.0693094049107 23.456818152750774 0.29712481353376435
0.9874246396344549 13.027227050585271 3524.937595065443 24.53125148915306 0.3014384698143369
1.0131521444963765 13.033673177500985 3099.415745990142 25.653408631200218 0.30583640143831253
1.039097555826998 13.040125727872281 2728.2770669049964 26.824906686297357 0.31031734197145544
1.0652376850133547 13.046452627379768 2404.2160427180415 28.048998641725156 0.3148912450902969
1.0915486209194234 13.052581930324674 2121.0995858270107 29.327936126786916 0.3195599326754236
1.1180312528762402 13.058419112735502 1873.380367838047 30.664070386110655 0.32432534324712303
1.1446468402568843 13.063884871805755 1656.2945989796967 32.06109000574664 0.3291975413894181
1.1713947363172068 13.068903753721534 1465.9847335611112 33.52084833494824 0.3341736654216157
1.1982404433867704 13.073381857594335 1298.9714764758846 35.047728553197935 0.33926633533894773
1.2251668657267 13.077249044094492 1152.1333127704688 36.6441292314647 0.3444746722376935
1.25214848705863 13.080431839363648 1022.9827125740354 38.31458336084389 0.3498100019679456
1.2791768171117568 13.08288611656123 909.2577849037748 40.06183447511804 0.3552719484609223
1.3062090490465899 13.084496597948402 809.0130601450713 41.89110405896225 0.3608736185490312
1.3332315407192845 13.085225706911391 720.6187706032161 43.80552925633386 0.366615093184619
1.360228776952583 13.085049636167247 642.5291421473937 45.8104162727297 0.37250760200951505
1.3871489381593507 13.083822740807502 573.4899452931941 47.91077133932955 0.3785593351266067
1.4139872864712881 13.081540038775115 512.3738723919007 50.11096163550336 0.3847740133398785
1.4407167216741532 13.078157642210765 458.2289177088471 52.41691630996082 0.3911623428892421
1.4672912733532124 13.073565146442903 410.26746102690674 54.83467268000133 0.39773410937051495
1.4936971372259684 13.067748969520473 367.63721108439097 57.370397441080705 0.4044983349484942
1.5199023267766498 13.060646341150939 329.82912727026604 60.03069332382764 0.4114647486856177
1.5458807500818688 13.052199991836481 296.19309836362663 62.82263832640826 0.4186438446926967
1.5715927029889578 13.042366002241291 266.2829187497227 65.75382869992424 0.42604694501918555
1.5970078497608502 13.031079631081996 239.6523890610263 68.83242606737781 0.4336862678377193
1.6221022039748603 13.018311682342656 215.89360554379297 72.06720910402427 0.4415750015455617
1.6468505379898846 13.004030252945698 194.71042439076572 75.46763026054343 0.44972738548081126
1.6712052163100086 12.98815949320007 175.78912610826657 79.04387807121009 0.45815879803484144
1.6951282709191229 12.970646839306701 158.8798327174517 82.80579541852973 0.4668811309000733
1.7186242784082517 12.95152124131896 143.7332080911533 86.76581989611391 0.4759148547431637
1.7416230306500828 12.93066940437417 130.20035550310905 90.93636118805105 0.4852777967081185
1.7641053805476372 12.908080496501405 118.05799507706072 95.33022044478903 0.4949868746892275
1.7860359855270598 12.88370919235411 107.1705868438683 99.96227865600376 0.5050645332281731
1.807380009896303 12.8575093118275 97.39651146393196 104.84836288685531 0.5155338792390707
1.828117034741634 12.82948837181951 88.6168140687516 110.00432378818712 0.5264150525114839
1.8482005988199155 12.799581209685314 80.72192318131935 115.44881289114043 0.5377354554072904
1.8676017603513366 12.76775759783761 73.62491003856132 121.20155911497643 0.5495228060759068
1.8862889029944623 12.733998143567838 67.22161084636394 127.28378072404622 0.5618063751306115
1.904229769604934 12.698269584950717 61.45547995587202 133.71860488858147 0.574618119429983
1.9213828815214324 12.660517234609976 56.25540494323701 140.53003624162866 0.5879886384731574
1.9377307950931213 12.620754395346168 51.55730699221077 147.74635135685875 0.6019586394333424
1.9532457617562202 12.57898782072146 47.31810978325614 155.39684182097605 0.6165669022030392
1.96790143190651 12.535198432398758 43.479294464950705 163.51334940122533 0.6318551644452998
1.9816446980260782 12.489296356140892 40.007187084555945 172.13081920113405 0.6478693551581103
1.994474586105557 12.44135384750685 36.86037429093876 181.28792540682628 0.6646609487946762
2.0063254581384014 12.391250632420958 34.010832997952114 191.02627893095624 0.6822835026614491
2.0172091986479517 12.339094177646038 31.42692921534256 201.39166284155883 0.7007959217722156
2.027083062828741 12.284822599121075 29.082978867846602 212.434495345642 0.7202629705050183
2.035935157651801 12.228480200585924 26.95305796496939 224.2088242824146 0.7407508688515508
2.043722263305435 12.170005383567213 25.018276682249557 236.77652349882908 0.7623397718352579
2.0504254512483344 12.109421743719329 23.25920905774803 250.20262206339962 0.7851070591260975
2.0560374220890827 12.046769189384491 21.657864585905404 264.5614813151568 0.8091458767776689
2.060531167020051 11.982046281660814 20.20250162053618 279.93387625760687 0.8345537654903017
2.06389166765877 11.915293561101397 18.876222013932857 296.4092387649618 0.8614378566967535
2.0661030306444834 11.846512456256113 17.668602400101083 314.08580316751124 0.8899129017253552
2.067148444453451 11.775745900519775 16.569895849198467 333.0745050297068 0.9201112580289192
