M[M_sun], R[km], Lambda[1], P_c[MeV/fm^3], rho_c[fm^-3]
0.24162668629717493 15.618656898711224 2160425.4255784233 3.5677272577965504 0.1711233750220791
0.25364379408553056 15.277301381863865 1723248.133637285 3.7848159788649283 0.17388812784259866
0.2660395215725785 14.981277114429691 1383074.601771142 4.011393861314565 0.1766665690006352
0.2788142581676513 14.723537804093791 1116465.4828705352 4.247717110100728 0.1794573854230019
0.29196784288854727 14.498466131831586 905923.7287863218 4.494410821560507 0.1822671417509569
0.30550491819634 14.301235425055287 738673.6259041653 4.751629820534829 0.18509152897210962
0.31941758801459375 14.128213356488926 605133.7401216648 5.020057691670198 0.18793719442169923
0.33371717605990575 13.975965664862297 497676.63488370465 5.299916671837141 0.19080072557259808
0.348397960935001 13.8420523164319 411021.0067027176 5.591937499838155 0.19368846205034995
0.3634590287666044 13.724041175889486 340668.8061410829 5.89628477664836 0.19659541740072392
0.3789133709840794 13.62004520569916 283316.21653873916 6.213823686279981 0.19952929560204363
0.3947450429274048 13.528464284977256 236406.20825207862 6.544813258749781 0.20248630376315543
0.41096920747678284 13.447920734965884 197879.7175738974 6.889952674522536 0.20547009875052913
0.4275772997659827 13.377091763562364 166090.91106857246 7.249948441949795 0.20848378017398395
0.44457178898344485 13.31496249732491 139811.7595248766 7.6250619248695255 0.21152293304793454
0.4619520159273211 13.260596030281388 117989.99194149252 8.016237339960773 0.21459364545075543
0.4797160608437833 13.213176424490412 99818.74997125543 8.424181843306895 0.21769760011030947
0.49787273937239124 13.172006174095747 84647.93287352199 8.849339632876267 0.22083231333568168
0.5164119527801826 13.136399045405648 71943.17186691609 9.292577333089065 0.22400109886167577
0.5353282699269951 13.105864584909604 61281.157223757546 9.754782817043994 0.2272069214854772
0.5546335337955223 13.079855386947205 52302.98811555546 10.236765587594217 0.2304511320064809
0.5743160260263369 13.057852344535595 44332.1377891711 10.739001267292045 0.23373048413577002
0.5943721507062263 13.039536190685705 38330.36346222411 11.262725637463335 0.23705105437505422
0.614808307386299 13.024511032593326 32904.27329995929 11.808880415506913 0.24041451197203498
0.6356125385306666 13.012435877616939 28294.674606790773 12.378444501260784 0.24382248968787276
0.6567807940122398 13.00304671511026 24373.50517185411 12.972113111332815 0.24727300872012734
0.6783129837477094 12.995975061959069 21030.808129842968 13.591200567237765 0.25077071565606734
0.7001997005162507 12.991069184472087 18174.247994828384 14.236910340442229 0.2543183148978086
0.7224334286646893 12.987997008007214 15731.531020183571 14.910431981188559 0.25791779080299493
0.7450195990571418 12.986655914571745 13635.368451098473 15.612802296587045 0.26156911226502166
0.7679395311712309 12.986759935941057 11837.780683376164 16.345273112430664 0.26527403182171505
0.7911829901564857 12.988131135644604 10289.910315448595 17.10946711973912 0.26903730934838443
0.814755369765944 12.990661995625658 8957.11283521082 17.906839182358123 0.2728613770652477
0.8386388731337819 12.994128649362658 7758.808531331193 18.738760961394306 0.27674737385830867
0.86281940598192 12.998397413055303 6815.543563522417 19.606564037728788 0.2806956666164174
0.8872926334805806 13.003341750735006 5956.128870913709 20.512340100103543 0.28471267082067253
0.9120520496426233 13.008838465786956 5211.851770666866 21.457883026850165 0.2888013993234337
0.9370715135540223 13.014727199982485 4565.816598597673 22.444684883382372 0.29296183870655707
0.9623494939525966 13.020931460471783 4004.9168849135303 23.4747548687109 0.297197659866796
0.9878736369211658 13.02732824559108 3516.990613155323 24.550522682274334 0.3015150251161428
1.013614614693631 13.033785941271542 3092.279363958749 25.673939727738436 0.3059156348939195
1.039577435929137 13.040237392834824 2721.7935438045765 26.846948567723036 0.3104006122304101
1.0657277907130334 13.046570701599148 2398.657221027035 28.07265442764867 0.3149787581287521
1.0920589814519224 13.052699486236582 2115.934776921281 29.353122005579753 0.3196505863748694
1.118556076666501 13.058531331210478 1868.8592523346629 30.691086905243758 0.3244206457689918
1.1451857752057293 13.063987563303852 1652.3349619252722 32.08996957285904 0.329297134431874
1.1719491879749198 13.069000002494326 1462.2950964012762 33.55168701632445 0.3342775949574546
1.1988028208986883 13.073460192514606 1295.5155259072098 35.08079236606634 0.3393756684044836
1.2257480591802308 13.077330659708693 1149.2153045523032 36.679322266309065 0.34458819952033676
1.2527425609669731 13.080489071798295 1020.330846140147 38.35231031542071 0.3499295126894742
1.2797831911503543 13.082936626093689 906.8515721476364 40.10199704532568 0.35539619803569694
1.3068264862522885 13.084524513788748 806.8828257407204 41.93386817089976 0.36100290093815285
1.3338625829882065 13.08523509439106 718.7138492593849 43.85137409529692 0.36675136775522194
1.360870071001371 13.08503508876183 640.7163188161429 45.859245824058156 0.3726495917117851
1.3878008472536947 13.083775912423967 571.8865063125238 47.96279405080774 0.3787074085567703
1.4146573242458438 13.081490042825314 510.8983293446268 50.166747612129356 0.3849303317941262
1.4413800073285512 13.078037007771693 456.95604244689804 52.47637703852629 0.3913255997718731
1.4679742700551872 13.073443913921254 409.05906881526823 54.89807129071806 0.39790476702857286
1.4943817866011746 13.067582196555648 366.58755845892676 57.43801837041705 0.4046768914577984
1.520593994453693 13.060436632652323 328.8937481754395 60.10284422135464 0.41165174078349887
1.5465768151718715 13.051953917979217 295.3394414724864 62.89965215183679 0.41883985100128296
1.5722934796794967 13.042076039647613 265.51118392853624 65.83606603150517 0.42625258959039974
1.5977168294665212 13.03075316186879 238.96278134068385 68.92027764541271 0.43390222405481293
1.622802995981087 13.0179361239834 215.26930550407698 72.16109863615048 0.44180199642015533
1.6475560081936016 13.003599453607046 194.13165235435093 75.56801751876338 0.4499662043891076
1.6719051140747438 12.987667899548974 175.2665626519358 79.15099746870504 0.45840918393875896
1.6958420588951915 12.970126015305253 158.39201825938045 82.92017092954778 0.46714396549127724
1.7193226438168498 12.950917298000915 143.3015958532123 86.88829883371729 0.47619220927605155
1.74230899794573 12.929981200830383 129.79991274637334 91.06699454867278 0.4855684078510903
1.7647886598065379 12.90733885859817 117.702515829805 95.47026574944464 0.4952941653582389
1.7867159499292817 12.882910189455895 106.84455568756806 100.11185781788615 0.505387318570207
1.8080549997171533 12.85665816309164 97.10258410776088 105.00825102381751 0.5158734020330487
1.8287669506440551 12.828529819568523 88.34694778517145 110.17598097067858 0.5267749452223758
1.8488472804268685 12.7985696342417 80.476977159142 115.6326309362293 0.5381151600577131
1.8682342167007826 12.766667386024091 73.39452338865004 121.39848692583489 0.5499236789328228
1.8869052196237301 12.732825149900819 67.0212864999132 127.49492311584916 0.5622301362262253
1.9048286943168955 12.697016584707711 61.26695954793316 133.9444167687966 0.5750639755456208
1.9219731684824253 12.659206727401292 56.08582589195741 140.77254571767332 0.5884611391541853
1.9382879299706897 12.619326177006135 51.39907596651843 148.0070309850003 0.6024600696676929
1.9537867838549499 12.577490043368034 47.170718044442644 155.67642760417135 0.6170967452491258
1.9684056463325743 12.533570357418808 43.34635016223698 163.81430600738742 0.632418525186509
1.982122965500362 12.487578893064091 39.887321211583796 172.45436483078387 0.6484667467875114
1.9949152796690226 12.439511026033024 36.75219080926381 181.63600383381004 0.6652949784758078
2.006753748263845 12.389358931677425 33.908348221326484 191.40114868238254 0.6829574105094747
2.017603601588647 12.337094998893757 31.332560771567604 201.79581521865882 0.7015132523752234
2.027443586245804 12.282717810338731 28.99736517913298 212.86999981884355 0.7210253735957652
2.0362561060675795 12.226261434788412 26.874322431567403 224.67903216413762 0.7415636343691712
2.044004875982233 12.167677034572058 24.94684610017034 237.28418753778018 0.7632055835027376
2.05066812710423 12.106981289453119 23.19218883841394 250.75223611980584 0.7860335593357943
2.056244338311676 12.044245687171776 21.596955123272057 265.156195107629 0.8101355150804856
2.0606940813155936 11.9794065374035 20.144810575664533 280.5779438745269 0.8356116662639034
2.064004564074249 11.912518697716772 18.824092768189736 297.10699143098617 0.8625683410398136
2.0661701417094744 11.843629930342335 17.621429050098342 314.8437486316032 0.8911262233369671
2.067167637133089 11.772748676381088 16.52613636203347 333.8976379825977 0.9214113307766141
