M[M_sun], R[km], Lambda[1], P_c[MeV/fm^3], rho_c[fm^-3]
0.24162668629717493 15.618656898711224 2160425.4255784233 3.5677272577965504 0.1711233750220791
0.25364449314583154 15.277249656348092 1723188.5245267912 3.784828817912543 0.1738882878751334
0.26604023135183064 14.981284104283322 1382919.8457099467 4.011420851613207 0.1766668951624657
0.27881690485790284 14.72345835265649 1116318.0756799506 4.247759164834083 0.17945787319453368
0.2919712296017238 14.498371616884446 905834.3439549103 4.49446904433859 0.18226779007510366
0.30550793162083617 14.301188636360692 738670.1101855775 4.751706188361199 0.1850923538903846
0.31942429310089615 14.128098894218333 605090.7536328482 5.020152767152854 0.18793818086652755
0.33372356820412635 13.975924766164928 497670.0428689466 5.300032958132611 0.1908018963826396
0.34840486831887635 13.841995016566036 410986.6078595034 5.592075287349138 0.19368979518242274
0.3634684830603409 13.723945214477702 340671.4372353328 5.896447161053567 0.19659694254942184
0.37892259416197344 13.619962215516683 283287.9379703365 6.214012632746614 0.19953101856631295
0.39475520281143456 13.528426293328687 236396.00205874245 6.545028571167348 0.2024881917621847
0.4109807636028419 13.447845956046217 197852.6044214265 6.890198509596507 0.20547219238517977
0.42759034488912295 13.377012417273571 166061.98187586915 7.250227106663547 0.20848608549574515
0.44458538636862066 13.314894877932634 139792.9095505059 7.625372649082151 0.21152540661246205
0.46196767580667286 13.260567166456148 117973.84042007528 8.016585543586672 0.2145963390873123
0.4797338619284926 13.2131192598978 99803.9193387652 8.424570241698238 0.2177005203232414
0.4978914988688983 13.171960080833475 84634.38579958999 8.849766793997132 0.22083540616470865
0.5164297989572206 13.136387516512224 71927.89377066921 9.293050169920207 0.22400442766244494
0.5353493230615355 13.10583536875097 61270.54727334094 9.755304535675132 0.22721049344738772
0.554657366467031 13.07980603091036 52302.07549813001 10.237339588936399 0.2304549546315012
0.5743406677537801 13.057824262206433 44726.788051526666 10.739625057335612 0.2337344890610757
0.5943986158870477 13.039510870986456 38322.148007451855 11.263408597364862 0.237055321520878
0.6148358972772029 13.024505163403763 32897.551334655014 11.809626580035946 0.24041904989731955
0.6356411818862759 13.012425233748942 28288.740422547657 12.379258156913112 0.24382730740336586
0.6568126831308144 13.003013776349839 24174.12676672456 12.972990521661798 0.24727802363776877
0.6783450979033558 12.995972205840541 21025.776305493855 13.592154192024033 0.25077602518338593
0.700234170508244 12.991047659191947 18170.287314682544 14.237945293084515 0.2543239295664039
0.7224696460082505 12.987998067139515 15727.917010219448 14.911553703640147 0.25792372177243295
0.7450584314758837 12.986653416831615 13632.054446659075 15.614005635563162 0.26157526293566125
0.7679796297239706 12.986760485447048 11834.547186952239 16.346574364140952 0.26528051823512566
0.7912252413204135 12.988146024197658 10287.357557716246 17.110872815181203 0.2690441447693109
0.8148000874428257 12.990677531709546 8955.105971945804 17.908356285538627 0.27286857561136113
0.8386844217380885 12.994137564970053 7806.556909949057 18.74038274325761 0.2767548251068381
0.8628648626523513 12.998404378327983 6813.111572560789 19.608311586024822 0.2807035067635007
0.8873484196910864 13.003359641132242 5954.54998703009 20.51422182610703 0.28472091683578604
0.9121044175819969 13.008858829149125 5210.343584564771 21.459907917835476 0.28881006932025066
0.9371254764527289 13.014747343192111 4564.533676380136 22.446844504236655 0.2929708085420841
0.962410275902244 13.020956170044306 4003.9120143814284 23.47707632198333 0.2972070879783063
0.987931882643855 13.027338484403476 3516.050595581035 24.55301689529638 0.3015249334404209
1.0136750694842858 13.03379881053945 3091.6487224397597 25.676597045546103 0.30592588999510983
1.0396404128270857 13.04025524817194 2721.0436604711153 26.849801477586258 0.31041139001015117
1.0657921011971356 13.046585227159305 2397.785834619673 28.075716284495073 0.3149900852686243
1.092124811298399 13.052713352573583 2115.3434258483603 29.356381957399172 0.31966232019979873
1.1186234929515926 13.058545497880566 1868.2750073191035 30.69458387377621 0.32443298155208794
1.145255591334979 13.064007274388649 1651.7573787636547 32.09369214445512 0.32930992482121957
1.1720190400751824 13.069012078906743 1461.7632887767209 33.55567885766203 0.33429104787433833
1.1988763729955005 13.073469386511489 1295.1748237105298 35.08507231848272 0.33938982104682686
1.2258229899113136 13.077335836894434 1148.8566259881657 36.68387790940157 0.3446028953197548
1.2528196006701817 13.08050101116808 1019.9941808462986 38.35716616271423 0.3499448196589295
1.2798634576677395 13.082941113398947 906.5370468008265 40.10719617186717 0.35541228239630035
1.3069079494726272 13.084524407319067 806.5781873123304 41.939404165235466 0.36101963708772916
1.3339450837457507 13.085235898616064 718.4761565165461 43.857309027059216 0.3667690094417402
1.36095489388005 13.08503030225877 640.5139330622212 45.865567257251506 0.37266797358080955
1.3878856067918526 13.083772986297586 571.7075709137523 47.969528986955964 0.37872657835913287
1.4147423521065092 13.081480511097475 510.71953946098364 50.17396990434822 0.38495056945283657
1.4414660389408716 13.078028328911351 456.7789989582208 52.48407522129962 0.39134673609750886
1.4680618627978863 13.073425700998929 408.9226260353472 54.9062794518203 0.39792686192205456
1.4944710403881123 13.06755836733484 366.46094674332454 57.446773358830306 0.4047000094507839
1.5206835664769363 13.060408953629384 328.77366062038186 60.112185894491866 0.4116759514186749
1.5466671656746112 13.051920834800127 295.23381485752304 62.90962364743537 0.4188652292503504
1.572383257694231 13.042039494945252 265.4148459734287 65.84671406693586 0.42627921631379073
1.5978077835134168 13.030709027489639 238.8738163804035 68.93165284748532 0.4339301865076593
1.6228951767033482 13.017882314060262 215.1897621131033 72.17325590487927 0.44183138880957296
1.6476460694758988 13.003543329824346 194.05577816459856 75.5810164289779 0.4499971284884557
1.6719959063299843 12.987607253383748 175.18716977136498 79.1648348357492 0.4584414663577632
1.6959329928270312 12.970052840984263 158.33465151154104 82.93498176301912 0.4671780007434583
1.7194129949371608 12.950839680158804 143.24781450940617 86.90415937828024 0.47622812560595024
1.7423923874279317 12.92988642382741 129.76432795129887 91.0839114060691 0.4856060416319258
1.7648773599688037 12.90724548683843 117.65588155010926 95.48840189128445 0.49533396010303915
1.7868049241126485 12.882806623941267 106.80654946958482 100.1312290359929 0.5054291208184849
1.8081421631782975 12.856546171056939 97.06721783964542 105.0289577708325 0.515917372853738
1.8288514879250177 12.82840846690915 88.30924357051018 110.19813281630505 0.5268212588390179
1.8489300981676744 12.798438401207743 80.44737146295957 115.6564380005007 0.5381643372373115
1.8683058745899623 12.766496868426769 73.37130428329698 121.42399252517558 0.5499755989863211
1.8869854736717246 12.732672539700722 66.99607893590486 127.52223521784359 0.5622848962367156
1.904908038254715 12.696853635877751 61.24300727461701 133.97366201299982 0.5751217147382457
1.9220476801792623 12.6590339122635 56.06277766106235 140.8039573342643 0.5885223409285386
1.938360577139442 12.619142265483678 51.38107805331796 148.0407970878293 0.6025250204464528
1.9538561422705472 12.57729411230807 47.15547265789342 155.71264358465774 0.6171653781574182
1.9684719886029491 12.53335931701701 43.33116033619459 163.85319133979286 0.632491163310602
1.9821851969777475 12.487355322116743 39.87043872677211 172.49627756538334 0.6485441340693058
1.9949730121129663 12.439274365248144 36.73836286359683 181.68109591178987 0.665377114321085
2.0068089191138863 12.389112217063774 33.8979525767768 191.44971293481896 0.6830447150485202
2.017654289289292 12.336834356580534 31.321671197887305 201.8481746729655 0.7016061852417836
2.0274906475503083 12.282445002193862 28.98593887071344 212.92637915661805 0.7211240058741332
2.036298122564799 12.225976037671645 26.864502237254037 224.73995324434063 0.7416689379066272
2.044041285318893 12.167376189070048 24.93673602066908 237.34994716144794 0.7633177097018731
2.0506993476151214 12.10666566602433 23.183187201288792 250.82330939897457 0.7861531485934994
2.0562703977084573 12.043915229940774 21.589963763218726 265.23325545785343 0.8102637479803712
2.0607153192949137 11.979062084697063 20.1379279865058 280.6612842101937 0.83574836381169
2.064019976567969 11.912163106827618 18.818517772192813 297.197409665835 0.8627148347815088
2.066178324804591 11.843256772405237 17.615329018426603 314.94197085221333 0.8912834577933401
2.0671692561644144 11.772359892991796 16.520606560144103 334.0043120359481 0.9215798139228178
