M[M_sun], R[km], Lambda[1], P_c[MeV/fm^3], rho_c[fm^-3]
0.24162668629717493 15.618656898711224 2160425.4255784233 3.5677272577965504 0.1711233750220791
0.25364222865873076 15.277363618611869 1723235.0894379842 3.78480677530648 0.17388801312468255
0.2660376572482535 14.98133929570493 1383089.1360916158 4.011374513636104 0.1766663351953592
0.27881216191524233 14.723595593646266 1094012.1176369926 4.247686963779561 0.1794570357711059
0.29196601073366996 14.498469238616646 905940.483334416 4.494369085575032 0.18226667701107221
0.30550080243005656 14.301289912866565 738790.798397415 4.751575077803071 0.18509093764612855
0.3194156144145692 14.128211211002 605131.4865158653 5.019989538987555 0.1879364873113123
0.33371326696999665 13.975995760045526 497700.0681244106 5.2998333149895505 0.19079988630745687
0.34839285381482565 13.842092846010061 411041.739904073 5.591838730749896 0.1936875064322506
0.3634543156828443 13.724051110645245 335764.94806351874 5.896168376408025 0.19659432414503378
0.37890726678765885 13.620050892824304 279425.7748180014 6.213688246352229 0.1995280605529828
0.3947381436625822 13.528513197980729 236427.2961011583 6.5446589198014005 0.20248495041907985
0.41096175290002435 13.44794276215232 197897.4638914983 6.8897764571519415 0.2054685980094544
0.42756783171410745 13.377109740556193 166102.18644840887 7.249748692646776 0.20848212769919142
0.44456212263763967 13.31497274117781 139831.06079830867 7.624839195762148 0.21152115998102547
0.46194163343866823 13.260614584191456 118000.68078605518 8.015987746261782 0.2145917146417059
0.4797041891260568 13.213206788247755 99828.88409799094 8.423903438835945 0.21769550689789025
0.4978603928668047 13.172022795287011 84658.8057927362 8.849033444187754 0.22083009639875248
0.5163983507371391 13.136418146247593 71950.86934521065 9.29223840528433 0.22399871278880074
0.5353132244108636 13.105897827500405 61287.85196728361 9.754408852242912 0.22720436112449788
0.5546177553115333 13.079862435227835 52311.18189464072 10.236354148293946 0.2304483919812441
0.5742985127855317 13.057874919495362 44739.810590053276 10.738554141212123 0.2337276134478346
0.5943534940170203 13.03957126402123 38003.42810429625 11.262236100750751 0.23704799574081517
0.6147872794592864 13.024529973435298 32909.50660489397 11.808345576392862 0.2404112592578622
0.6355887579451694 13.012457222428852 28301.106273850542 12.377861287574012 0.24381903643635722
0.6567591460465512 13.003029575886991 24377.087222000955 12.971484201271016 0.2472694141281108
0.6782894667453289 12.995982661909665 21033.521228161277 13.590517030536203 0.25076690990684347
0.7001751830085475 12.991056532270058 18040.702889008626 14.236168512322525 0.25431429044405424
0.7224072328478914 12.987995537321487 15734.082229463298 14.909627961413124 0.2579135396473647
0.7449922185068936 12.986655280207582 13638.025311282894 15.611939778791557 0.2615647036461818
0.7679106024892952 12.986757453739758 11757.75724881063 16.344340416895683 0.2652693825684013
0.791152068760678 12.988143383860427 10292.213031620582 17.108459565764996 0.26903240995459465
0.814725568101449 12.99065318035267 8959.114645083986 17.905751778933368 0.2728562174137503
0.8386055427607112 12.99411335157106 7809.952628199045 18.73759853145758 0.2767420330942068
0.8627834775271932 12.998385857753473 6816.585734990457 19.605311467688118 0.2806900471245995
0.8872565663218003 13.00333200434012 5956.985547407189 20.510991361780988 0.2847067604402179
0.9120161847881372 13.008825709280815 5212.877030362802 21.456431679289846 0.28879518507347174
0.937033095590678 13.014717138977755 4566.739671447125 22.4431369721518 0.2929554095645523
0.9623081177456712 13.020925773752966 4005.9189252449987 23.473090969796335 0.29719090227891143
0.9878325301233424 13.027311524342998 3517.8057149852443 24.548734964426597 0.30150792336180327
1.0135718950500587 13.03376969306334 3093.2844528280443 25.67203511067891 0.30590828460987823
1.03953286066329 13.040230614573899 2722.427727087662 26.84490376863904 0.3103928873476768
1.0656820563311062 13.046555958771188 2399.1967067520663 28.070459875639376 0.31497063952660537
1.0920107109753714 13.052684147288826 2116.462574277685 29.35078547814557 0.31964217631074154
1.1185076479073974 13.05852079648049 1869.2702354122966 30.688580508584757 0.32441180429236677
1.1451359091191902 13.063978514962823 1652.7439089116497 32.08730148689494 0.3292879671512972
1.1718970773615027 13.06899331227612 1462.7149506569765 33.54882594706058 0.33426795285904676
1.1987507925518708 13.07344648070289 1295.922256703141 35.07772481103676 0.3393655248316168
1.2256946183227622 13.077316260738563 1149.5398085263412 36.67605712678741 0.34457766668567263
1.2526876683137522 13.080487995849586 1020.5629739864116 38.34881002727382 0.3499184245439643
1.2797276116076102 13.08293246104777 907.0540727268333 40.09827073252717 0.35538467006877905
1.3067698829215195 13.084518416168379 807.0758122488452 41.9299004316515 0.3609909058612955
1.3338053037858602 13.085234003407532 718.8686791944316 43.84712044848833 0.3667387237170827
1.3608113373422996 13.085034306123514 640.8849594014972 45.85471518185901 0.37263641721971114
1.387741301291284 13.08378080954637 572.0563943243584 47.95796706318552 0.378693669391812
1.41459559066075 13.081497503671544 511.0253898571294 50.161571354465224 0.38491582734971597
1.441318181596067 13.078047412312413 457.07962662730887 52.470859727344816 0.3913104513025267
1.4679104996125985 13.07345901697729 409.18874768322644 54.892188498193704 0.3978889316090945
1.4943193021939185 13.067594612313844 366.6894420230115 57.431743690147236 0.4046603228448412
1.520529653679812 13.060455783659062 328.97839372296625 60.09614909122327 0.41163438914309297
1.5465122318135398 13.051976642720284 295.4174396410957 62.89250565920364 0.41882166260936027
1.5722277222240104 13.04210233142707 265.57766826136236 65.82843469875351 0.4262335065034204
1.5976513896083397 13.030783980195691 239.02632624435688 68.91212519364757 0.43388218374725535
1.6227322138792386 13.017942430866324 215.34265798739278 72.15238572456832 0.44178093138524516
1.6474905963632942 13.003640856836196 194.18978966106974 75.55870145690724 0.44994404169872687
1.6718394187651302 12.987714323285154 175.30937623643922 79.14108053788037 0.45838604785260206
1.6957771279785903 12.970175907328963 158.43576878873313 82.9095563851654 0.4671195732992011
1.7192419636844245 12.950938600722086 143.3453938932631 86.8769320410157 0.47616646908315086
1.742244727170168 12.930045295109087 129.8385008673418 91.05487077608134 0.4855414369196746
1.7647253366375566 12.907406529194558 117.73242120916005 95.45726821791759 0.4952656458718608
1.7866521264970912 12.882985402279166 106.86638624270647 100.09797521052387 0.5053573605057992
1.807991641963471 12.85673925424537 97.11776471790894 104.99341136010965 0.5158418899760598
1.8287053495258072 12.828617711043846 88.36998990220049 110.160104264946 0.5267417488517899
1.8487866153225736 12.79866415919316 80.500105522721 115.61556957474657 0.5380799171723131
1.8681751566092375 12.766771208257897 73.41441265047014 121.38020839639445 0.5498864705452159
1.8868485794441707 12.732933159030402 67.03931923641325 127.47532480787898 0.5621908025785067
1.9047739950050668 12.697131895508493 61.286926246335256 133.92345843277775 0.575022597282814
1.9219195018533206 12.659333430009893 56.10068275227355 140.75003499199732 0.5884172797001721
1.9382363461484222 12.619458494303675 51.41493364578576 147.98283308197952 0.6024135237973116
1.953747928471427 12.577667013392448 47.184180558631645 155.650474171097 0.6170475608954746
1.9683575744141406 12.53372005106682 43.35779319788766 163.78643978713183 0.632366470855487
1.982079617422533 12.487737890691381 39.89797305867203 172.4243292809862 0.6484112894288291
1.9948741385058613 12.43967875356325 36.76255403094746 181.60369008515627 0.6652361185345794
2.0067079105365635 12.38951969939302 33.91910121208241 191.366346922201 0.6828948469678119
2.0175680929828115 12.337280912320582 31.343112284327653 201.7582940009156 0.7014466559148922
2.0274099106162002 12.282914291135157 29.00454586836549 212.8295981573362 0.7209546933061128
2.0362272521821256 12.226466633859001 26.88236812080275 224.6353761627697 0.7414881739315047
2.0439783776906846 12.167892625340109 24.953215538563455 237.23706454157664 0.7631252344654184
2.0506451352709267 12.107207800620174 23.197959940812684 250.70121925687596 0.7859475812919366
2.0562200830819495 12.04445950420624 21.602739845797206 265.1009748501173 0.810043625363757
2.060680920380625 11.979652268509989 20.15068061780164 280.51822388051374 0.8355137115740149
2.064000463390396 11.912789742451729 18.83011102330915 297.0422000458928 0.8624633673865697
2.066163475054973 11.843896151733192 17.62562051705559 314.77336566153946 0.8910135540451598
2.067165542182256 11.773026067706722 16.530216247877767 333.8211992831498 0.9212906019567163
