M[M_sun], R[km], Lambda[1], P_c[MeV/fm^3], rho_c[fm^-3]
0.24162668629717493 15.618656898711224 2160425.4255784233 3.5677272577965504 0.1711233750220791
0.2536439788823805 15.277276620745187 1723218.8098977306 3.784819219491858 0.17388816823545
0.26604004170379597 14.981264685999413 1353359.9359300944 4.01140067376153 0.17666665132503634
0.2788148230565501 14.723516788989137 1116492.0430239215 4.247727724845922 0.17945750853805006
0.2919689991675316 14.498411646533684 888703.9788110509 4.494425517145467 0.1822673053897061
0.3055041939143613 14.301241109832988 738660.5314610736 4.751649095945419 0.18509173718333166
0.3194206603335606 14.12815093002733 605110.3541271222 5.020081688896218 0.18793744340218127
0.3337194863316825 13.975931311113966 497676.50108575117 5.299946022662041 0.19080102108670302
0.34839970389908825 13.842037565619902 411012.0730336504 5.591972277545865 0.19368879853423907
0.36346182354250567 13.72400566173325 340649.62450444506 5.896325762570106 0.1965958023491745
0.37891555968037793 13.620007031431152 283310.48338719667 6.213871376404596 0.19952973047855746
0.39474862864179816 13.528451843581424 236403.64184736263 6.54486760356489 0.20248678029376768
0.41097211527090205 13.44788566086653 197875.3528572869 6.890014723151795 0.20547062718269363
0.42757975622473504 13.377073471513398 166088.785820318 7.2500187766497 0.208484362034931
0.4445751027562551 13.314939064340763 139801.75278445336 7.625140351244309 0.21152355737230583
0.46195605243062726 13.260580312254007 117979.64910839131 8.016325225952437 0.21459432531995373
0.47972083272224314 13.213157261344007 99813.5665028963 8.42427987423582 0.21769833716585027
0.49787719470194347 13.171993811175104 84647.3613945476 8.849447447289004 0.22083309395809544
0.5164160247932466 13.136403198917902 71940.31453267019 9.292696675755886 0.22400193904149032
0.5353339046688883 13.105855061874642 61277.948284605445 9.75491449713698 0.2272078230370961
0.5546402807111755 13.079825688655431 52301.24226393539 10.236910463453968 0.2304520968231906
0.5743225093180426 13.057841549873174 44730.536271775665 10.739158709434255 0.23373149496309248
0.5943788556305547 13.039539466535949 38329.46095214576 11.262898013584268 0.23705213138417716
0.6148155441745509 13.024503620240564 32902.896905070964 11.809068743918722 0.2404156573229978
0.6356208421836259 13.012425315216069 28292.729103197453 12.37864986380546 0.24382370565473832
0.6567893457885743 13.003028546103701 24372.08391232143 12.972334564953247 0.2472742744582104
0.6783212447996734 12.995973550668076 21029.210529992633 13.591441256614702 0.2507720557500336
0.7002081581533596 12.991053925681463 18172.89206754695 14.237171556108095 0.25431973200554453
0.7224419446662134 12.987998605263966 15616.183236572628 14.910715096594636 0.25791928774086803
0.7450287438806079 12.986644764597045 13634.742524740817 15.613106011092881 0.2615706646521137
0.7679500058864659 12.986759708584893 11836.878677965073 16.3456015389465 0.2652756689455243
0.7911936249061334 12.988136874166049 10289.236168390133 17.109821906563287 0.26903903455656947
0.8147671210747535 12.99066765022134 8956.884912099664 17.90722208706877 0.2728631939207207
0.8386495338515633 12.994135673000764 7807.915399466208 18.73917028566219 0.27674925449152954
0.8628306429568667 12.998399488229845 6814.945581960936 19.60700510372989 0.2806976454013986
0.8873096351983325 13.003350123302512 5955.661429686757 20.51281503066709 0.28471475204004115
0.9120654038252873 13.00884926725257 5211.418314323142 21.45839409017123 0.28880358754857716
0.9370852941973196 13.014737596472223 4565.429295951102 22.445229950568624 0.29296410260533456
0.9623633245820017 13.020942952632817 4004.54447441911 23.47534077990852 0.2972000394262607
0.9878879053090562 13.027335546220128 3516.749401021377 24.55115219529216 0.3015175258725188
1.0136298957909453 13.033790499207855 3091.9584481631646 25.674610405832606 0.30591822316985023
1.0395944562911639 13.040238854774291 2721.6273103169196 26.847668609982197 0.3104033324204075
1.0657441215701995 13.046569293413393 2398.4830889925156 28.073427204532333 0.31498161696647387
1.0920754865351248 13.052695805862419 2115.8992269326945 29.353944778253037 0.3196535478513083
1.1185728719612915 13.05853848314573 1868.7387067471425 30.691969496650167 0.32442375916736843
1.1452028891496533 13.063988860181194 1652.22667803091 32.09090910243215 0.32930036256294726
1.1719665306711178 13.069005742573884 1462.1506397913613 33.5526945044694 0.3342809902963795
1.1988210897110632 13.073458563389918 1295.490824760906 35.08187256783211 0.3393792403388796
1.225767726615379 13.077327135417102 1149.163253884433 36.680472047071106 0.34459190853509286
1.2527629741128763 13.080491982353744 1020.2709217123365 38.353540366204534 0.34993340237331305
1.2798039142680921 13.082933583651583 906.7822928688379 40.103309228213476 0.3554002574911798
1.3068475594049864 13.084519790024926 806.8185055526891 41.93526537224344 0.3610071248894899
1.3338844139175117 13.085234434589898 718.658967632732 43.85287197973234 0.3667558202424128
1.3608913648756185 13.085035040407694 640.6782968986952 45.860841253068244 0.37265423100262374
1.3878223371013199 13.083774211194829 571.8511642721919 47.964493838799875 0.3787122467020994
1.4146794698375462 13.08148815508258 510.85321746883864 50.16857039741973 0.38493543943938496
1.4414016464193204 13.078036676113935 456.90578073278596 52.478319927545286 0.3913309342171817
1.4679965764604126 13.073438981540585 409.0441494483258 54.900142886176184 0.39791034339097786
1.4944051043664581 13.067574940313524 366.5574241862304 57.44022797184629 0.4046827260229549
1.5206159013379552 13.060431271133451 328.8368010542513 60.105201887496 0.4116578511016375
1.546599945355702 13.051944683223176 295.31218105191596 62.902168769253095 0.41884625599268743
1.5723163407164982 13.04206666954698 265.48906614368315 65.83875339011178 0.42625930966141534
1.5977399207991403 13.030741283520062 238.94076809004252 68.92314852170344 0.4339092812255247
1.622826418000104 13.01792289175545 215.2521475875012 72.16416688499378 0.44180941446501754
1.6475783636348877 13.003587634924628 194.1066118913966 75.57129817474772 0.44997400899194834
1.6719276740706523 12.987651479635945 175.24563497513265 79.15448972825402 0.4584173313403327
1.6958650325883031 12.970108756931868 158.37682438303676 82.92390886412528 0.4671525552540497
1.7193454091192324 12.950898129604427 143.29027149352044 86.89230168462889 0.47620127376392624
1.7423313381051593 12.929958451333254 129.78695231255216 91.07126398209728 0.48557790576893783
1.764811267821489 12.907316741679612 117.68872855465484 95.47484289305632 0.4953042086333494
1.786737503678037 12.882881986998244 106.8290760276761 100.11674665709339 0.50539786847312
1.8080770667700077 12.856630580124852 97.09477191833582 105.01347690896226 0.5158844992111074
1.8287877189856652 12.828498693530607 88.33691265043996 110.18157155280515 0.5267866336424643
1.848867697176798 12.798538086936354 80.47025388521774 115.63863924075919 0.5381275711415654
1.868255201005442 12.76663247268091 73.38562586755677 121.40492388422761 0.5499367822212283
1.886925242548884 12.73278666629357 67.01414149529234 127.5018248664818 0.5622439879846749
1.904849054404881 12.696975234864082 61.261399680448676 133.95179748665257 0.575078547374361
1.9219920408397615 12.65916290481189 56.07954936005819 140.78047315141436 0.5884765848097635
1.9383072649416238 12.619290543710973 51.39729311614866 148.0155526061013 0.6024764614298577
1.953804813795698 12.577440065055647 47.16584781827026 155.68556748554587 0.6171140662392456
1.9684216855252576 12.533517792366725 43.34239748251437 163.82411953431756 0.6324368569363705
1.9821389666062026 12.487521368420893 39.882787913765526 172.46494235775293 0.6484862770345369
1.9949276740440258 12.439452595774751 36.746063464926 181.64738370395995 0.6653157070670767
2.0067677187764144 12.389296060020584 33.90549785112666 191.41340479200184 0.6829794434647272
2.017616682422442 12.337028315926675 31.330448788458277 201.80902908377826 0.7015367056823701
2.0274548370672454 12.282648139879628 28.99357162188672 212.88422813852094 0.7210502651897875
2.0362670147951722 12.22619221369652 26.872323621430407 224.6944066279222 0.7415902094958369
2.0440152028868748 12.167600176727161 24.944084140973956 237.30078304345332 0.7632338803643994
2.0506754109189953 12.10690201038249 23.189929155592193 250.7701725602997 0.786063739533326
2.056251900529238 12.044161304564174 21.595442098586066 265.17564241510235 0.8101678765299861
2.060700494725353 11.979319256157622 20.143521313704802 280.5989759662767 0.8356461637895495
2.0640083657411292 11.912430355500112 18.823119959109846 297.1298096541133 0.8626053106498742
2.0661712827751604 11.843535863792557 17.61958563915412 314.86853620803595 0.8911659033714949
2.067167466025619 11.772651790865037 16.52488954037464 333.92455839178257 0.9214538494125345
