M[M_sun], R[km], Lambda[1], P_c[MeV/fm^3], rho_c[fm^-3]
0.24162668629717493 15.618656898711224 2160425.4255784233 3.5677272577965504 0.1711233750220791
0.25364587210578066 15.277243987565726 1723220.5239664651 3.784853882608012 0.17388860029447084
0.2660432012178692 14.981209256882334 1382908.470325364 4.011473543093352 0.17666753190790688
0.278820985983643 14.723389164443255 1116336.5017931454 4.247841266235888 0.17945882544707045
0.29197774678636634 14.498263668757588 905735.1410284047 4.494582710584617 0.18226905577513372
0.30551500344820687 14.301109342301658 738517.3582824632 4.75185527954676 0.18509396435973346
0.319433925609195 14.128002169515415 604994.9909532946 5.020338382064237 0.18794010669287392
0.33373495817077364 13.975772058720898 497589.0396077441 5.300259984202068 0.19080418215845468
0.34841834919353115 13.841881199843113 410915.9534331196 5.592344291961851 0.19369239787605136
0.36348356491321226 13.723840838518505 340569.56891176134 5.896764188597861 0.19659992013920802
0.3789396866589161 13.619868427467482 283225.1670546398 6.214381520500115 0.1995343823784551
0.39477535627575083 13.528321003136874 236345.74085100167 6.545448936684741 0.2024918777998862
0.4110032675315241 13.447733284586299 197803.41694177195 6.890678469084703 0.20547627992158843
0.42761355478984153 13.376942767766513 166022.33003976673 7.250771164950454 0.20849058635052253
0.4446124368960659 13.314808986699559 139747.201292901 7.625979302958238 0.21153023596739287
0.4619954595172476 13.260457513438649 117929.49786611424 8.017265375955988 0.21460159814030982
0.47976489227933566 13.213063519436039 99771.13547634409 8.425328554922077 0.2177062217785822
0.497926146717577 13.17189483736371 84608.40415131269 8.850600792477525 0.22084144467004682
0.5164692917642802 13.136312027109573 71911.14566201015 9.293973352204635 0.22401092692328103
0.5353906939649007 13.105765767691784 61249.24324938831 9.756323162534567 0.22721746750605804
0.554701547442787 13.07975201961662 52280.6277686229 10.238452886397159 0.23046232279659062
0.5743878036970473 13.057792999279856 44709.499553796464 10.74084298658545 0.23374230854412692
0.5944479194503348 13.039474762953798 37976.1167008669 11.264742061719794 0.2370636530302984
0.6148889989558594 13.024465049112422 32886.48975880529 11.811083458706833 0.24042791015038692
0.6356977683136523 13.012405341295231 28276.962056677712 12.380846820748895 0.2438367139998211
0.656872930508352 13.00299137764095 24358.75975500621 12.974703675152094 0.24728781532060765
0.6784098761405187 12.99595823318082 21016.400405606822 13.594016166099397 0.2507863921561848
0.7003025446586983 12.991032289509874 18162.06210411508 14.239966073600534 0.2543348923993275
0.7225412122610897 12.987991754833166 15720.756864952067 14.913743918156628 0.2579353022621892
0.7451329139957836 12.98663815530587 13625.927129888098 15.61635522160094 0.2615872724609444
0.7680588439176914 12.986749185731433 11828.924627692151 16.34911514527053 0.2652931833918067
0.7913081275252984 12.988142428004616 10283.491824636752 17.113617546003393 0.26905749146585534
0.8148857104918147 12.990682914916036 8950.410857872395 17.911318566391206 0.2728826314221934
0.8387741750850746 12.994141420156042 7802.616217246876 18.743549434118385 0.2767693744128535
0.862959902792535 12.998419909626394 6809.573432153083 19.61172386884478 0.2807188155244997
0.887445768699588 13.003377231228031 5951.382748034518 20.51789612799777 0.28473701819638075
0.9122067521839357 13.008871053799322 5207.6401768941605 21.463861790961456 0.2888269986599859
0.9372305935460696 13.014775769866517 4562.420459259104 22.451061476362018 0.29298832344351305
0.9625189016478116 13.02099466984062 4001.6917210784504 23.481609323075887 0.297225497842629
0.9880450901529513 13.027363437435737 3514.03403286563 24.557887266912562 0.30154428111477805
1.0137926738347818 13.033821811541067 3089.882655631558 25.68178593268942 0.3059459149099191
1.039760693277291 13.040287331123388 2719.4138888425923 26.85537232798384 0.3104324356798127
1.0659152555506164 13.046621516295136 2396.3476486186714 28.081695181487714 0.31501220380842376
1.0922537069257021 13.052733890269744 2114.02205897574 29.36274770762182 0.3196852329920097
1.118756342245265 13.058574575615118 1866.92658143783 30.701412493538598 0.32445706995078333
1.14539272318466 13.064033241947465 1650.7124268359903 32.10096134307039 0.32933490107167435
1.1721594495907801 13.069038139483585 1460.9780187628319 33.56347392011452 0.3343173180385078
1.1990196571151666 13.073488047798577 1294.4375203449213 35.093430044995415 0.33941745778261956
1.2259705113667352 13.07735216713904 1148.0970645697016 36.69277404234157 0.3446315928675274
1.252970123781632 13.080509796113924 1019.3675730665087 38.366636812737816 0.34997464182793525
1.2800167037376826 13.082952103146532 905.9336235852537 40.11734900724618 0.3554436918771199
1.3070709190125305 13.084554245960781 806.0797084838465 41.95021489620181 0.36105231956525896
1.3341043576675031 13.085239676264907 717.9542253021417 43.86889888815067 0.36680346050273877
1.361115400641025 13.085031497300552 640.0563471696436 45.87791195907743 0.37270387029681834
1.3880562765600488 13.083779319349626 571.2767296311227 47.98268126958035 0.3787640140011311
1.4149027734746824 13.081448255056221 510.36355977944714 50.18807402213507 0.3849900907451812
1.4416361522427792 13.078000260296555 456.4700614449865 52.499108779612264 0.39138801261604783
1.4682327345792372 13.073391104209085 408.6438751614482 54.922309033684556 0.3979700106735757
1.4946434522713745 13.067516582749295 366.1940996130076 57.463870941376534 0.4047451564886456
1.5208574156440622 13.060358720696396 328.5489516922385 60.13042933198395 0.4117232325858694
1.54684281694093 13.051859326343333 295.02457159329015 62.929097202504344 0.4189147909962172
1.5725618414561375 13.041963745615872 265.2177959878953 65.86750899538725 0.4263312165922848
1.5979741894705033 13.030618186111123 238.67420199348032 68.95386804270437 0.4339847957660109
1.623083725177884 13.017798578980278 215.02128337652584 72.19699860859507 0.44188879107722123
1.647825345037468 13.003431479178573 193.90607780611182 75.60640301598842 0.4500575225773344
1.6721738067859193 12.987482667966065 175.07181513284377 79.1918590814572 0.4585045136138225
1.6961101824586253 12.969917725729003 158.20847204919374 82.96390740438622 0.4672444717830747
1.7195904469659808 12.950685733938824 143.1413354949251 86.93513535828413 0.4762982709601869
1.7425747370960958 12.929738685775352 129.6543093546768 91.1169506166774 0.48567954171423294
1.765051001799787 12.907061943689715 117.56139632216183 95.52382270380875 0.4954116812748005
1.7869607390426656 12.882575331010633 106.72531794752423 100.1690622952151 0.5055107633505369
1.8083109848765375 12.856327753421077 96.99367628730721 105.069399714393 0.5160032514056583
1.8290148964322994 12.828168462267447 88.25014628850701 110.24139749505987 0.5269117137735538
1.849094336578124 12.79818294024443 80.38958220841599 115.70293591264239 0.5382603858786004
1.8684647609854586 12.766220341530701 73.31490633919645 121.47380828844392 0.5500770056248947
1.8871403752368385 12.732379602805642 66.94207150259801 127.5754591398818 0.5623914197027376
1.8982860465206128 12.702565447572146 62.93496670525837 135.40955133179585 2.2021502696037816
