M[M_sun], R[km], Lambda[1], P_c[MeV/fm^3], rho_c[fm^-3]
0.24162668629717493 15.618656898711224 2160425.4255784233 3.5677272577965504 0.1711233750220791
0.253644600257037 15.277271924021699 1723151.5223984136 3.784843265897185 0.17388846796229204
0.2660421915219407 14.981219279188762 1382998.3233995014 4.011451224381234 0.1766672621994425
0.2788191236826296 14.723441908472656 1116371.2005585379 4.247806490170759 0.17945842209712137
0.2919746077350925 14.498338974192349 905812.5608862166 4.494534564331741 0.18226851965543378
0.3055117083794963 14.30112793310222 738630.4833515416 4.751792127989217 0.18509328220238544
0.31942942918099615 14.128036518743544 605038.4660054509 5.020259759713989 0.18793929095564466
0.33373002586164324 13.97586073519945 497620.0759574476 5.300163820763498 0.19080321395219227
0.34841265207220457 13.841929096622962 410945.7515534281 5.592230347032996 0.19369129542751953
0.3634778692764335 13.723875749170851 340622.0733506894 5.896629901792976 0.19659865888911843
0.37893237664157503 13.619906554308935 279330.83879414736 6.214225266320483 0.19953295752847916
0.3947663333224373 13.528377842762259 236359.75324748905 6.545270877057976 0.20249031645750626
0.4109937134897425 13.44777663110102 197820.5719837384 6.890475165986362 0.20547454850709013
0.4276037387668177 13.37697205746931 166036.80444599746 7.250540710085843 0.20848867985648814
0.4446018698764201 13.314854445926088 139768.1357396505 7.625722333000388 0.21152819032129724
0.4619826291958874 13.260492120000483 117945.0574056816 8.016977407954062 0.2145993704750028
0.479751844568565 13.213100211898896 99791.47584398737 8.425007342718864 0.21770380671186046
0.49791181127744066 13.171915089497775 84620.72112282897 8.850247520201757 0.22083888682782862
0.5164527175518824 13.136335489569516 71920.736840635 9.293582301783406 0.22400817390393643
0.5353721297397058 13.105803492456456 61258.22186985257 9.755891681793495 0.22721451336050857
0.5546817605728005 13.079781653882346 52289.19567490775 10.237982778963662 0.23045922068147864
0.5743674029011632 13.057816378610074 44717.04274301892 10.7403270810359 0.23373899627069125
0.594425273284184 13.039502785059778 37982.77449187921 11.264177215099478 0.237060123858393
0.6148671957493494 13.02447024740471 32890.077075778354 11.81046633320671 0.240424156997695
0.6356739809896922 13.012407539750068 28282.169400229148 12.380173870281352 0.24383272941016787
0.656847265904173 13.00300447791136 24361.81581701046 12.973977990075698 0.24728366760229212
0.6783829309431232 12.995956383200646 21020.35231115882 13.593227439432141 0.2507820007374141
0.700272877149839 12.991058661296096 18165.72177211083 14.239110075068556 0.2543302485655145
0.7225106476826382 12.987992998682476 15724.23521268333 14.912816145630742 0.25793039677911833
0.7451014155786428 12.986646123664704 13628.77583345868 15.615359937609911 0.2615821852293802
0.768024652035187 12.98675870181522 11831.327686491024 16.348038868661543 0.2652878184228504
0.791272733165078 12.988142606047493 10285.621819378164 17.112454873532958 0.26905183778334557
0.81484933478293 12.990674628819331 8952.434285890686 17.910063736519316 0.27287667734417587
0.8387362209014326 12.994135550838356 7804.418939761236 18.742208013143433 0.27676321127754344
0.8629182916927847 12.998426025683631 6810.934640182473 19.61027841098147 0.28071233066666956
0.8874045203333866 13.003376402979555 5952.63200881743 20.516339674139843 0.28473019757424334
0.9121631253332729 13.008870561045685 5208.776411717981 21.46218690536895 0.28881982728490385
0.9371865282256783 13.014761639677378 4563.007855241906 22.449275137026284 0.2929809040068998
0.9624735015622835 13.020968670881807 4002.6525329143583 23.47968910714339 0.29721769927517544
0.9879972775063134 13.027350705455463 3514.86456010892 24.555824133244297 0.30153608526412956
1.0137436135169604 13.033805875658427 3090.738584436723 25.67958786876425 0.3059374321579087
1.0397082545561933 13.040274254374985 2720.0564111201084 26.85301245501578 0.31042352050468064
1.0658638728201222 13.04659681503378 2397.004431387714 28.079162449433575 0.3150028341312392
1.0921992400058838 13.052729334513621 2114.738130764564 29.360051094665494 0.31967552684109574
1.1186998126502152 13.058562349961457 1867.4053376505371 30.698519796051002 0.3244468657729537
1.1453341521986413 13.064017979813634 1651.1070332151705 32.09788200417192 0.3293243207665219
1.1721001721987285 13.06902442592782 1461.2511156142818 33.560171809334925 0.3343061895847187
1.1989583627978022 13.073480830699006 1294.7088440219957 35.08988957191879 0.33940575039797954
1.225907506804707 13.077346021274604 1148.4385856897054 36.68900548348069 0.3446194360800026
1.2529064885140748 13.080507368129418 1019.6082294813501 38.362624869886034 0.3499620086045061
1.2799507867971551 13.082947903827115 906.2010115201234 40.113048066735395 0.3554303862040309
1.3070036567378502 13.084549269504663 806.3271345437868 41.9456352482849 0.3610384745957926
1.3340366519471911 13.085239355284836 718.1380154423284 43.863989171429125 0.3667888662855238
1.3610468684869002 13.085029258210309 640.2472947630546 45.87268246372857 0.3726886636347171
1.3879869235213806 13.083781865540912 571.4289993269841 47.97710965200601 0.3787481553789572
1.4148320769953486 13.081455543693806 510.54594174016717 50.18209916781949 0.3849733485449464
1.4415646062796996 13.07801097069795 456.5975059183229 52.49274017614149 0.3913705268170266
1.4681602894306023 13.073405778832642 408.7584481282061 54.915518472509355 0.3979517317041478
1.4945710137068442 13.067535408299383 366.31558963058075 57.456627928571415 0.40472603094429094
1.5207837378801352 13.060380200864714 328.65324860099395 60.12270088358616 0.41170320291432266
1.5467681037607985 13.051887266408569 295.1117893733926 62.920847619427214 0.418893795151415
1.5724859891290386 13.041996206854998 265.2968916023911 65.85869961563276 0.4263091876537547
1.5978998805105737 13.03065268041532 238.76990757254464 68.94445696832256 0.43396166151995924
1.6230086665330998 13.01784014413852 215.0967821003292 72.18694040452446 0.4418644735551297
1.6477502690000019 13.003477941263414 193.9687671345331 75.59564837755734 0.45003193754737364
1.6720981788065334 12.98753418043411 175.12434436958046 79.18041064643326 0.45847780454589027
1.6960352148618505 12.969972377972628 158.25906239030368 82.95165343396351 0.4672163121947327
1.7195148211415248 12.9507509557935 143.18784370696875 86.92201274878501 0.4762685547061181
1.742496941998289 12.929802487678536 129.69595259932512 91.10295390679313 0.48564840418674415
1.7649779845667632 12.907138693646766 117.59904154755894 95.50881700566688 0.49537875542246773
1.786888682734005 12.882660747963023 106.75528485015336 100.153034541299 0.5054761761529304
1.808239964616619 12.856420154382256 97.02526632539173 105.05226676261906 0.5159668695466543
1.8289440329173603 12.828265421425389 88.27421660793063 110.2230686557896 0.5268733930462532
1.8490241148328246 12.798289635823924 80.4119872304968 115.68323726226582 0.538219695264404
1.8683965305080572 12.766337588869362 73.33505613939796 121.45270397644595 0.5500340449795345
1.887072236443667 12.732505542742501 66.96233128684405 127.5529109058382 0.5623462911975277
1.9049928098466578 12.696672047053802 61.21503645633667 134.00658354448365 0.5751867120634395
1.9221316506706672 12.658837435127726 56.036646313578956 140.8393177987964 0.5885912365603522
1.9384412805420166 12.618931693441077 51.35825480171894 148.0788082897251 0.6025981368844746
1.9539338870453502 12.577071722779296 47.13327765820271 155.75341292343913 0.6172426401354774
1.9685460849706342 12.533127892176912 43.31391771366522 163.89696593152405 0.632572934611748
1.982255387275671 12.487108607627478 39.85281750201099 172.54346056857565 0.6486312523258175
1.9950385750471165 12.439009638740405 36.72284371223498 181.73185840237264 0.6654695789015433
2.0068716073634656 12.38883306327068 33.88293027271122 191.50438463609314 0.6831429990215893
2.0177127892433906 12.33654020636508 31.309719840180303 201.90711931318944 0.7017108061637718
2.0275423777545942 12.2821429842069 28.9738493848929 212.989849719069 0.7212350438258179
2.03634468705078 12.22565227352521 26.85319073008539 224.80853736228147 0.7417874871872443
2.0440819663044194 12.167039518202792 24.927283637750218 237.42397903250946 0.7634439408427165
2.0507344200365245 12.106310926233428 23.17358981140222 250.90332401974646 0.7862877827234507
2.056299654350333 12.043543614951409 21.58129891579274 265.3199186715733 0.8104078131837819
2.060739358310099 11.97867633321041 20.13112293052422 280.7551107882694 0.835902261237679
2.064036443233328 11.911756010105732 18.810720375696185 297.2992056641216 0.8628797625386536
2.0661850026512636 11.842831366538523 17.609357817024357 315.05255392096046 0.8914604795363885
2.0671712360373005 11.77192633306519 16.513654777881023 334.1244117113496 0.9217695017666201
