M[M_sun], R[km], Lambda[1], P_c[MeV/fm^3], rho_c[fm^-3]
0.24162668629717493 15.618656898711224 2160425.4255784233 3.5677272577965504 0.1711233750220791
0.2536458474339937 15.277225172112136 1723080.3758106728 3.784857649851209 0.1738886472513399
0.2660436929062142 14.981203246964629 1382968.096621709 4.011481462706548 0.1766676276117585
0.2788215830870731 14.723385234572516 1116281.6576157366 4.2478536062714545 0.17945896857288698
0.29197860404420517 14.498260099452894 905723.5781318019 4.494599794978087 0.18226924601382008
0.305516060013423 14.301084049626521 738532.7544239799 4.751877688535416 0.18509420641957913
0.31943656362574385 14.127954585417436 604981.06415956 5.0203662808478855 0.18794039615352223
0.33373639779123193 13.975800701279391 497565.87207333196 5.300294107446828 0.1908045257229087
0.3484203760815392 13.841864083929906 410905.34392103396 5.592384724998037 0.1936927890767992
0.36348627855776594 13.72381191880406 340568.598212295 5.896811840008117 0.19660036769133726
0.37894189799844313 13.619869037069108 283220.2125176858 6.214436967125324 0.19953488798491495
0.39477894457529916 13.528293842202258 236328.31853913452 6.545512121089487 0.2024924318417579
0.41100660115440035 13.447740679265026 197800.52669318285 6.8907506112998265 0.2054768943149657
0.4276172663084209 13.37692462126888 166025.03772002662 7.250852942178569 0.20849126287257302
0.44461642600239815 13.31480361608355 139752.99548496856 7.626070489297549 0.2115309618692864
0.4619998003535728 13.260438059537915 117928.37538431221 8.01736756225592 0.21460238863395387
0.47977058993401867 13.213044987779647 99763.46208542938 8.425442538290136 0.21770707877416418
0.49793134830440916 13.171893650151983 84603.0839511851 8.85072615273966 0.220842352331907
0.5164745825864256 13.136311532005175 71904.62482325335 9.29411211853016 0.22401190384686379
0.5353973084284664 13.105754532530923 61245.875565958784 9.756476276124166 0.22721851580274016
0.554709144206831 13.07971827852219 51790.8813559459 10.23861970723468 0.23046342360335137
0.5743941314203203 13.05777676145096 44705.85696522973 10.741026059611588 0.23374348392966365
0.5944556843928728 13.039460340434628 38305.15921946726 11.264942502311294 0.2370649053867413
0.614897803339519 13.02445388606491 32883.520466668415 11.81130245139389 0.24042924199130547
0.6357052427657417 13.01240175790793 28275.148813254702 12.381085623979608 0.2438381279714701
0.6568812274031308 13.002986501038443 24356.019382052255 12.974961192276394 0.24728928718289028
0.6784175484090019 12.995956072297846 21014.843162040317 13.596052775576869 0.4437812216875704
