M[M_sun], R[km], Lambda[1], P_c[MeV/fm^3], rho_c[fm^-3]
0.24162668629717493 15.618656898711224 2160425.4255784233 3.5677272577965504 0.1711233750220791
0.25364475404080083 15.277270040771846 1723162.3912435635 3.784844473492387 0.17388848301438367
0.26604245763401324 14.981216797547532 1382955.9129212503 4.01145376301326 0.17666729287731237
0.27881950453766213 14.723458450904154 1116397.150786909 4.247810445752169 0.17945846797590478
0.2919751310207683 14.4983142537552 905775.8722511975 4.494540040687554 0.18226858063592677
0.30551202372396924 14.301120282757553 738574.1345787703 4.751799311098934 0.18509335979367955
0.31943011814288874 14.128032677475604 605035.0031854786 5.020268702519072 0.18793938374069902
0.3337321092495924 13.975774892441242 497621.5421236928 5.300174758740703 0.19080332407947334
0.34841330159555245 13.841923645200504 410944.1232568664 5.592243307521358 0.19369142082380972
0.3634786014452042 13.723867157996338 340620.4692905009 5.896645176011858 0.19659880234781454
0.37893237538015867 13.619927995857028 283232.03554710036 6.214243039151864 0.19953311959530146
0.39476792628332 13.52835395648776 236363.90183494712 6.545291130078585 0.2024904940491365
0.41099482017197564 13.447799793360256 197825.24467285196 6.8904982902368745 0.2054747454429112
0.4276053251729105 13.376960482314807 166039.86691349887 7.250566922611862 0.2084888967059982
0.4446026743245395 13.314838361244245 139770.04674755526 7.625751561380342 0.21152842299799549
0.4619842292173005 13.260486079329358 117950.09752924061 8.017010162076014 0.21459962385461664
0.4797543698274108 13.213072003435004 99797.07158642152 8.425043878054819 0.21770408140651137
0.49791350767026776 13.171911575691418 84619.4734315888 8.850287702062591 0.22083917776166945
0.516454999977358 13.136326578390886 71917.49308404095 9.293626780535721 0.22400848703712564
0.535375328559713 13.105788851599115 61256.079549948816 9.755940759087126 0.2272148493696389
0.5546852261016388 13.079768461140025 52288.680610076866 10.238036249648642 0.2304595735204429
0.5743698256028864 13.057826732735428 44715.98931905507 10.740385760776647 0.23373937301280356
0.5944300483764722 13.039482629960295 38316.01821838939 11.264241461363802 0.23706052527021512
0.6148702716508493 13.02447100604768 32890.527754014794 11.810536525623741 0.24042458388470403
0.635677527942944 13.012402404566524 28281.299316497738 12.380250412168268 0.24383318262035994
0.6568501878353377 13.002994609279163 24361.237671228108 12.974060529933933 0.24728413936627475
0.6783842212704132 12.995965603684327 21020.66730536679 13.593317149547339 0.2507825002193007
0.7002765361314077 12.99104890523446 18165.320024442604 14.239207436571995 0.2543307767564224
0.7225141459779649 12.987991409258255 15722.634201285751 14.912921670572425 0.257930954729263
0.7451050226857707 12.986653085345795 13628.373898598127 15.615473141174776 0.2615827638509129
0.7680297824214669 12.986757694151533 11750.081783153546 16.348161284143803 0.2652884286333266
0.7912774316232238 12.98814838471726 10285.523885560226 17.112587115467782 0.26905248083109373
0.8148535506725084 12.990684409606905 8952.11855045215 17.910206460191464 0.272877354557795
0.8387405350731895 12.994136199930416 7803.967185261289 18.742360585456304 0.27676391226837804
0.8629231325996357 12.998430222774955 6810.881460131992 19.610442816134867 0.28071306824890796
0.8874077884754039 13.003372081174929 5952.367064500221 20.5165167036188 0.284730973344869
0.9121682034560756 13.008868526615839 5208.786896676339 21.46237740486627 0.2888206429485852
0.9371922649122196 13.014757785713867 4562.994503812238 22.44947831289197 0.29298174788377507
0.9624784726827522 13.020973302578778 4002.488845751258 23.479907509623516 0.29721858627254094
0.9880020426596352 13.02735410969595 3514.7556470315362 24.55605879061379 0.30153701744646144
1.0137473381991806 13.03381288243676 3090.5858194729876 25.679837872565265 0.30593839697072484
1.0397150851645411 13.040279357952935 2720.0286925214687 26.853280862266494 0.31042453449894186
1.065870725207843 13.046596294208994 2396.9485299473454 28.079450516880552 0.3150038998179869
1.0922070880967298 13.052726039815099 2114.609454640767 29.360357801180985 0.3196766307962327
1.1187067893469962 13.058564434974414 1867.3649624119892 30.698848804241635 0.32444802637066533
1.1453408204237516 13.064012687381277 1651.159787551843 32.09823224003629 0.32932552414245503
1.1721070956430415 13.06902884932603 1461.2300254838692 33.560547382071846 0.33430745530356526
1.1989656180218238 13.07348348686555 1294.6784107332182 35.09029225464425 0.3394070819605851
1.2259159283947552 13.077351546311519 1148.3578725164073 36.689434107417625 0.3446208187544736
1.2529138844576533 13.080512979222535 1019.5358889875884 38.36308117492286 0.34996344546532265
1.2799583626823894 13.082949469134233 906.1559526946337 40.1135372405676 0.3554318995444453
1.307011840307646 13.084548359524566 806.3136567897118 41.946156120581925 0.3610400492716583
1.334044576747862 13.085241541452666 718.1251448569873 43.86454758355449 0.3667905261751499
1.361054333009605 13.08502940994536 640.2314097300533 45.87327724536663 0.3726903931789256
1.3879950573717748 13.083779658378177 571.4194587992683 47.97774334430026 0.37874995907178693
1.4148399991986949 13.08145307051421 510.51563798204626 50.18277872130996 0.384975252728715
1.441572622701178 13.078010698141568 456.5840131645015 52.49346451180109 0.39137251557136277
1.4681683170368391 13.073404584221661 408.7582355641039 54.916290798481384 0.3979538106667647
1.4945792443662735 13.067531779831343 366.2941746465345 57.457451712905275 0.40472820618879757
1.520792207960113 13.060379823627866 328.6435075290986 60.123579877512284 0.4117054809860294
1.5467765238767002 13.051881880648196 295.09791341042325 62.92178588295376 0.4188961831066853
1.57249448867318 13.041991755210956 265.29226623962114 65.85970154572473 0.4263116931032895
1.597907214015348 13.03064944821519 238.74963217104582 68.94552732995224 0.4339642926764352
1.623017390956019 13.017835050072062 215.08914712987774 72.18808436491857 0.4418672392856677
1.6477584308437883 13.00347429433776 193.95332117632157 75.59687154400957 0.4500348474313765
1.6721067882205944 12.987529404778524 175.122157340405 79.18171271900037 0.45848084226629265
1.6960423662127295 12.969968649729696 158.2497515362308 82.95304712033872 0.46721951488196384
1.7195233230280316 12.950743587856598 143.1825659125432 86.92350522552807 0.47627193443162863
1.7425044210461527 12.929796313729923 129.6897150360768 91.10454579505262 0.4856519455521685
1.7649866194356394 12.90712894278105 117.59398393709675 95.5105236456678 0.49538250017170393
1.7868968960641876 12.882650057083668 106.75151120968415 100.1548574192162 0.5054801098443924
1.8082474867531757 12.856410992775253 97.01746758627912 105.0542153338536 0.5159710073417553
1.8289519921763413 12.828256614858836 88.27098667241411 110.22515323406265 0.5268777513449081
1.8490325464309778 12.798277051221508 80.41185809023189 115.68547762692363 0.5382243230846966
1.8684041470402495 12.766325383094534 73.33249018877088 121.45510420464605 0.5500389309645644
1.887079583886789 12.73249096959904 66.95910675018365 127.55547534886574 0.5623514237272107
1.9050003153536763 12.696656693770304 61.21346913251634 134.0093357469693 0.5751921457656975
1.9221395543086242 12.658820495184454 56.036317294676316 140.84227390461336 0.5885969961786338
1.9384487109753024 12.618916088656377 51.35616850915876 148.08198600756003 0.6026042493828314
1.9539406597441398 12.577053954090426 47.132093416477105 155.75682123257982 0.6172490992224755
1.9685503543432186 12.533106054753425 43.31074412923513 163.90062549311887 0.6325797707032202
1.9822620419090957 12.487088074148462 39.85303785203099 172.5474050909822 0.648638535455156
1.9950438433746116 12.438986592437551 36.721102377301236 181.73610218901817 0.6654773090177617
2.0068761315614148 12.388809599908964 33.880909495659125 191.50895525539178 0.6831512156787187
2.017715663575006 12.336516877897513 31.3074340136119 201.91204717694265 0.7017195526358401
2.0275465515566418 12.282115952004022 28.972404004387272 212.99515597917173 0.7212443268104042
2.036348861055761 12.22562524568186 26.852381877951817 224.8142711525407 0.7417973981802096
2.044085407438654 12.167011062302727 24.925720321132488 237.43016829564343 0.7634544941049153
2.0507374143882386 12.106281652351555 23.172629071254434 250.91001348855397 0.7862990385514986
2.056301802388912 12.043512687265606 21.57944630262086 265.3271579724938 0.8104198378358618
2.0607402584277823 11.978641275472542 20.12928985374755 280.76295505837527 0.8359151276663905
2.0640367794784176 11.911722636878752 18.809943595378147 297.30771625455435 0.8628935512200917
2.0661859987961018 11.842796233614289 17.608869186280252 315.0617992002915 0.891475279410191
2.067171747298377 11.771889417913183 16.51318888593406 334.13445268002823 0.9217853606745811
