M[M_sun], R[km], Lambda[1], P_c[MeV/fm^3], rho_c[fm^-3]
0.24162668629717493 15.618656898711224 2160425.4255784233 3.5677272577965504 0.1711233750220791
0.25363727104024003 15.277437925457088 1723340.4831637393 3.784711366420798 0.17388682389894927
0.26602672415028705 14.981579290276095 1383299.1919543147 4.01117394944606 0.1766639114954874
0.27879581708997836 14.72386093731387 1116742.9375964594 4.247374463342713 0.17945341123696656
0.29194385315371646 14.498823727481248 906312.5987509453 4.493936453252086 0.1822618595497475
0.3054727208078775 14.301616348093631 739028.4336121174 4.751007629073676 0.1850848081168589
0.31937932287204956 14.128632830683701 605412.9224103309 5.019283098743575 0.1879291577211201
0.33366834458430844 13.976505158917167 498042.3666477464 5.2989692909330195 0.19079118701888279
0.3483417372538593 13.842472294145695 411298.7894468302 5.590814970627486 0.19367760127143957
0.3633947543192742 13.724493523565869 340926.8528284346 5.894961887598426 0.19658299254681377
0.3788399994214105 13.620474751233967 283556.8426522604 6.212284435973303 0.19951525949262475
0.3946617117849453 13.528918279527073 236647.3564615412 6.543059250343112 0.20247092347897824
0.41087725892539523 13.448328034738447 198076.6907799891 6.88795005715176 0.20545304362063385
0.42747439926414527 13.377471059307979 166269.5586091349 7.2476784322936245 0.20846500096585208
0.4444579729437918 13.31534713536017 139968.83498456771 7.62253080162001 0.2115027836793615
0.4618276711423591 13.260945375563967 116810.4365182226 8.013400967786986 0.21457170381888277
0.47958116278712004 13.21350624491126 99945.34357593326 8.42101811545923 0.21767381329970545
0.4977248114916843 13.172317252120296 84756.71035655071 8.845860218299867 0.22080712088750906
0.5162509697446752 13.136697324257748 72045.78581018008 9.288725941864001 0.22397398482734507
0.5351543012753 13.106124568402487 61368.82663193804 9.750533348806938 0.22717782737655168
0.5544499267454793 13.080068339962214 52384.05377112973 10.232090356595226 0.23041999679184116
0.5741166590075957 13.058041574281452 44802.74707560622 10.733920589286843 0.23369786460917955
0.5941643667296901 13.0397426741622 38392.073526786364 11.257163132180024 0.23701629974138333
0.6145858848212459 13.024665186422357 32959.07849109282 11.802803239177134 0.2403775526004051
0.6353710448179901 13.012551020445995 28343.76189018984 12.371817761794476 0.24378325227176903
0.6565238506802589 13.003122432337038 24418.593737481504 12.964967238651822 0.24723216584218577
0.6780460394246598 12.996060018187844 21069.47297568986 13.583434125095451 0.2507274741869733
0.6999184141048711 12.99111943978161 18208.540067100108 14.228481708285084 0.2542725891569966
0.7221360467650291 12.988038042081863 15761.061807584072 14.901296865174729 0.2578694900011218
0.7447070364827802 12.986660908543055 13661.803223700592 15.603002658311445 0.26151902301451374
0.7676111660304087 12.98675145287136 11860.527403095739 16.334676296143456 0.26522120935029664
0.7908400788135664 12.988109119225854 10311.123629687396 17.098019970769624 0.26898164573927563
0.814398553487199 12.990616543769363 8976.751083881256 17.894485023134717 0.27280275746309735
0.8382640726371086 12.994066316645123 7824.78366317731 18.725554576262695 0.27668669735179613
0.8624284256324448 12.998318287568063 6830.193256608114 19.592333784047053 0.28063182444269885
0.8868852520311997 13.003266962520314 5969.638426265023 20.497017525825132 0.28464552492438183
0.9116286521411416 13.008745279165831 5223.618905214851 21.44139499408754 0.2887308023418638
0.9366316884842761 13.014627371171656 4576.7179942973025 22.427100056644576 0.29288880134757034
0.9618919575281455 13.0208206310111 4014.285719654967 23.455852671514435 0.29712089242759115
0.9874008254742492 13.027205612244936 3525.4010953587804 24.530214194555775 0.3014343491353288
1.0131265524225315 13.033662811432054 3099.7364999418814 25.652303536054895 0.30583213666331743
1.039072329703874 13.040117693038423 2728.5448237205233 26.82372029299087 0.31031285999117686
1.065208957405842 13.046450796539865 2404.428091259149 28.047725403007902 0.31488653482663514
1.091522049277721 13.052572158478581 2121.3770799800186 29.326580552162717 0.31955505343910356
1.11800462886324 13.058411531815095 1873.7084374701176 30.662616307098528 0.32432021388918575
1.144617682988577 13.06387471593026 1656.661826917981 32.05953060800623 0.3291921483854111
1.1713650113087253 13.068903504541048 1466.1576568316498 33.51918859410012 0.3341680719238311
1.1982100769191646 13.073379384225642 1299.1076892878539 35.04594908819545 0.33926045113059855
1.2251357648441552 13.077244475077006 1152.3125880818511 36.64223520198587 0.3444685623917843
1.2521170240458397 13.08042381875414 1023.1164224734418 38.312552998254645 0.3498035702243626
1.279145275934327 13.082881740812917 909.4680486612137 40.059673067608145 0.3552652617881663
1.306174466295756 13.084495256333193 809.1279785060028 41.888802681728244 0.3608666611369957
1.3331977862674145 13.085225243020584 720.7053722016694 43.803062136107265 0.3666077596274049
1.360193952500167 13.085049288484047 642.6202465293289 45.80778857407776 0.37249996101878113
1.3871149668414133 13.083823331481872 573.5199861411269 47.90797185113108 0.3785513668794994
1.4139515243767273 13.081543909981376 512.4504766829099 50.107959696842975 0.3847656015769316
1.4406807098044023 13.078160188815732 458.29462521135383 52.41371668147144 0.3911535579082075
1.4672545690514152 13.073573256914658 410.32576129614114 54.83126121065516 0.3977249263085744
1.4936606714790697 13.067757726660165 367.6927788316451 57.36675883441241 0.4044887270221939
1.5198651133890981 13.06065692174872 329.8914538336962 60.02681103546189 0.4114546870332894
1.5458436527792399 13.052211967421709 296.24717009899257 62.81849445137025 0.4186332982012723
1.5715546995777954 13.042382142366653 266.3245649564064 65.7494038485963 0.4260358801337311
1.596970564439121 13.031097561311595 239.6931447343694 68.82769922882754 0.4336746483518209
1.622063819115737 13.0183320427845 215.94749153416524 72.06215749527267 0.4415627883704707
1.6468124896701803 13.00405409929211 194.73523478903195 75.4622291601623 0.4497145363910015
1.6711670980001905 12.988184296954193 175.81274582561858 79.03810063544056 0.45814526738735384
1.6950972437771836 12.970697744834219 158.8914058978075 82.7996419524886 0.4668669902530326
1.718586502299577 12.951553273278199 143.7576205154008 86.7592306061385 0.4758999332433618
1.7415856466207476 12.930706862324708 130.2205848693705 90.9293333297453 0.4852621623102498
1.764068096220225 12.908120134378597 118.07658485909114 95.32268641376776 0.4949703433428994
1.7860002405425017 12.883749136921482 107.18821363115157 99.95423189516677 0.5050471686673857
1.8073356227067663 12.85754430428172 97.41355968180338 104.83976172554969 0.5155156146550095
1.8280814860098813 12.829543288617126 88.63022609332826 109.99508644543975 0.5263956803402562
1.8481652214337594 12.799636507020573 80.73721736823136 115.43892489255522 0.5377150302142993
1.8675670449513804 12.767816944849223 73.63434478073249 121.19096615713303 0.5495012426956235
1.8862561094991517 12.734060982599017 67.23800623043034 127.2724234204216 0.5617835811128584
1.9041867419284257 12.698306166030067 61.46841072355959 133.7064182321133 0.5745939942925467
1.9213519285953953 12.660588048139335 56.26615144342211 140.51699232510643 0.5879632239634213
1.9377003199957268 12.620827224424037 51.56807759276488 147.7323304877568 0.601931669594043
1.9532168830278598 12.579065786391745 47.32630084851738 155.3818044345307 0.6165384048504617
1.9678741104517286 12.535286281174074 43.485650116516474 163.49715733650757 0.6318248458723102
1.9816177123486558 12.489386129219863 40.01285165069938 172.11341840174595 0.6478372264846042
1.9944503010537793 12.441453703211664 36.86668030300751 181.26920570484867 0.6646268505979606
2.0063034583023254 12.39135415354353 34.019113675477314 191.0061189588009 0.6822472608377229
2.017187170519595 12.339202611997495 31.43304693090632 201.36992872906924 0.70075734586644
2.027063668587049 12.28493603828042 29.087583313374072 212.41103924788857 0.7202218518359341
2.0359191091026854 12.228599526730658 26.958084609882135 224.18353940794694 0.740707163344086
2.043707048557013 12.170129919066323 25.02169646775711 236.74917431551845 0.7622930490772649
2.050279663411088 12.109965697780318 23.280242922761808 250.2378939915889 0.8850943801982328
2.0542686003699546 12.049723099194773 21.841106983293024 265.2210709768139 1.1325193155491575
2.0551737316592695 11.987555423825361 20.664267934333914 281.91207254979224 1.3803399305174266
