M[M_sun], R[km], Lambda[1], P_c[MeV/fm^3], rho_c[fm^-3]
0.24162668629717493 15.618656898711224 2160425.4255784233 3.5677272577965504 0.1711233750220791
0.25363674650478113 15.27743941901719 1723378.5690442105 3.7846861231640943 0.17388650925393223
0.2660235061760045 14.981663881942021 1383395.9884754464 4.0111208854279745 0.1766632702481451
0.278792334091337 14.723931406368674 1116804.2392744822 4.247291785739102 0.17945245230135717
0.2919363878793293 14.498972448814 906354.6971765943 4.493821995036935 0.1822605850309574
0.30546377432149635 14.301756158790285 739063.0807051196 4.750857506756692 0.18508318650932273
0.31937073186490006 14.128701074970598 605481.7823859288 5.019096209116133 0.1879272186691026
0.3336582589519737 13.976546862490094 498097.8426776194 5.29874071712611 0.19078888565991972
0.3483283282824555 13.842635757704642 411377.3748751624 5.590544144652964 0.1936749809556344
0.363379782694231 13.724587233750583 340978.93234431744 5.894642729055725 0.19657999494223957
0.3788221416409714 13.62058111691803 283624.1648570719 6.211913086544583 0.19951187323296862
0.39464119793920344 13.529035964022436 236705.3704557317 6.542636098274225 0.20246721300698453
0.4108539362076567 13.448442989257199 198127.74713550834 6.887466938923427 0.20544892918306867
0.4274474427561574 13.377617962680558 166314.9486802607 7.2471308191634 0.20846047070276694
0.44443041493265023 13.315427320532626 140005.50014523484 7.621920209609753 0.2114979229743505
0.4617982643263923 13.26102026233414 118165.51172446096 8.012716753881175 0.21456641087115813
0.4795478090762308 13.213601431706318 99969.03837607069 8.42025495001812 0.217668075362474
0.4976895086488693 13.17239058791675 84785.44083530185 8.845020917264124 0.22080104398940456
0.5162128247273653 13.136766129686684 72070.06071244027 9.287796932190606 0.22396744454132736
0.5351147705852253 13.106172640106976 61388.2622144673 9.749508338495753 0.22717080961339176
0.5544057415585927 13.080124544286177 52403.39894877557 10.23096267162556 0.23041248684985452
0.5740682745265878 13.058093336980967 44818.464561343186 10.732695130459184 0.23368999678390634
0.5941146663639226 13.039750382114748 38407.93202203477 11.255821484014287 0.23700791709936492
0.6145297781441188 13.024692913392853 32970.695067201865 11.801337484782927 0.24036863836813113
0.635315075840799 13.012579121098748 28354.97513651511 12.370219490746628 0.24377378879029826
0.6564641457354858 13.00314765228458 24235.72884505908 12.963243789872475 0.24722231531569647
0.6779818301713088 12.996068934345429 21078.418426386874 13.581561044662683 0.25071704537695194
0.6998500128171088 12.991119330982247 18216.446729228785 14.226448964612054 0.25426156142336226
0.7220644658695428 12.988046440757367 15768.066017456302 14.899093782608173 0.2578578414731342
0.7446317678722257 12.986671828447042 13668.427082424707 15.600639355007281 0.2615069433756639
0.7675332720535712 12.986730817871322 11866.332264184592 16.332120795409274 0.2652084708200785
0.7907568738217001 12.98810047298902 10316.090241836353 17.095259462193695 0.26896822232085754
0.8143114388903102 12.990600409271902 8981.011352367153 17.89150584761941 0.27278862148829847
0.8381713702371881 12.994058596167651 7828.612930123078 18.72236994169806 0.2766720656037458
0.8623332821410264 12.998307284265376 6833.7684348447065 19.58890232063484 0.28061642963047895
0.8867866597723115 13.003233251746973 5972.640547133349 20.49332273801319 0.284629333791304
0.9115272190290402 13.008724334407543 5226.636649554787 21.43741925758901 0.2887137793894987
0.9365258327872342 13.01459920125804 4579.312316682583 22.422859923131547 0.29287119024692315
0.9617823211192404 13.020792872852782 4016.6510814168587 23.451294983226827 0.29710238230123404
0.9872864488705193 13.027177464426874 3527.407416888482 24.52531752569174 0.3014148969944898
1.0130079798486824 13.033637241510643 3101.765997140019 25.647086827895023 0.30581200438184725
1.0389495243886044 13.0400895075988 2730.156625501764 26.818119837292 0.310291702478018
1.0650847245518635 13.046415306101608 2405.966649539673 28.041715017868274 0.3148642997984879
1.091391436431556 13.05254445830234 2122.731141073099 29.3201815227923 0.31953202086239413
1.1178710993715697 13.05838476782516 1874.868434024007 30.655752320511432 0.32429600073172454
1.1444860832492447 13.063856232617804 1657.6021101116621 32.052169502496504 0.32916669081901795
1.1712233701488663 13.06887484192903 1467.0800630712026 33.511353854381625 0.3341416680431843
1.1980650120792886 13.073360787690131 1299.9855094849668 35.037549240464585 0.33923267511135646
1.2249888519826946 13.07722860152251 1153.0759357956533 36.63329459928301 0.3444397213914404
1.2519711344951128 13.080419762505533 1023.8004942571406 38.30296889950348 0.34977320990056227
1.2789909544780893 13.08287532400103 909.9867413019488 40.049470431979366 0.3552336982420112
1.3060170613544835 13.084477174965581 809.6883194656822 41.87793938743295 0.3608338197525592
1.3330375681970246 13.085228887293402 721.2254941579776 43.791416544272366 0.366573142905815
1.3600315747264489 13.085053782865266 643.0711875691424 45.79538505976103 0.3724638932840381
1.3869494553972574 13.083838817991229 573.944188433851 47.89475750311013 0.37851375457934744
1.4137843072816167 13.081561604387556 512.7846735860115 50.09378981211011 0.38472589599835655
1.4405111352633346 13.078187102941467 458.62183080166386 52.39861372804491 0.39111209085668586
1.467080631189037 13.073608040775895 410.5895288232932 54.81515840388488 0.3976815804487755
1.4934879420358909 13.067799658950939 367.97576500632545 57.3495839844058 0.4044433759556661
1.5196899657851575 13.060713503601308 330.11930126083445 60.008486063576825 0.41140719455497177
1.5456655249437115 13.05227646054899 296.4565511401969 62.798934858507046 0.4185835174823789
1.571376798968021 13.042456416400894 266.5467836144411 65.72851812992604 0.4259836528231183
1.5967902957851108 13.031179881049608 239.851369399324 68.80538822894121 0.4336198035870164
1.621884133226532 13.018426492853077 216.10338006559843 72.03831369699763 0.44150514168849553
1.646622681143612 13.004161099612235 194.8802749268467 75.43673589945573 0.4496538885279279
1.6709898003588337 12.98830789541629 175.94822596832142 79.01083123382023 0.45808140295419664
1.6949189996373446 12.970836859996504 159.02006591005292 82.77059784668079 0.4668002469824764
1.718408314190162 12.95170760075398 143.86684916802548 86.72812962919322 0.4758295048325525
1.7414095061501949 12.93087385390227 130.32014352840608 90.89616252716995 0.4851883694842532
1.7638932464086903 12.90830282480707 118.16618783532573 95.2871267658981 0.49489231753538987
1.785826706760442 12.883948783911945 107.26998870438567 99.91625245536221 0.5049652106839788
1.8071651142946514 12.857761361754902 97.49250046384084 104.79916585294941 0.5154294092344506
1.827913913745269 12.829780193767364 88.69788488144258 109.95148823385092 0.5263042479832221
1.8479898446062857 12.799864504537872 80.80297138011927 115.39225603535424 0.5376186284595066
1.8674075895353521 12.768095417033482 73.68862511143341 121.14097040858742 0.5493994696729825
1.8860992731335375 12.734359369389237 67.29021225916732 127.2188205518524 0.5616760005833448
1.9040275341566482 12.698593925810659 61.51724623985919 133.64890149650037 0.5744801321224609
1.9212037756049596 12.660927483820444 56.30916045200154 140.4554300279628 0.5878432771976271
1.9375658907874727 12.621222003369056 51.609975057461575 147.6661578579913 0.6018043832483955
1.9530802009242958 12.579453024868338 47.36029072500593 155.31083477300854 0.6164039102377139
1.9677334791156773 12.535659711422053 43.51766611592752 163.42073874397516 0.6316817570991468
1.9814950462009384 12.489822443003746 40.04373848783184 172.03129580472032 0.6476855960882955
1.9943347082160021 12.441912288717468 36.89476052773568 181.18085928664857 0.6644659263722167
2.006194742571046 12.391837855878133 34.04330466560899 190.9109760656812 0.6820762213176943
2.017086567805769 12.33970319003058 31.455725967297592 201.26735772433483 0.7005752924508317
2.0269732287922726 12.285473314529494 29.109331296302663 212.30034256751318 0.7200277999430353
2.03582445301224 12.229133253258562 26.974629831170674 224.0642131716147 0.7405009051038309
2.0436345260282023 12.1707212696511 25.040046627232332 236.6201072771928 0.7620725537181137
2.050350166002083 12.110171912264434 23.27896155647126 250.03359844840628 0.784822123517131
2.0558925744244267 12.047818306958714 21.6875828523732 264.4227273246156 0.8780692707996209
2.0595680351659498 11.984472092884733 20.309249626738836 280.12891348722957 1.043049129399103
2.061051441219286 11.919269449324974 19.122408631225166 297.3326313486251 1.2183567715358286
