M[M_sun], R[km], Lambda[1], P_c[MeV/fm^3], rho_c[fm^-3]
0.24162668629717493 15.618656898711224 2160425.4255784233 3.5677272577965504 0.1711233750220791
0.2536388137276412 15.277447445791124 1723283.4812054741 3.7847408402418603 0.17388719127591018
0.26603031315002923 14.98154074948856 1383236.933649277 4.0112359071971415 0.1766646602183443
0.27880102563315873 14.723786136648107 1116691.0754556744 4.247470998986197 0.17945453090495486
0.2919504380550158 14.49871059837085 906103.4454219559 4.494070097717385 0.18226334771188585
0.3054801894120475 14.301554354090387 738906.1717076546 4.751182917611669 0.18508670156761245
0.31939104534703183 14.128486682279956 605312.323732533 5.019501320214266 0.18793142185310427
0.33368389496217843 13.97634333553787 497949.4359505781 5.2992361874377085 0.1907938742238236
0.34835813482151656 13.842332398260156 411227.91637760686 5.591131206114557 0.1936806609367704
0.3634139379068317 13.724346301089206 340854.31481975573 5.895334563072253 0.1965864927937305
0.3788590161958176 13.620381641975522 283498.6972252095 6.2127180577842 0.19951921360142547
0.39468514792493764 13.528814333064874 236572.66826088695 6.543553365866908 0.20247525620460455
0.41090260846293447 13.448198638916171 198021.27139654855 6.8885142003997775 0.2054578481012675
0.4275025477765634 13.377365273136421 166221.15942002085 7.24831789281949 0.20847029105890286
0.4444890251391919 13.315235464243157 139928.8223560161 7.6232438097994955 0.21150845968293297
0.46186214161933364 13.260853591465192 118089.0765618905 8.014199953739528 0.21457788462117808
0.4796192125250911 13.213409208958169 99916.42107894763 8.421909304378302 0.2176805137945176
0.4977673382475628 13.172217802501725 84726.10463062029 8.84684032241102 0.22081421726004008
0.5162959388706262 13.136616131848818 72019.72205929417 9.289810813792512 0.22398162239335567
0.5352050821599379 13.106032532356485 61345.2839471174 9.75173033803411 0.22718602259840423
0.5545022683923765 13.079996528871549 52362.6272246363 10.233407258910681 0.23042876684753683
0.5741715393590733 13.057992500521642 44783.157723435645 10.735351681844953 0.2337070526666996
0.594224483695396 13.039662738338368 38040.036178063834 11.258729924260422 0.2370260890866548
0.6146472980827834 13.024617561171754 32945.46841960156 11.804514978606091 0.24038796283210734
0.6354380685325504 13.012532394526248 28332.39024930765 12.373684273004834 0.24379430402314622
0.6565997979885587 13.003091432979991 24405.552751893443 12.96697995086028 0.24724366967981784
0.6781203002367349 12.99604874310088 21057.485243061714 13.585621601769533 0.2507396534710345
0.6999984157879832 12.991098561508801 18198.256433154653 14.230855667909616 0.2542854680038208
0.7222196954658493 12.988017166880887 15752.432895416212 14.903869778735473 0.25788309396498454
0.7447957775948482 12.986664830062898 13654.808874226419 15.605762708347545 0.26153313055948474
0.7677043397277112 12.98673958850882 11772.197280670933 16.33766083484922 0.2652360865271967
0.7909374476305476 12.988121304776469 10305.284145756223 17.10124396332071 0.26899732292331613
0.8144990838704596 12.990627063491429 8971.32460486343 17.89796442631334 0.2728192669823907
0.838367683540522 12.994094408652616 7819.759375847703 18.729273962881432 0.2767037860088469
0.8625378170512139 12.998345941276089 6825.9882624508955 19.59634148076027 0.280649804450329
0.8870000669664168 13.003282986616624 5965.648949872267 20.501332803575185 0.28466443514057693
0.9117482000791304 13.008772810323483 5220.306286413569 21.446038442687296 0.28875068424408573
0.9367552903718582 13.014662404293519 4573.706008176674 22.43205234201071 0.29290937032157754
0.9620211655168773 13.020848252959611 4011.84517437243 23.46117589361513 0.29714251161422545
0.98753356935897 13.027242181103924 3523.0672530144925 24.535933385147935 0.30145706876452416
1.0132682710407217 13.03370997332138 3097.89315378937 25.658396568702102 0.30585565084975486
1.0392150395909967 13.040153238814936 2726.7002514092173 26.830261595758714 0.3103375718551444
1.0653562863064179 13.046485580909534 2402.776168032868 28.054745565189517 0.3149125054591454
1.0916724233338504 13.052609078177698 2119.814838081516 29.33405470808606 0.31958195581127247
1.118158676006984 13.058448040039998 1872.3205418893929 30.67063361396139 0.324348495458653
1.1447778446631975 13.063902805791248 1655.4310041191598 32.068128642803565 0.32922188373445815
1.171528525769418 13.068928617807773 1465.0511311999012 33.528339920407824 0.33419891283702924
1.198377716282047 13.073402613166891 1298.1082475186547 35.05576058001927 0.33929289507415844
1.2253086548648915 13.077267618651248 1151.4802644533079 36.652678407593804 0.34450225055650197
1.2522936176216086 13.080447391317941 1022.3214680338923 38.32374795909498 0.3498390334061253
1.2793246553923194 13.082895628205781 908.6634438528815 40.07159062290886 0.3553021307228687
1.3063587705124413 13.08450193884991 808.5244741119941 41.90149204705592 0.3609050230108117
1.3333856004584552 13.085232615289073 720.0951257333343 43.81666543874991 0.3666481956779689
1.3603844505659322 13.085047864791663 642.1054407134668 45.82227733436712 0.37254209236555325
1.3873083968749997 13.083813773067867 573.0827600239056 47.92340789352307 0.37859530283900994
1.4141481099602493 13.08152458264258 511.98577924741886 50.12451210487601 0.38481198324835325
1.440878844973489 13.078129924519152 457.8935264078041 52.43135920239175 0.3912019976605733
1.4674617639372123 13.073541907212514 409.96411673712754 54.8500718826534 0.39777556125456814
1.493863672239714 13.067704700167189 367.37832123684854 57.38682201289672 0.4045417048672319
1.5200703174187136 13.060599698070455 329.590541243577 60.04821795825797 0.4115101669446976
1.5460505831414861 13.052139396555315 295.993273955388 62.84134386027879 0.4186914517635531
1.57176331459248 13.042293419053141 266.09657592825135 65.7738026735792 0.4260968923991498
1.5971791019351844 13.030997976418746 239.47720800501446 68.85376334185578 0.43373871899662186
1.6222703563096978 13.018227415583713 215.7490338409654 72.09001254173603 0.4416301329682716
1.6470206823219107 13.003927801458435 194.56512629917498 75.49201147671741 0.4497853878162954
1.6713759026895663 12.98804109896491 175.65324749868935 79.06995826428414 0.4582198773636252
1.6953131604498406 12.97053945224424 158.76464398208472 82.83357320801494 0.4669449641794083
1.718778022981257 12.951339272276385 143.63943678696802 86.79556525298479 0.4759822133414822
1.7417918190005384 12.930508400269847 130.10465770217388 90.96808650000534 0.4853483738495492
1.764271997668108 12.90790265564836 117.9709487818 95.36423095424388 0.4950615013411492
1.7862026987327702 12.883514147140476 107.09648575969807 99.99860396522804 0.5051429216695502
1.8075467713177973 12.85731291894412 97.32029359544289 104.8871911437927 0.5156163311240645
1.82827651249584 12.829263992918188 88.55707667547968 110.0460242551033 0.5265025049972768
1.848357266847183 12.799335650341758 80.66464046266925 115.49345091891662 0.5378276621692768
1.8677553952994983 12.767496986959221 73.5647905763512 121.24937989763048 0.5496201516650285
1.886438872862592 12.733716134442071 67.17454409003425 127.33505240995635 0.5619092769951292
1.9043770461320797 12.697963707267641 61.40911538402889 133.7734541395757 0.5747264422321136
1.9215179314207527 12.66016311583954 56.212056943435776 140.58892279631218 0.5881033718751059
1.937873246357929 12.620437030694555 51.52193431761718 147.8096488186229 0.6020803952502908
1.953382589348581 12.578645875778193 47.281604684271635 155.46472883329653 0.6166955548869723
1.9680198334127845 12.534790667861687 43.44798274043236 163.58644984386297 0.6319920402016844
1.9817615719717274 12.48887319736993 39.97853510388937 172.2093771588407 0.6480144038376663
1.99457047725289 12.440875973351089 36.83468301155561 181.37243835427745 0.6648148903002968
2.0064295361149025 12.390787547490001 33.98724835347082 191.11729492299924 0.6824471232019175
2.0173151798837274 12.33863415661167 31.40671311082196 201.48978639819452 0.7009700814061532
2.0271702149963526 12.284308093206821 29.061300134493877 212.54039410181545 0.7204486116102565
2.0360022618574747 12.227903377829474 26.933837057412784 224.32298047047144 0.7409481905402805
2.0437908033060923 12.169440946650997 25.000246178560786 236.8998669209088 0.7625502815466786
2.050491100497611 12.108846999703868 23.242326631499967 250.33605400227952 0.7853319952142401
2.0560859868244132 12.046149809621301 21.642290183244885 264.7058547185168 0.8093861225087778
2.0605759400399215 11.981416475458657 20.188905429757426 280.09028733558375 0.8348107733356486
2.0639241421054075 11.91463340266088 18.86291578948319 296.57861774894974 0.8617122810003291
2.06611992796617 11.845811491598422 17.657479479096143 314.269789004198 0.8902074268626617
2.067152926411495 11.775020807146655 16.55922715852047 333.2743094102279 0.920426833087691
