M[M_sun], R[km], Lambda[1], P_c[MeV/fm^3], rho_c[fm^-3]
0.24162668629717493 15.618656898711224 2160425.4255784233 3.5677272577965504 0.1711233750220791
0.2536449151209496 15.277256538676331 1723072.5223166281 3.7848435937144855 0.17388847204837654
0.26604215618035393 14.981213055829544 1383044.4807435002 4.011451913525547 0.17666727052734485
0.27881986400457937 14.723422271238915 1116394.8863286967 4.247807563964037 0.17945843455150523
0.29197467319428755 14.498329151111795 905783.3284115786 4.494536050958502 0.1822685362093678
0.30551233605458755 14.30112851559395 738560.0993714258 4.751794077935821 0.18509330326553028
0.3194298394218524 14.128047340739336 605032.9316942827 5.020262187351948 0.18793931614332546
0.33373022468165775 13.975837648601047 497612.1569084885 5.3001667900158065 0.19080324384763614
0.34841273275826 13.841885838718172 410927.843760808 5.5922338653210355 0.19369132946792414
0.36347806812854366 13.723870186886636 340632.49875434994 5.896634048171752 0.19659869783278536
0.37893248745932206 13.61990791966054 279330.59189518983 6.214230090978304 0.19953300152354922
0.39476612943589495 13.528362139670094 236354.39628640944 6.545276374993508 0.2024903646669735
0.4109940778562668 13.44778378908418 197828.10002057825 6.8904814433522015 0.2054746019677718
0.42760410959233225 13.376969635962734 166045.4462211583 7.2505478258015 0.20848873872298018
0.4446019536821001 13.314857745576862 139770.25723572655 7.6257302674060155 0.21152825348426785
0.46198287745480465 13.260492344020289 117941.21779002062 8.016986299464735 0.21459943925802633
0.4797528079698725 13.213081257063145 99794.33415383153 8.425017260685323 0.21770388128110318
0.4979122739133477 13.17191411153691 84620.37873734577 8.850258428060908 0.22083896580538945
0.5164532214096128 13.13633548889785 71922.0847323933 9.293594376084785 0.22400825890777087
0.5353737314524762 13.105790965575975 61257.47754770781 9.75590500442331 0.22721460457428438
0.5546832506463918 13.079755799382829 52287.970940573665 10.23799729423139 0.23045931646390658
0.574367893451596 13.057821037764311 44715.409339428676 10.740343010362936 0.2337390985419051
0.5944278942868549 13.039490120912898 38316.594162687885 11.264194655524443 0.2370602328264838
0.6148664213378656 13.02448041051523 32890.13440459194 11.810485387784055 0.24042427288131712
0.6356746504839864 13.012421774169834 28281.41806396621 12.380194648495928 0.2438328524395182
0.6568480367232681 13.003009329653107 24361.323984481958 12.974000396509062 0.24728379566827705
0.6783815445547688 12.995978812682774 21019.09768437769 13.593251792314321 0.2507821363277375
0.7002738561439978 12.9910545393023 18165.099209129217 14.239136505007789 0.25433039194922474
0.7225113053025123 12.98800669155291 15723.940051263084 14.912844791628576 0.25793054824130707
0.7451024542083041 12.986649567817548 13629.0008756778 15.615390668057639 0.26158234230304467
0.7680257442154301 12.986750195862134 11831.248416655832 16.34807209978873 0.26528798407168475
0.7912741063218747 12.988150916081567 10285.895007456062 17.112490772161664 0.26905201234622067
0.814850504081106 12.990683884205552 8952.362118994035 17.910102480533556 0.27287686118175314
0.8387373660210813 12.994147733952321 7804.228584943011 18.742249430682026 0.27676340156970325
0.8629194887923347 12.998427291607438 6810.775272845146 19.610323040676757 0.28071253089196585
0.8874061622472714 13.003367429473428 5952.563098356797 20.516387730848763 0.28473040816619316
0.9121653353233408 13.008860339694731 5208.888130228077 21.462238618663555 0.2888200487062559
0.9371881142060244 13.014763443885593 4563.036485071386 22.44933029146162 0.292981133087024
0.9624745137539111 13.020967734181696 4002.5161923047667 23.479748395010592 0.2972179400608203
0.9879987494000915 13.027355141667615 3514.855906101032 24.55588783367919 0.30153633831571736
1.0137452699699976 13.033813154872451 3090.6907249164988 25.679655735156178 0.30593769406738547
1.0397108108505067 13.040275226839332 2720.091782942623 26.853085317224092 0.3104237957649834
1.065865276362006 13.046601416758532 2397.0102076125845 28.079240648614817 0.3150031234240142
1.0922007584937192 13.05273288942061 2114.7474806533737 29.360134353623828 0.3196758265222245
1.1187019369957287 13.058560346492362 1867.4032503807196 30.69860910903832 0.32444718083030377
1.1453359076032377 13.064011554454146 1651.0619519633203 32.09797707963934 0.3293246474364634
1.1721016906174107 13.069029268294516 1461.2373370729179 33.56027376276608 0.3343065331782935
1.1989604328914651 13.07348888121836 1294.6954432324867 35.08999888464351 0.33940611186552544
1.225909635359993 13.077346786963545 1148.4210177602686 36.68912183822239 0.344619811422388
1.2529081793117998 13.080505727461212 1019.5969308441535 38.36274873895478 0.34996239865632867
1.279952791640737 13.082944757420545 906.1804227794239 40.11318085838241 0.3554307970170239
1.3070064168386886 13.084545523612933 806.331144465348 41.94577664481205 0.3610389020589156
1.334038763340326 13.085239200846924 718.1370974324385 43.86414075853158 0.3667893168807874
1.3610494713091315 13.085029812601892 640.2345944451989 45.87284392371256 0.37268913313841784
1.3879893370381804 13.083784742220008 571.4277402724424 47.97728167468951 0.37874864501104455
1.4148338542599561 13.0814601017118 510.5222998700157 50.18228363999304 0.3849738654563059
1.441566908034301 13.078012074170944 456.6022983553185 52.49293680489285 0.3913710666859074
1.4681618719243723 13.073406159916493 408.7524976969827 54.91572812871936 0.39795229606095933
1.4945733470560885 13.067533727705172 366.30670765177473 57.45685155367482 0.4047266214377705
1.5207860139743077 13.060378799799178 328.6430589257747 60.122939495889455 0.4117038213212546
1.5467703287109098 13.051885025155112 295.10844935380504 62.92110232105769 0.41889444338731424
1.5724886348203142 13.041993921921799 265.3022411385334 65.85897160018702 0.42630986778461455
1.5979014200874162 13.030652148676474 238.76667480079033 68.94474752929605 0.43396237577518465
1.623010286647641 13.01783943556632 215.09014753293033 72.18725094460814 0.44186522434178027
1.6477526096381945 13.003476739514483 193.96254724106223 75.59598041890158 0.45003272746586276
1.6721007786533004 12.98753313432978 175.12356447785527 79.18076410761704 0.45847862916678817
1.6960372224354718 12.969970781106442 158.25473548327923 82.9520317646031 0.4672171815974406
1.7195171299480305 12.950748941590588 143.18641458284225 86.92241789702084 0.47626947216753557
1.7424984531880114 12.929801694780796 129.69139492396556 91.10338604124269 0.48564936552683147
1.7649799226729705 12.90713731168055 117.59562217327839 95.50928029056747 0.4953797719729861
1.7868914804394163 12.882658882776772 106.75732700571652 100.15352938008698 0.5054772439935669
1.8082420692352852 12.856417346184584 97.02101713214473 105.0527957220453 0.5159679927931047
1.8289461613525706 12.828262506455633 88.27336212108955 110.22363453560251 0.5268745761504136
1.849026808960404 12.798285802746758 80.41520541988605 115.68384543173366 0.5382209515326614
1.8683984911185156 12.766334938500862 73.33598096762469 121.45335554234975 0.5500353713289423
1.887074200712357 12.732501094275355 66.96110408411758 127.55360704937404 0.5623476844736983
1.9049948128223704 12.696668301779466 61.2155735351979 134.00733065703398 0.5751881870955903
1.9221342403700024 12.658833774964457 56.037416484687334 140.8401202627477 0.5885928000652909
1.9384436497720041 12.618928084809033 51.357130053501066 148.07967091224324 0.6025997961818064
1.9539358296136125 12.577067857550595 47.13469565616285 155.75433814202822 0.6172443935173193
1.9685452319217882 12.533118676715986 43.31049226473725 163.89795935481828 0.6325747903347175
1.9822573706221203 12.487102714371852 39.853071849620264 172.54453134696888 0.6486332294010441
1.9950399472815337 12.439003218376092 36.72214694549516 181.73301041864627 0.6654716773151594
2.0068727857555957 12.388826443301017 33.88269834253681 191.50562537390536 0.6831452295108347
2.017714231634987 12.336533181753055 31.308562655915903 201.90845702805507 0.7017131804757035
2.0275427460833284 12.282136061631878 28.972790436498872 212.9912901528363 0.7212375637785154
2.036345689097158 12.225644782992923 26.852236479589493 224.81009385268038 0.7417901776179536
2.044083311178585 12.16703158071299 24.927401640360944 237.42565916480333 0.7634468056226171
2.0507354785557124 12.106303354175898 23.173593920279316 250.9051399369781 0.7862908382204858
2.0563007517078296 12.043534826790152 21.58104700448776 265.3218838451935 0.8104110773841955
2.0607391460735967 11.978664861984413 20.130687953044177 280.75724018562374 0.835905753944953
2.0640365928675886 11.911747036636298 18.81041873076032 297.3015159394001 0.8628835055985624
2.0661853963495167 11.842821699130587 17.609345980380194 315.05506363327385 0.8914644970921798
2.067171855149521 11.771916237445142 16.514060710343237 334.1271374196891 0.9217738068052144
