M[M_sun], R[km], Lambda[1], P_c[MeV/fm^3], rho_c[fm^-3]
0.24162668629717493 15.618656898711224 2160425.4255784233 3.5677272577965504 0.1711233750220791
0.253644936218879 15.277247514279948 1723237.4263575387 3.7848365632898617 0.1738883844175252
0.2660410859744132 14.981244269025545 1382962.322512138 4.011437134040066 0.17666709192598506
0.27881734256939655 14.723478538522338 1116441.2888645981 4.247784535271085 0.17945816745337045
0.2919731729332918 14.498353587336501 905815.7986254799 4.494504168629499 0.18226818119223484
0.3055098201804405 14.301156133100326 738711.6045003722 4.751752259258492 0.18509285154400298
0.3194283898950064 14.12805042902333 605045.988633178 5.020210124134955 0.18793877596735462
0.33372476550450036 13.975955026507362 497652.262636091 5.3001031113911425 0.19080260270954771
0.3484090392312341 13.841959748432679 410960.91692665056 5.592158412150744 0.19369059943774514
0.3634731635738873 13.72391219091663 340625.0782820208 5.896545125076063 0.19659786264825252
0.3789276339207067 13.619936297267893 283264.9914971482 6.214126621650547 0.19953205800786525
0.39476027741542535 13.528408330802073 236382.3165370771 6.545158466713863 0.20248933077064732
0.41098777157852895 13.447827974406756 197840.03659331414 6.890346819622782 0.20547345545559942
0.42759650117091175 13.377039771118666 166063.64118795094 7.250395223078391 0.2084874762797606
0.4445932432729906 13.314876436828907 139776.9988559325 7.625560107331383 0.2115268989006612
0.4619769243804675 13.260515452911095 117959.59631891102 8.016795613665893 0.21459796414920942
0.47974283341302276 13.2131225291533 99787.89499081855 8.424804561923091 0.2177022820837586
0.497901687475471 13.171941248665053 84623.30522869498 8.850024500476781 0.2208372720697308
0.5164417812462115 13.136365087334857 71927.52763115802 9.293335433509853 0.22400643593590017
0.535362365094807 13.105806242473296 61263.39063451611 9.75561929080014 0.22721264842758312
0.5546700816350885 13.079776915892648 52292.30431415255 10.2376858875777 0.23045726084536072
0.5743552097633502 13.057815532924856 44718.99480226328 10.74000139486856 0.233736905264612
0.594413504771891 13.039501316294473 38320.80984289593 11.26382063387822 0.2370578959324698
0.6148530435371806 13.024476087544958 32893.82829821621 11.810076749983242 0.24042178768169106
0.6356588999815529 13.0124366654199 28284.90775413699 12.379749046641527 0.24383021399787327
0.6568311970377873 13.003014854555229 24364.817034724263 12.9735198769057 0.24728104921527055
0.6783647388065746 12.995968144325635 21022.53548519083 13.592729530477165 0.25077922851375056
0.7002553269581636 12.991056825456697 18167.656491655645 14.238569700056185 0.25432731700469935
0.7224915346828552 12.988000089855698 15725.123894787033 14.91223046269494 0.2579273000526619
0.7450806501477758 12.98664274667825 13630.10830723427 15.614731637538364 0.26157897377618233
0.7680034737335936 12.986760464966512 11832.833674636806 16.347359441637778 0.26528443164954313
0.7912513614936296 12.988146411361246 10287.447287187873 17.11172090891394 0.26904826876194454
0.8148273797818713 12.990676575627141 8953.63113143444 17.909271597509832 0.27287291870121655
0.8387122653331525 12.994142734509998 7805.362292181818 18.74136121347791 0.27675932067122627
0.8628949586122141 12.998418164446685 6812.123732309364 19.60936593838309 0.280708236977587
0.8873779422768738 13.003372159653152 5953.472877657022 20.515357135927413 0.2847258919394515
0.9121361581373102 13.008855377036602 5209.412579809246 21.461129608019892 0.2888153002438348
0.937158195104825 13.014756659963325 4563.733643133872 22.44814748531729 0.29297622038368815
0.96244408131234 13.020959592457855 4003.248390788323 23.4784769473509 0.2972127763340904
0.9879652668788836 13.02735129593148 3515.3322453049523 24.554521758555666 0.3015309115477579
1.0137104727038784 13.033810126743456 3090.803900041989 25.678200321108513 0.3059320773442786
1.0396766160555007 13.040269429453675 2720.4789720954736 26.85152276820446 0.3104178927361547
1.06583012511481 13.046594573888363 2397.364196141944 28.07756364869484 0.3149969194720948
1.0921646007896788 13.0527199673051 2114.94832927975 29.358348847207214 0.3196693997954312
1.1186633481419386 13.058552853247019 1867.6904810214057 30.69669377483429 0.32444042436478854
1.1452978898060442 13.064013309295255 1651.5156454225635 32.09593816982421 0.32931764194316315
1.1720610421814794 13.069018622670818 1461.4197991762808 33.55808735637154 0.33429916476331595
1.1989205209367106 13.07348269561592 1294.8816782458673 35.087654659867184 0.3393983601497109
1.2258678399124083 13.077348547728379 1148.4945574977971 36.686626598922565 0.3446117621666615
1.252865790305552 13.080497413542213 1019.7720121284057 38.36009235673154 0.3499540339633659
1.2799107444788076 13.082944909505592 906.3556031470162 40.11033313421736 0.3554219871098204
1.3069542134095389 13.0845279248585 806.4925710388876 41.942744391561995 0.36102973509795633
1.3339944785234459 13.08523625051386 718.304437800006 43.860889972128426 0.3667796538624143
1.3610034243451747 13.085033338296062 640.3681893595784 45.869381416897355 0.37267906463894523
1.3879369419397969 13.083770387419328 571.5651371551991 47.973592654851835 0.37873814486974505
1.4147877903893262 13.081460067001856 510.6323556065896 50.178327646505906 0.3849627803265955
1.4415191710099742 13.078019393049024 456.7097107103359 52.488720119038796 0.39135948924640784
1.4681147409863615 13.073418216022485 408.8441772303735 54.91123207523002 0.3979401934935636
1.494525959616514 13.067542610769133 366.3803459039619 57.452055944350995 0.4047139583870072
1.5207377294358786 13.06039405349017 328.71132587791254 60.117822494124006 0.4116905596858796
1.5467213621838256 13.051901390208384 295.1700246481474 62.915640292836585 0.41888054209124104
1.5724379484047082 13.042016800653368 265.34775632907446 65.85313895006615 0.4262952825249753
1.597852286163928 13.030676764716087 238.81291787366817 68.93851651966091 0.4339470587450347
1.6229493066949718 13.017854627066535 215.14458950384014 72.18059149632278 0.44184912392468195
1.647702121361391 13.003509275487565 194.01356272794783 75.588859891213 0.4500157878992362
1.6720510713093777 12.987567477084397 175.1536506021895 79.17318424632963 0.4584609454371239
1.6959877510348793 12.970009348010842 158.29928261575444 82.94391859700485 0.4671985375619292
1.7194681062028578 12.950792241124303 143.2177836338009 86.91372964774342 0.4762497975576222
1.7424493437092994 12.929847780370139 129.72238190913535 91.094119094277 0.48562874998087335
1.7649309341395891 12.907187915166038 117.62524265127738 95.49934534962259 0.4953579724941885
1.7868574956791645 12.8827473314517 106.77906893530593 100.14291779376977 0.505454344650665
1.8081944258536449 12.856478995794221 97.04254773957254 105.04145244991865 0.5159439053309673
1.8289083365789607 12.828346730952683 88.29291553485847 110.21149954105697 0.5268492051048216
1.848980548761392 12.79835796771046 80.42606703616752 115.67080357926314 0.5381940115658546
1.8683555101477194 12.766411208446863 73.35330494222308 121.43938309845382 0.5500069285534996
1.8870317591134729 12.732583541689968 66.9792272628973 127.53867868456473 0.5623178065334671
1.9049533326894177 12.696756952978227 61.2290119391459 133.9913093188543 0.5751565559994423
1.922092446462615 12.658928499130065 56.04800619132955 140.82291197830278 0.5885592717832123
1.938404117704898 12.619030500822003 51.367455435530566 148.06117260021472 0.6025642137582711
1.9538980253254534 12.577175360238964 47.143905703430875 155.73449753376366 0.6172067935785851
1.9685116582472646 12.533232290168835 43.32080279282597 163.87665618313656 0.6325349958329745
1.9822229823115338 12.487224640628625 39.86190840510403 172.5215693995578 0.6485908326757569
1.9950077804317967 12.439130200954647 36.72999131697314 181.70830643598893 0.6654266786682089
2.006842155150197 12.388962968648638 33.88977025632084 191.47901888363566 0.68309739870418
2.0176845233319747 12.336676854155888 31.313895011241268 201.8797710073773 0.7016622656186431
2.0275177169367735 12.282284106209772 28.978917145266266 212.96040147851485 0.7211835258908007
2.0363232920936944 12.225801265118157 26.85820666627726 224.7767165266292 0.7417324841152727
2.044063264765597 12.167196309811283 24.931352328857557 237.38963053644565 0.7633853735016211
2.050718598406221 12.10647521057436 23.17828953412574 250.86619962591402 0.7862253165089591
2.0562864521121367 12.043715696608425 21.585413160975193 265.2797429872192 0.8103410804105851
2.0607273745078847 11.978853511778803 20.13351645017859 280.71157784163415 0.8358308570729927
2.064027427318995 11.911945573053329 18.813889430826244 297.2519750011381 0.8628032404017775
2.066184253263359 11.84303101737773 17.611460978903924 315.0012461475367 0.8913783458825993
2.067171305495084 11.772126092387984 16.517157839115075 334.068688319841 0.9216814911208854
