M[M_sun], R[km], Lambda[1], P_c[MeV/fm^3], rho_c[fm^-3]
0.24162668629717493 15.618656898711224 2160425.4255784233 3.5677272577965504 0.1711233750220791
0.2536420864033415 15.277364423704533 1723240.8034956814 3.7848042544917724 0.1738879817039433
0.26603810434686 14.981273578984096 1383067.0409844103 4.011369214402594 0.17666627115724964
0.2788117265862589 14.723604031535087 1116496.202152399 4.247678706868727 0.1794569400033831
0.2919651889324865 14.49848983439903 905944.2328502571 4.494357654342801 0.18226654972164827
0.3054993054792735 14.301293503033852 738716.9648424493 4.751560084133711 0.1850907756858836
0.3194154047627736 14.128202848312513 605152.4590283039 5.0199708724590515 0.18793629363887446
0.33371183622020173 13.97604969080544 497733.289080014 5.299810484196554 0.19079965643925453
0.3483920005382025 13.842096528609188 411051.4054755306 5.59181167871548 0.19368724469637588
0.36345351111622537 13.724037794441006 340692.7607994861 5.896136495410933 0.19659402471196236
0.37890510048859927 13.620071672267985 283342.2111352929 6.213651150626621 0.19952772228463142
0.39473694210782784 13.528508866957539 236436.7315446054 6.544616647887906 0.20248457975150505
0.4109590925307642 13.447938647104293 197900.53405915305 6.88972819304856 0.20546818697209676
0.4275645423877215 13.377138668258707 166109.60086250558 7.249693983497827 0.20848167510442292
0.44455863985260685 13.314986105868796 139831.47065164955 7.624778192801729 0.21152067435823577
0.4619389550236943 13.260621866181234 118001.9739830997 8.015919385526331 0.2145911858161499
0.47970097347744095 13.213213135643459 99827.7103257032 8.423827187318158 0.21769493359307415
0.4978561350904661 13.172041056124902 84661.55105957155 8.848949583058218 0.22082948920834353
0.5163921194671643 13.136457740137118 71955.73582650804 9.292145577506785 0.22399805927545968
0.535309694143301 13.105897871075229 61293.19067474499 9.754306428492903 0.22720365987728927
0.5546134372879148 13.079860192028375 52312.74623310331 10.236241461009776 0.230447641527891
0.5742938463611065 13.05788597521026 44742.04470523754 10.73843168002943 0.23372682720910798
0.5943481437655836 13.039557074449526 38002.19104147647 11.262102024173245 0.23704715802793264
0.6147828201661133 13.024528846748384 32910.56174007376 11.808199092453389 0.24041036839110716
0.6355831437536814 13.012445317072233 28301.862240508708 12.377701554900662 0.24381809064734566
0.6567530810884993 13.003043591749917 24377.371542048782 12.971311953375302 0.24726842962977247
0.6782830246352802 12.995998685663947 21033.847227907256 13.590329821664167 0.25076586757800023
0.7001685776006547 12.991076140440443 18042.299117170027 14.235965338811658 0.25431318821784193
0.7224002440146656 12.988007059918976 15734.831130735303 14.909407755118744 0.2579123753336789
0.7449856109082309 12.98665257978945 13638.78320991805 15.611703551318731 0.26156349620803654
0.7679026188495002 12.986761119712497 11839.744824585232 16.344084969522175 0.2652681092273128
0.7911459455101685 12.988123362403014 10293.260713409862 17.108183616611537 0.26903106810730565
0.8147173579324103 12.990659739399854 8959.5552344943 17.9054539611402 0.2728548042896167
0.838596509345392 12.99412039891943 7809.846675774878 18.737280165900856 0.27674057036920047
0.8627750461190256 12.998381508978243 6817.243126320124 19.604968415254284 0.28068850806468076
0.88724640193106 13.003346898454899 5957.286890162517 20.51062197157785 0.2847051417150729
0.9120047824734164 13.008825786592 5213.146378613567 21.456034187384923 0.2887934831282433
0.9370222352421863 13.014720246990429 4566.989345248452 22.44271303424407 0.2929536487678372
0.9622985147045743 13.020912388115034 4006.310974611451 23.4726352663461 0.2971890515317973
0.9878199343783126 13.027317022501956 3517.9713934329206 24.54824535076718 0.30150597835916493
1.0135605998360457 13.033768082226727 3093.387166263666 25.671513481894745 0.3059062715439401
1.039520583043526 13.040224748134593 2722.580139576132 26.84434374845548 0.3103907716922659
1.0656690837243294 13.046549955618765 2399.356438230495 28.069858842986655 0.3149684160454739
1.0919979871067005 13.05268858423799 2116.5235922687893 29.3501455630045 0.3196398730091436
1.1184947129489797 13.058517204883975 1869.413876843511 30.687894071970668 0.3244093828427306
1.1451223832661015 13.063974618059442 1652.8010991725553 32.086570768982156 0.3292854564765217
1.1718823722990523 13.068990237133248 1462.8051445091069 33.54804237773677 0.3342653121496362
1.1987363101526658 13.073449305085813 1296.0128385286075 35.07688469258573 0.3393627467876559
1.2256783038704722 13.077320122149787 1149.5577590338642 36.67516289691141 0.34457478203851644
1.2526726151034542 13.080481145873836 1020.6437883753673 38.347851398822726 0.3499153878191835
1.2797115816507374 13.082932391878208 907.0929364680928 40.0972502041755 0.3553815128949955
1.3067538432494097 13.084516481501552 807.1324776525133 41.928813785547476 0.3609876207654969
1.3337886472680776 13.085228242868512 718.8843950506363 43.845955503336704 0.3667352608976268
1.3607960669300634 13.0850333566588 640.9474272545933 45.853474378305506 0.372632809131528
1.3877244412074492 13.083782217527222 572.0937730440605 47.956645102180694 0.37868990666405394
1.4145780909782903 13.081499095085064 511.05849268027373 50.16015374256566 0.3849118550449493
1.44130080238083 13.078052956400466 457.08389050953383 52.46934871466667 0.39130630262784
1.46789331675162 13.073459142856713 409.21607547400174 54.89057739518262 0.3978845948095392
1.494301789851109 13.067597976758345 366.72340882030977 57.430025265437436 0.4046557852568386
1.5205119705070385 13.060461017631827 329.0032618266344 60.09431552313232 0.41162963711982387
1.546494536350122 13.051983014764634 295.4373515476039 62.890548482389065 0.4188166814387647
1.5722097941583792 13.042110629106784 265.60094267708007 65.82634474549018 0.4262282803180076
1.597632374963359 13.030794278696552 239.04394750441352 68.90989252912223 0.43387669542484025
1.6227141564281782 13.017952617953684 215.3486427211488 72.14999957551423 0.4417751624396233
1.6474719613097861 13.003651315167682 194.1980590359818 75.55615013281249 0.44993797215916753
1.6718217812197094 12.987727772413423 175.3279318331167 79.13836466335322 0.4583797117484018
1.6957594441208297 12.970189824409706 158.44902607090228 82.90664946750488 0.46711289321088356
1.719223922270658 12.95095395776942 143.35797293492422 86.87381911899158 0.476159419846353
1.7422275222522685 12.930064046928335 129.84773295178243 91.05155055385754 0.4855340506473565
1.7647082992480259 12.90742646557951 117.74276102007632 95.45370871687932 0.4952578355317849
1.7866366525927246 12.883003312960572 106.88040747807923 100.09417333150635 0.5053491562158192
1.8079763661603045 12.856760891110762 97.13503485946441 104.98934739205352 0.5158332601313742
1.828689124008006 12.828640930954352 88.37972441526338 110.15573951635568 0.5267325952824821
1.8487707017240198 12.798688893891214 80.50660429742877 115.61089720071067 0.5380702656598672
1.8681596823398008 12.766797941636765 73.42074079488765 121.37520270533952 0.5498762807926091
1.8868329667534876 12.732963663324092 67.04464004504129 127.46995770151122 0.5621800308388516
1.904758825646493 12.697163562061847 61.28963058372197 133.9177188890472 0.5750112656413774
1.9219047997975043 12.65936644127874 56.103898286690644 140.74387033635892 0.5884052686066884
1.9382228401836412 12.619495739712965 51.42026447120909 147.97620640541865 0.6024007770552491
1.9537260798449025 12.577674430721999 47.19255478378878 155.64336675615132 0.6170340916326903
1.968345032417152 12.53376157045267 43.361254715539374 163.778808572106 0.632352215682399
1.982068283454676 12.487784645056479 39.898438029907226 172.4161040179289 0.6483961023799254
1.994862029313894 12.43972572216541 36.765497426728906 181.59484096228218 0.6652199997345642
2.006697091422206 12.38957288942723 33.92052162784113 191.35681648739595 0.6828777139908625
2.0175571267089976 12.337333143007026 31.344050704984056 201.74801887861932 0.7014284185863735
2.0274005968233753 12.282968211430312 29.006493580424607 212.81853426502278 0.7209353376884421
2.036219123756757 12.226525592249102 26.883806872983047 224.62342112016006 0.7414675093557448
2.0439712122486196 12.167951396549052 24.954491179587954 237.2241601185756 0.7631032312387811
2.0506390457102555 12.107269516201852 23.199581967831588 250.68724423535085 0.7859240225645439
2.056214314842837 12.044524125260066 21.604391190596036 265.0858531415893 0.8100184619622136
2.060677849429072 11.979718482110776 20.15208908919901 280.5018700072573 0.8354868874155437
2.0639972114059764 11.912860523072878 18.831502937138822 297.02445748121664 0.8624346212526618
2.066161756141181 11.843969637645358 17.62694527171083 314.7540919695354 0.8909827006551049
2.0671652464805317 11.773102594876425 16.531372273396897 333.8002673743926 0.9212575416788634
