M[M_sun], R[km], Lambda[1], P_c[MeV/fm^3], rho_c[fm^-3]
0.24162668629717493 15.618656898711224 2160425.4255784233 3.5677272577965504 0.1711233750220791
0.2536401073969487 15.277386073948707 1723182.7843553768 3.7847655866383074 0.17388749972780385
0.2660335012520775 14.98140371461064 1383181.9592593573 4.011287927824208 0.1766652888569219
0.27880518642847174 14.723698479683785 1116691.7235460405 4.247552052509245 0.17945547100367717
0.29195658541434627 14.49863327491546 906131.4815733269 4.49418230972524 0.18226459721863636
0.30548774344319013 14.301475757011804 738892.0964760341 4.7513300966928735 0.18508829138258495
0.3194005975910529 14.128375453828523 605188.9054812064 5.019684549137966 0.18793332292390755
0.3336940205965976 13.9762556679994 497879.4499642668 5.299460288309232 0.19079613054774927
0.34837087015114493 13.84228154795933 411160.45479795046 5.591396737029701 0.19368323002141943
0.3634293495886994 13.724221549404795 340793.69209909445 5.895647487390019 0.1965894318451448
0.3788763949819626 13.620275598772245 279504.9698125947 6.2130821602364374 0.199522533777382
0.39470432676386596 13.52873140607942 236519.35004810186 6.543968267000695 0.20247889432704388
0.41092424544851736 13.448101367519865 197967.9904274043 6.888987906985801 0.20546188238533733
0.4275272136835869 13.377266731609499 166168.50467113237 7.248854847522176 0.20847473314754847
0.44451644052006695 13.315153306739452 139892.0980445712 7.623842527223536 0.21151322585860236
0.4618919788489159 13.26077771367123 118057.1974927158 8.014870873134623 0.21458307472511418
0.47965103294184236 13.213361765801402 99878.69249781405 8.422657654409363 0.21768614034057704
0.497801051741239 13.172160016901401 84704.63800145371 8.84766334272231 0.22082017627874334
0.5163338119473887 13.13654882299953 71990.95193341852 9.290721818379776 0.2239880359224445
0.5352449861420537 13.105978833553504 61319.769859912936 9.752735500056971 0.227192904469676
0.5545459253000099 13.079938677984487 52343.604283598914 10.234513126471882 0.2304361314940941
0.5742220525846342 13.057941751342618 44766.59883541055 10.736553449417823 0.23371476838677843
0.5942706368614598 13.039607448558085 38028.723770448916 11.260045657419063 0.23703430981123988
0.6147001777073672 13.024581664491008 32931.28095090422 11.805952445317974 0.24039670502807584
0.6354941336950096 13.012511938135878 28320.64842750352 12.375251725658623 0.24380358502661895
0.6566596776663555 13.003066849493845 24393.85301939446 12.968670191779808 0.24725333040379796
0.6781848837480532 12.996012885289344 21048.708041118196 13.587458622390644 0.2507498815096856
0.7000640886406202 12.991078551125295 18190.79730234343 14.232849311874926 0.2542962836196324
0.722290526967117 12.988008669670212 15746.684859956575 14.906030521903116 0.2578945186286102
0.7448683758420881 12.98665284297065 13648.498447209291 15.608080625724096 0.2615449782155783
0.7677815704792386 12.986750025086762 11848.161509281446 16.34016730126797 0.2652485806336507
0.791018281646909 12.988119924267494 10301.072489228438 17.10395155016123 0.26901048900125574
0.8145841059861735 12.990634079953624 8966.982396009358 17.900886538086922 0.27283313219381533
0.8384566393520541 12.994102359213787 7815.884861382809 18.73239764203358 0.276718137698316
0.8626304281119845 12.998357746628495 6822.505983199471 19.599707322295483 0.2806649048585723
0.8870962637764462 13.003308748522192 5962.4931473823 20.50495699654081 0.2846803169160923
0.9118480153800246 13.008792397565905 5217.386804659949 21.44993828426883 0.2887673822363945
0.936859867452965 13.014689110775553 4570.895739874981 22.43621159213368 0.2929266454786705
0.9621281860122696 13.02087377918556 4009.686579320334 23.465646719587486 0.297160668966911
0.9876438138896059 13.027274150316543 3520.9552771976314 24.5407368164075 0.3014761505166225
1.0133848716840697 13.033731195253148 3096.090698167546 25.663514018811792 0.3058754000752934
1.0393343474356171 13.040186525246968 2725.1179544427955 26.83575559062984 0.31035832717846634
1.0654795126101952 13.046514296921213 2401.5813895432684 28.06064180402468 0.31493431821047785
1.0917981284537426 13.052639153652343 2118.595909127955 29.34033230250288 0.3196045512967104
1.118289612399536 13.05847612239202 1871.1693886481476 30.677367466477698 0.3243722495597471
1.1449133490919643 13.063944245331035 1646.399592794083 32.075350324310385 0.329246859118412
1.1716672432522504 13.068953205291963 1464.194473480875 33.53602638191497 0.3342248170048157
1.198514310713397 13.073413125198735 1297.302792817932 35.06400161180585 0.33932014593212795
1.2254535536694033 13.077286795014892 1150.7152957693788 36.66145010699859 0.34453054670095196
1.2524414527204928 13.080458577512607 1021.6561742226733 38.333151181741805 0.3498688207540791
1.279476259338307 13.082909646404373 908.0720088186682 40.08160086971685 0.3553330990822853
1.3065128919970004 13.084508389030505 804.6562599013943 41.91215066844163 0.36093724563803475
1.333542670776126 13.085231141537047 719.7119837150215 43.82809185116628 0.3666821608849757
1.3605427180945113 13.085042817791978 641.6608806075524 45.83444760984108 0.3725774818734246
1.3874706114189808 13.083799480425116 572.6885347194703 47.936373978325605 0.3786322085019012
1.41431993283318 13.081526716016626 511.6234726729773 50.13841607036964 0.3848509436919151
1.4410475223285923 13.07810933301176 457.59318214145156 52.44617899055956 0.3912426872463873
1.467629700669742 13.073512803052264 409.66688772395383 54.86587306560181 0.39781809519728445
1.4940338831718312 13.067664453179525 367.136494570637 57.40367547178518 0.4045862072841368
1.5202431867243382 13.060544064823905 329.3676644162965 60.06620035839651 0.4115567715863874
1.5462231393523076 13.052082061824455 295.776535235352 62.86053817360704 0.4187403028169891
1.571937930696639 13.042222821881689 265.90297156481256 65.79429875380188 0.4261481453708591
1.5973542995315093 13.030915364238865 239.3021234127832 68.87565855814988 0.433792541684718
1.622445849035216 13.018131444294296 215.5821615376924 72.11341247767172 0.4416867065330017
1.6471972011989238 13.003820904205126 194.42045648355355 75.51703070185691 0.4498449079599888
1.6715469258720834 12.98791963320301 175.52519554041447 79.09672118686142 0.4582825556322511
1.695486379629082 12.970402840495751 158.64085892150794 82.86207840605059 0.4670104690414736
1.7189512383324903 12.95118990434748 143.52624982330582 86.82608985600426 0.4760513365489309
1.7419655465867174 12.930343423701187 130.00861021292872 91.00064321845451 0.48542080056440134
1.7644443840258341 12.907719658093463 117.8812970455253 95.3991331340372 0.4951380845168938
1.7863718206213484 12.883313636656878 107.00463795631215 100.03588198792094 0.5052233660252602
1.807715951307093 12.857094532530606 97.24749971992867 104.9270381516184 0.515700946328705
1.8284413268702298 12.829031920996991 88.48238129638479 110.08881933170198 0.5265922530529946
1.8485186522945822 12.799080707186567 80.60457181800172 115.53926114522822 0.5379222902889428
1.8679140005958519 12.767222564045259 73.5085516845514 121.29845698920333 0.5497200546387232
1.8865926348169118 12.733423931289234 67.12379043653131 127.3876716520564 0.5620148833941676
1.9045256867567042 12.697651593023616 61.36304600071882 133.82972354842838 0.574837535516685
1.9216788467530088 12.659889666372973 56.17133114188802 140.64935837843336 0.5882211233715683
1.9380124154837581 12.62007865710632 51.48114605254095 147.87461213814464 0.6022053554275175
1.9535091193696699 12.57823554707055 47.24307771719432 155.5344032822995 0.6168275949423436
1.9681468988326818 12.534388327605368 43.412646933977655 163.66147597631468 0.6321325216852077
1.9818799799610232 12.48844884404616 39.947700515891796 172.29000556193387 0.6481632753682506
1.9946833035642948 12.440427414670376 36.80659196245486 181.45917979887486 0.6649728910443693
2.0065336747393276 12.390317106146723 33.96164378138709 191.21071212377146 0.6826150604241165
2.0174061584017493 12.338113620232978 31.38076510569803 201.59050005860794 0.7011488382188037
2.027261950093155 12.283791670691482 29.040634657846258 212.64892537463408 0.7206386170820847
2.036093829714546 12.227388744689803 26.914059009408987 224.44015322500533 0.74115072643598
2.043861616006947 12.168861426001849 24.9818548422762 237.02634081964428 0.7627659311621129
2.0505453047479407 12.10822427052318 23.22503645523759 250.47301598567233 0.7855628821595041
2.056136483402296 12.04551393686739 21.627946169812546 264.8540499102908 0.809632727917849
2.0606149231155606 11.980754505964171 20.1744232977132 280.2508414280967 0.8350745888013567
2.063953987474351 11.913940293980442 18.850718348285252 296.7524859643902 0.8619939786632433
2.066137040903941 11.845094599468313 17.645712668534056 314.45865448732377 0.8905097633541645
2.067157864236991 11.774273745610111 16.548906048534484 333.479416478224 0.9207507833177538
