M[M_sun], R[km], Lambda[1], P_c[MeV/fm^3], rho_c[fm^-3]
0.24162668629717493 15.618656898711224 2160425.4255784233 3.5677272577965504 0.1711233750220791
0.2536433770542769 15.277311922440099 1723184.7250497714 3.784808383539439 0.17388803317053053
0.26603799826287555 14.98132519350101 1383110.102303035 4.011377894451256 0.1766663760505151
0.27881241098220133 14.723574048717278 1116510.6332771215 4.247692231543328 0.17945709686922726
0.29196641401174317 14.498491269899555 905990.2903306327 4.494376378505275 0.18226675821954308
0.3055009680137777 14.301289953925876 738667.7059261053 4.75158464351421 0.18509104097406529
0.3194173141673696 14.12817585015092 605114.0323461253 5.020001447929922 0.18793661087118577
0.333714110336704 13.975986876587859 497702.8109343484 5.299847880675611 0.19080003295974665
0.348393567833173 13.842032510174938 411012.1008820207 5.591855989533006 0.19368767341572493
0.36345500007337245 13.72406876918604 340674.8206810975 5.896188716009578 0.19659451517887588
0.37890856812366136 13.620042076823117 279421.08711612475 6.213711912889504 0.1995282763633064
0.39473850356229867 13.528523697214004 236425.79984386524 6.544685888688997 0.2024851868997909
0.4109623021951353 13.447956667148988 197894.6459040204 6.8898072489936855 0.2054688602457
0.4275690088609183 13.377114238885502 166108.0374175174 7.249783596363748 0.20848241644869686
0.4445628127763633 13.31498158595798 139824.8697197322 7.62487811487169 0.21152146980216233
0.4619432942987976 13.260610975519631 117998.00735720628 8.016031359567043 0.2145920520258819
0.47970677228667236 13.213192879157047 99826.91242258986 8.423952086395301 0.21769587265952856
0.49786268962879116 13.172017941066414 84659.13174498454 8.849086946620043 0.22083048377922207
0.5163985075556241 13.136442221761394 71949.3655126705 9.292297628373467 0.2239991297230404
0.5353149578238515 13.105903848199908 61288.95681319129 9.754474197498524 0.22720480851270705
0.5546214510045715 13.079848917224382 52311.52534888386 10.236426041621437 0.23044887076275952
0.5743016664795189 13.057866519693917 44738.10629585731 10.738632270230141 0.23372811506033161
0.5943564422910688 13.039548816352585 38002.32094826807 11.262321640330677 0.2370485301936585
0.6147916699998496 13.024523390574464 32630.53189291615 11.808439031812043 0.24041182762273774
0.6355919193129472 13.012444018348955 28300.095480861724 12.377963195630691 0.2438196398415227
0.6567630752796536 13.003039732019772 24376.50660824775 12.971594093990515 0.24727004222983182
0.6782935268207411 12.995980035876197 21033.119753136758 13.590636468310564 0.25076757490437185
0.7001795499529524 12.991055460226589 18040.53677043443 14.236298135493232 0.2543149936560816
0.7224110958712334 12.987998043284382 15733.543793741337 14.909768451462192 0.25791428247121223
0.7449977795034514 12.986640728789553 13637.83917432254 15.612090490318948 0.2615654739835389
0.7679153606310571 12.9867560419133 11838.576887868265 16.34450339069466 0.26527019495191395
0.7911588222007203 12.988128816658715 10291.81108890693 17.108635619683106 0.2690332660451816
0.8147315987343301 12.990656612427616 8958.921973890714 17.905941785036934 0.2728571189791256
0.8386113484729696 12.994121402517782 7809.655921817309 18.73780164702831 0.27674296630515954
0.862789237183106 12.998389357872446 6816.415252047968 19.605530333501104 0.28069102903747095
0.8872634205830054 13.003342426341156 5956.819214141084 20.511227031119578 0.2847077931798007
0.9120217773323421 13.008829409406397 5212.667203762421 21.456685277559032 0.2887962709078216
0.9370396463468501 13.01471956977942 4566.563289995547 22.443407443011363 0.2929565329465202
0.962315666436062 13.020924490490419 4005.6897439131185 23.473381707151685 0.29719208304969796
0.9878391562507526 13.027314516047298 3517.6861219656353 24.549047336597706 0.30150916426814905
1.0135794738041908 13.033777890182986 3093.1725379902773 25.67236790859295 0.3059095689411218
1.039541024799455 13.04023430050724 2722.316007355399 26.845261060417453 0.3103942371316783
1.0656900761251502 13.046553158765537 2399.08787343249 28.070843333556418 0.3149720581041808
1.0920171575626871 13.052684964907318 2116.309529713642 29.351193743258623 0.31964364581447247
1.118515725622151 13.058519676698136 1869.2008138805866 30.68901845465014 0.3244133491754906
1.145144367488761 13.063980787225582 1652.4928454881742 32.08776768466231 0.3292895689609073
1.17190614705228 13.068995018293354 1462.6579578237317 33.54932586436688 0.33426963763191264
1.1987598881505428 13.073455637838086 1295.8623975754892 35.07826080707996 0.3393672972252228
1.225704299971944 13.077323324977103 1149.4837540002352 36.6766276462873 0.34457950709326474
1.2526975920406116 13.080489220515554 1020.5309291223953 38.349421633578764 0.34992036197866094
1.2797361269672092 13.082935263064163 906.9892702391357 40.09892183145235 0.35538668435133547
1.3067796159919494 13.084522428920526 807.0466298280509 41.930593714250314 0.36099300175962357
1.3338140245711823 13.085238159967231 718.8462421697303 43.84786368662512 0.36674093300519967
1.3608226462319646 13.085032323373767 640.8650289114777 45.85550681836646 0.3726387191911391
1.3877519177407263 13.08377942567716 572.0266206683273 47.95881047894751 0.3786960700253311
1.4146066136286084 13.081494105784726 511.0139198502045 50.162475796564344 0.3849183616961493
1.4413287009878917 13.078046378933758 457.05023121561015 52.471823760168895 0.39131309817546966
1.4679218124315154 13.073454442503465 409.1684387755684 54.893216389806106 0.3978916985084528
1.49433018062531 13.067591177468714 366.6665438174331 57.43284005430235 0.4046632178502543
1.5205409092367046 13.06045304179932 328.96649350544726 60.09731891831367 0.4116374209615358
1.5465235099237769 13.05197264041306 295.4030126876527 62.89375435029677 0.4188248406274676
1.5722395080676403 13.042097458724063 265.57491122975824 65.82976810305824 0.4262368408450294
1.5976629949470174 13.030777048153439 239.01631155684726 68.91354964979853 0.4338856853367391
1.622749263104764 13.01796569038133 215.32061006272198 72.15390810616101 0.4417846120172697
1.6475009722319884 13.003633089876288 194.1732713968605 75.56032922276974 0.4499479141151384
1.6718509972542641 12.987705982819389 175.30202906765095 79.142813289472 0.4583900903422414
1.6957883886982208 12.9701670559048 158.42607340758724 82.91141102551057 0.4671238352573127
1.7192533228573366 12.950927882376474 143.34244661998326 86.87891811577393 0.4761709665653109
1.7422561542873012 12.930035199340182 129.83093072630643 91.0569891119989 0.48554614943735974
1.7647362345614175 12.907395417897874 117.72646526059579 95.45953921825293 0.49527062895368623
1.7866642031045925 12.882969425346115 106.86378234536402 100.10040085259556 0.5053625949361563
1.808003542962167 12.85672545055831 97.12289254958462 104.99600422012615 0.5158473959197397
1.8287159657040841 12.828602611945305 88.36812083089113 110.1628795332072 0.5267475536017072
1.8487974734300463 12.798647231501144 80.4961733995352 115.61855061060508 0.5380860749637203
1.8681860859374784 12.766754140594179 73.41307897622536 121.3834020957997 0.5498929717468447
1.8868585989486528 12.732914985932235 67.03580518728707 127.47874909843512 0.56219767510233
1.9047835283034609 12.697111701014816 61.28143654940288 133.9271203468236 0.5750298270381548
1.9219289788202008 12.659311423450633 56.09759349404054 140.7539681377149 0.5884249429637296
1.9382452435889603 12.619434173534398 51.412704973324836 147.98706100859917 0.6024216564245171
1.9537566015014713 12.577642719246146 47.181641497114505 155.65500882092198 0.6170561545108179
1.9683663694327906 12.533694179769649 43.35728093407226 163.7913086350488 0.6323755659038589
1.9820863808065508 12.487708888766663 39.895616772765 172.42957714790182 0.6484209790412989
1.9948813843492534 12.43964889851215 36.76038282196093 181.60933599201914 0.6652464026322151
2.006714800876743 12.389491354046491 33.91692232913266 191.37242752568764 0.6829057781416258
2.017574883079822 12.337247554108826 31.340835701186453 201.76484973716347 0.7014582917000621
2.0274160402776213 12.282879144920006 29.003419616130408 212.8366571526257 0.7209670425960455
2.0362316510891425 12.226430800249277 26.879685470418025 224.64300374016148 0.7415013583806133
2.0439829546184245 12.16785506220386 24.952013451247115 237.24529785420015 0.7631392730197665
2.050649480714403 12.10716858230388 23.196829172206673 250.71013564744936 0.7859626123109923
2.056222863406496 12.044417776142444 21.601269621938844 265.1106228663612 0.8100596802233246
2.060683164740701 11.979609059493558 20.14925685794474 280.5286580609186 0.835530826058413
2.063996047991644 11.912730971314506 18.82823459536885 297.0535202621422 0.8624817081652627
2.0661650775982183 11.843849633821529 17.625329473655036 314.78566279474336 0.8910332393367594
2.067166190726221 11.772976710213955 16.52949495067694 333.83455442247407 0.921311695332478
