M[M_sun], R[km], Lambda[1], P_c[MeV/fm^3], rho_c[fm^-3]
0.24162668629717493 15.618656898711224 2160425.4255784233 3.5677272577965504 0.1711233750220791
0.25364149784542767 15.277350765759907 1723113.4393483868 3.7847908679148237 0.17388781484671953
0.2660368350501435 14.981315722328326 1383088.0430983217 4.011341073347556 0.17666593108920722
0.27881023661331544 14.723600852188671 1116454.3701723202 4.247634859487208 0.17945643143983409
0.29196297339520555 14.498488494074872 905972.9286727106 4.494296950260677 0.18226587376760514
0.305495451763725 14.301349060853656 738761.2120783307 4.751480462415975 0.18508991561937174
0.3194094788006554 14.12828859066412 605197.5838679223 5.019871746819533 0.18793526517210546
0.33370645458943415 13.976087209328474 497778.8061304295 5.299689245227175 0.1907984357640047
0.34838459853972004 13.842163998085729 411085.1322993542 5.59166802394685 0.1936858547969713
0.36344508215061133 13.724112494781481 340712.36311625584 5.895967197798288 0.1965924346329572
0.3788962470537904 13.620120683008262 283368.4532066265 6.213454161778725 0.19952592598352864
0.3947242548437472 13.528591640654689 236465.02287871423 6.5443921725627305 0.2024826114061546
0.41094709284767933 13.448017789238932 197926.60369820226 6.889471898246099 0.20546600425800907
0.4275523164598003 13.377174392712147 166138.08563224788 7.2494034646075765 0.20847927171609748
0.44454511434721483 13.315045352868013 139853.77086783515 7.624454253002174 0.2115180955891387
0.4619224835604018 13.260688073355658 118024.5025887023 8.015556375179298 0.21458837763763433
0.47968395706564 13.213258403326527 99843.30119233207 8.423422276243462 0.21769188922784774
0.49783709485470157 13.172080449548679 84672.88650671391 8.848504264401427 0.22082626491099835
0.5163720124943242 13.136492944128882 71965.94042527105 9.291652645480855 0.2239945890032664
0.5352862860276648 13.10592607428923 61303.145668081386 9.753762541518169 0.2271999361391641
0.5545898394724461 13.079876107743777 52322.13275203791 10.235643074486166 0.23044365650707507
0.5742683017728392 13.057914699896147 44750.25974909754 10.737781394032378 0.2337226521715735
0.5943216203972657 13.039581611601857 38345.67551949136 11.261390060583246 0.2370427096665384
0.6147555196265218 13.02453754614587 32640.352524459824 11.807421246140896 0.24040563778771928
0.6355526257850531 13.012468295936074 28308.37255620346 12.376853358423315 0.2438130684130646
0.6567200935482346 13.003062510242806 24383.43403821361 12.970397301732012 0.24726320185604997
0.6782483145656034 12.996001479291968 21038.347982617794 13.589335728371474 0.25076033273288006
0.7001319495093608 12.991079577038569 18182.33313853178 14.234886474755085 0.254307335327681
0.7223623102827565 12.988004397088257 15738.006691188748 14.908238448822061 0.257906192770515
0.7449447286638067 12.986647157073609 13642.123821040064 15.61044917435283 0.261557084665048
0.7678609201799866 12.986756502476792 11842.455966229692 16.342728537516493 0.26526134775396937
0.7911012753674072 12.988121260264482 10295.23881022522 17.106718323289986 0.2690239428820729
0.8146711908751552 12.990650960009472 8961.905074058364 17.90387254903618 0.27284730060225953
0.8385485215212415 12.994114655883264 7811.870092690055 18.735589648656266 0.27673280331715866
0.862724859543436 12.998377139702175 6818.885886690006 19.603146815573066 0.2806803356957339
0.88719584882533 13.003327530425164 5959.51778401007 20.508660523972452 0.28469654634753877
0.9119504418439084 13.008813387544915 5214.731386645054 21.453923526204996 0.2887844458882909
0.936965570589076 13.0147047170301 4568.331609466723 22.440461950819717 0.292944299048865
0.962239082789428 13.020902949126722 4007.123420600225 23.470215516121804 0.29717922420715864
0.9877598926731621 13.027300278683455 3519.084235273129 24.545645546675637 0.3014956505716942
1.0134977233600138 13.033758599820494 3094.080784417668 25.668743686202347 0.30589558236893066
1.0394559790811315 13.040206192073052 2723.4483076124206 26.841370106153413 0.3103795378071111
1.0656052799728253 13.046548171386242 2399.9460471625794 28.06666743768514 0.3149566096495342
1.091927870051206 13.052674782749444 2117.176062343061 29.346747704038986 0.31962764280316375
1.1184232523847348 13.058506451104694 1870.0236761460872 30.684249200395943 0.3243965253220689
1.1450496137714448 13.06396137492458 1653.2042669747566 32.08269077911173 0.3292721252134906
1.1718080341378019 13.068979496041239 1463.2359746781253 33.54388176717882 0.33425129046307894
1.1986592921071089 13.073434492795931 1296.4535004586155 35.0724238288933 0.3393479959207679
1.225601695580493 13.077303016720492 1149.9358790107565 36.67041472300859 0.3445594651645075
1.252592113413362 13.080479036927844 1021.00184057981 38.342761296480404 0.3498992634908244
1.2796292374308824 13.082923498296651 907.4550790256451 40.09183143993001 0.35536474904871207
1.3066701364073119 13.084517026496389 807.4177126134481 41.92304396541676 0.3609701777251178
1.3337033507007698 13.085230595553952 719.1286778642452 43.83976995316167 0.36671687424357563
1.3607084843184398 13.085038488408891 641.1741373459606 45.84688605634653 0.3726136511862272
1.387636601979903 13.083789248647927 572.3078791930772 47.94962587433331 0.3786699276757442
1.4144894804901538 13.081506925571052 511.2663986345327 50.15262665974323 0.38489076332937916
1.4412185050739945 13.078081805353955 457.2662467715164 52.461325723375964 0.39128427449971076
1.4678037856679558 13.073474647980186 409.370074206715 54.88202297917452 0.39786156786012356
1.4942091410298624 13.067620179959595 366.85590441939485 57.42090103202621 0.40463169225362233
1.520417968018429 13.060489454259374 329.1150824916586 60.08457994570296 0.41160440561044565
1.5464012542304755 13.052017375102778 295.5585923807608 62.880156617215654 0.41879023331570847
1.572116286244185 13.042150572085202 265.70873422430043 65.81524792000518 0.42620053133983876
1.5975384465839826 13.030836846100776 239.13598317402148 68.89803799842905 0.43384755468928166
1.6226260034749176 13.018037195124045 215.43596784498104 72.13733014353878 0.4417445318032008
1.6473775479174073 13.003709101495458 194.28390620564412 75.54260373404811 0.4499057455975339
1.6717269817799718 12.987793699811764 175.39478827931322 79.1239446130646 0.45834606993605453
1.695665240329932 12.970265580475699 158.50999724958223 82.89121511601805 0.46707742511611894
1.719137100664325 12.951066475133509 143.42131249608835 86.85729103750091 0.4761219918737475
1.7421340054604635 12.930154530261282 129.90659436579972 91.03392186180369 0.485494833296425
1.7646192823843097 12.907533782944874 117.78827755456734 95.43480964244866 0.4952163667425257
1.786544790091091 12.883111794261673 106.92100261585264 100.07398742033395 0.50530559589525
1.8078874359276706 12.856875750211342 97.17757422721527 104.96776999965562 0.5157874404933893
1.8285998409947266 12.8287666212287 88.41285866252362 110.13256523601865 0.5266839951450781
1.8486830544297896 12.798825840150075 80.53995059345228 115.58608969252109 0.5380190219083605
1.8680743016722328 12.766944193962358 73.4500419690469 121.3486255770169 0.5498221794987752
1.8867496220909346 12.733122710444533 67.06967368421806 127.44146178475256 0.5621228397612898
1.9046795171712816 12.69733200666992 61.315780052199656 133.88724566743252 0.5749511020400587
1.9218269246105868 12.659547050713172 56.12753766573934 140.71114017586922 0.5883414978074035
1.9381539098525593 12.61971613337971 51.44075587174773 147.9410233668132 0.6023331007300262
1.9536523626175561 12.577881086743682 47.208074976914496 155.60563147104816 0.6169625794900645
1.9682766419212947 12.533978337052996 43.37903732332728 163.73817622276536 0.6322761378367524
1.9820032045054006 12.488014322055927 39.9178877020008 172.37243412073883 0.6483154706895318
1.9948018920427186 12.439966972615878 36.77897143681393 181.54785903825612 0.6651344215085095
2.006640825253314 12.389826672185858 33.93552844638965 191.3062175474892 0.6827867516697492
2.017505414713523 12.33760356229152 31.356126500218167 201.6934664910469 0.7013315934795818
2.027357350891148 12.283265851702609 29.017300016314667 213.34413110841055 0.7217933621792322
2.034596890559829 12.229297368893256 27.09137046240738 225.06904961589814 1.073995195143398
2.0370004490198617 12.174637472023804 25.686125106637387 239.2857350136574 1.4380336555523947
