M[M_sun], R[km], Lambda[1], P_c[MeV/fm^3], rho_c[fm^-3]
0.24162668629717493 15.618656898711224 2160425.4255784233 3.5677272577965504 0.1711233750220791
0.25364392652163353 15.277265390236158 1723227.694847906 3.7848182076949874 0.17388815562389012
0.2660397420272433 14.98127543742689 1382947.3115558445 4.011398546760923 0.17666662562148927
0.2788148588835794 14.723517395184384 1116490.4016638356 4.247724410680153 0.17945747009872148
0.29196923237475475 14.49840873358357 905882.9389090779 4.494420928846556 0.18226725429793283
0.3055045995623381 14.301234800889002 738694.1284994909 4.75164307771744 0.18509167217498354
0.31942143964196285 14.12812887311377 605122.9803017079 5.020074196405663 0.18793736566469993
0.3337179242246429 13.97598365564508 497691.8421014188 5.2999368586501925 0.19080092882030952
0.34839915964060825 13.84204217856346 411014.8478288554 5.5919614191307305 0.19368869347608558
0.36346095765526565 13.724014115711144 340652.62561597844 5.896312965800233 0.19659568215920378
0.3789149001504237 13.620014833438717 283310.2949460317 6.213856486419131 0.19952959469981874
0.39474728735618286 13.528449826998358 236407.6725847051 6.544850635821726 0.20248663150958243
0.41097155215732756 13.447879992284927 197872.35781870977 6.889995350087562 0.205470462193549
0.42757916337195523 13.377065993084843 166081.00191942818 7.249996816468215 0.2084841803639775
0.4445737503202556 13.314974577329963 139810.6629031288 7.625115864639635 0.21152336244318778
0.46195420277613325 13.260590457964156 117978.49868303537 8.01629778581743 0.21459411304832504
0.4797194703266171 13.213183265177202 99816.69107527187 8.424249266594709 0.2176981070391778
0.4978759840907796 13.171993753409067 84646.41213029777 8.849413784995576 0.22083285022870824
0.5164138921793442 13.136417427812534 71941.87320143751 9.292659414046677 0.22400167671673452
0.5353322791604815 13.105849216151606 61279.27712694875 9.75487338336601 0.22720754155045725
0.5546375268227023 13.079819835661805 52302.15930941163 10.236865229623376 0.23045179558352463
0.5743205685494313 13.057843721878351 44732.188742329374 10.739109552084251 0.2337311793576784
0.5943768680070748 13.039523810968305 38330.16287063059 11.262844193456097 0.2370517951150424
0.6148130583770564 13.02450843126327 32903.3464131239 11.809009943066584 0.24041529971570974
0.6356169955292705 13.012456331567488 28293.99133394811 12.378585744447516 0.24382332599926207
0.6567862299007577 13.003043803293355 24178.489043747053 12.972265421535962 0.2472738792627908
0.678318317632715 12.995975715147097 21029.15046496438 13.591366107281972 0.25077163733868263
0.700204399553811 12.991071868463386 18172.848454996067 14.237089997918575 0.25431928954838595
0.7224398738916117 12.987999857623597 15731.003244423493 14.91062670071718 0.25791882035854286
0.7450261070836791 12.98665550603909 13635.067482882307 15.613011183621852 0.26157017995698334
0.7679462869019097 12.98676011286328 11837.142453319026 16.34549899571537 0.26527515779323585
0.7911903427696638 12.988130515951287 10289.430941242108 17.109711132925135 0.2690384959018782
0.8147627890556006 12.990663026007375 8956.648169824826 17.90710253425608 0.27286262665117295
0.838646361171703 12.994129443010038 7807.8909834687975 18.739042483939762 0.27674866730874137
0.8628262525698328 12.998403652963965 6815.139195541536 19.606867391361163 0.28069702757285075
0.8873016807103891 13.00335254953569 5955.855591365738 20.512666744841578 0.28471410222856164
0.9120618525469623 13.008855590656792 5211.642500547237 21.45823452269071 0.28880290432683425
0.9370815400532393 13.014729470490295 4565.511104096406 22.44505976613322 0.2929633957560782
0.9623587490289592 13.020926302092551 4004.941051447736 23.475157842823283 0.2971992964644017
0.9878835421471465 13.027325521328713 3516.830741457949 24.550955644485715 0.30151674506947185
1.013624556441219 13.033784759696204 3092.1228677931254 25.67440100212653 0.3059174150406196
1.039589095460992 13.040241465427655 2721.6960335841936 26.847443793375835 0.3104024831037513
1.0657391138859247 13.046570741212893 2398.533625913723 28.073185922664823 0.3149807243599286
1.0920702448878001 13.052697535605299 2116.025284669956 29.3536878862689 0.31965262319789783
1.1185677210771576 13.058536153546987 1868.7470894375342 30.691693927528007 0.32442278707943356
1.1451992818668733 13.063992523034889 1652.2726250613005 32.09061575557045 0.3292993546520239
1.1719603294826406 13.069005134238129 1462.1991816680008 33.55237993895899 0.3342799301781763
1.19881544730214 13.073458493207708 1295.530654261909 35.08153529899749 0.3393781250822773
1.22576154949961 13.077328793377873 1149.1610604881596 36.68011305363707 0.34459075047784565
1.2527566677026494 13.080492822477892 1020.2571277626586 38.353158055365064 0.34993219814377485
1.2797976172793089 13.082937916746346 906.7846574814606 40.10289952803408 0.35539899001569675
1.3068411731506355 13.084520056059569 806.83308182663 41.93482912677981 0.36100580605336247
1.333877410603404 13.085234185663984 718.6735141748948 43.85240429798749 0.3667544300503999
1.360884941928174 13.085033676499474 640.6700972206179 45.86034311498554 0.3726527824847462
1.387815564556924 13.083776202563602 571.8570771633082 47.96396311670318 0.3787107360956914
1.4146719584946226 13.08148830186198 510.86211071664593 50.16800127182444 0.384933844686748
1.4413953499783119 13.078034301229232 456.93333188409406 52.4777133019163 0.39132926865048745
1.4679892829228178 13.073438571469753 409.05763080342564 54.899496074467464 0.3979086022901845
1.494398070560405 13.06757613355918 366.57566242474564 57.439538070439845 0.40468090430313963
1.5206095446938852 13.060433949926846 328.8637968407585 60.10446575572233 0.4116559432830324
1.5465928564020741 13.05194839174356 295.3236113725385 62.90138300796733 0.41884425616774434
1.5723090730699565 13.042069885313271 265.49753416800525 65.83791431811045 0.4262572114585844
1.5977326572356485 13.030743713291342 238.95141765561672 68.92225214973794 0.4339070777693876
1.6228197044725126 13.017926608360424 215.25797387607267 72.16320888710825 0.4418070983323778
1.6475720000423033 13.003590122421993 194.1171504345079 75.57027385663486 0.4499715721634325
1.671920487309882 12.987657792286235 175.25078311845851 79.15339934082614 0.45841478747893827
1.6958596876076364 12.970112325489655 158.3819946894273 82.92274176910368 0.4671498732730892
1.7193382788424296 12.950903625082656 143.29334092838414 86.89105187421495 0.4761984435582571
1.7423242597979753 12.92996701269209 129.7911925789035 91.06993093606347 0.4855749402321892
1.7648041891044814 12.90732337488702 117.69070139531507 95.47341376990605 0.49530107281805
1.7867304072262882 12.882888982753537 106.83731153432525 100.11522021245521 0.5053945744718137
1.808069657460724 12.856639245795373 97.09486094604604 105.01184522757514 0.5158810343322616
1.8287812383765367 12.82850903572343 88.33866850455 110.17982600104152 0.5267829841580568
1.8488613423880857 12.798547295390021 80.47019397804263 115.63676326218162 0.5381236960171746
1.8682489359716998 12.766643244246618 73.38847498631922 121.40291406565869 0.5499326909671384
1.8869190109351248 12.73279847922673 67.01554916927243 127.49966992422402 0.5622396630327582
1.904845283134195 12.696986689705403 61.265640986182156 133.94949299479424 0.5750739975918944
1.9219866188237196 12.659175427865932 56.081290147671304 140.77799795634272 0.5884717621884948
1.9383006369241143 12.619294883852344 51.39541050459727 148.01289188548242 0.6024713434013682
1.9537989077848148 12.577456085374443 47.166734042787205 155.68271372296394 0.6171086580734871
1.9684174796595757 12.533533735362045 43.344262678730495 163.8210554364473 0.6324311331760845
1.9821339247794636 12.487539749450953 39.88373676313591 172.46163971251966 0.6484801790612175
1.994923783277653 12.439470949106216 36.74851984235878 181.64383053923115 0.6653092349282558
2.006762963828904 12.389316518036722 33.905776063682104 191.40957803456914 0.6829725640569954
2.0176124397184565 12.337049426408111 31.331326532528998 201.8049032812365 0.7015293827898355
2.027450773839418 12.282670198004311 28.994447042996164 212.8797855873129 0.7210424932122385
2.036264157719693 12.226211651888145 26.872161709561865 224.68960620944262 0.7415819118582132
2.0440113592373494 12.167624784695258 24.9451856336509 237.2956013717654 0.763225045138175
2.050672830551578 12.10692653115266 23.19015492492398 250.76457220014885 0.786054316260316
2.056250371004264 12.044187338062386 21.596297344941707 265.16957030688855 0.8101577721891363
2.060699263681027 11.979345832960583 20.144507236861696 280.59240903023056 0.8356353924859928
2.0640073997459405 11.912455972539961 18.823226058095305 297.122685021535 0.8625937674684978
2.066171300822094 11.843565145325401 17.620304525529196 314.86079666962695 0.8911535138927521
2.067167329288832 11.77268240381694 16.52524335112942 333.91615290268976 0.9214405736139382
