M[M_sun], R[km], Lambda[1], P_c[MeV/fm^3], rho_c[fm^-3]
0.24162668629717493 15.618656898711224 2160425.4255784233 3.5677272577965504 0.1711233750220791
0.25364413978879996 15.277291120627282 1723250.3860401704 3.7848224392537397 0.1738882083682286
0.2660403288054479 14.981254481409719 1383083.3871218304 4.0114074423542245 0.1766667331194845
0.27881560728288024 14.723477404135519 1116448.906238217 4.247738271272369 0.17945763086070374
0.2919701695776814 14.498403082095095 905904.1272169971 4.494440118163178 0.182267467975427
0.30550549429309953 14.301229422508495 738616.680920428 4.751668247339353 0.18509194405493715
0.31942166611776485 14.128141868092438 605105.4859136709 5.020105531751795 0.18793769078101036
0.3337202065972194 13.97593346191485 497695.79754604143 5.299975184710487 0.19080131470014228
0.34840143911150573 13.842023950094102 411004.6339475442 5.59200683160921 0.19368913285430742
0.36346479551280136 13.723963312702777 340639.9065115939 5.896366484969261 0.19659618482256516
0.3789174457198544 13.619998276354288 283303.7923065524 6.2139187599531684 0.19953016255946693
0.3947509686995871 13.528440931176847 236408.3251645305 6.544921599078181 0.2024872537614749
0.41097446692395756 13.447871459519325 197862.79483200764 6.89007637302895 0.20547115221891782
0.42758357385889645 13.377047577611473 166077.00992627256 7.250088659421928 0.20848494015719624
0.4445783628146396 13.314925650393063 139799.07582047925 7.625218273773602 0.21152417768574303
0.46196000455642894 13.26056543621431 117981.04185787303 8.016412547417373 0.21459500082208136
0.4797245854495661 13.213154971412186 99810.9700122801 8.424377275574578 0.21769906948775317
0.4978825713508993 13.172008283341372 84643.57427120216 8.849554569376654 0.22083386956777978
0.5164197024649063 13.136411778920774 71937.56758215584 9.292815252191543 0.22400277382698974
0.535338147885573 13.105850535056852 61274.47750166068 9.755045331921384 0.22720871880128501
0.5546457050141126 13.079824736356382 52299.43175357949 10.23705440944335 0.2304530554473264
0.5743277768870556 13.05785569278446 44730.389513071015 10.739315141188127 0.23373249930340884
0.5943848426159803 13.039537669544426 38328.865046792635 11.263069283651328 0.23705320148265552
0.6148224234646111 13.024510681476 32900.755441590525 11.809255864108065 0.24041679532595214
0.6356264059127859 13.012435391807127 28060.08464662149 12.378853909051447 0.24382491382178056
0.6567971378630286 13.003014656621154 24370.651691497962 12.972554598246044 0.24727553207828312
0.678329745189106 12.995973159135914 21027.072003721813 13.591680402533331 0.25077338725043746
0.7002168615119525 12.991052084495825 18171.834866299145 14.237431096949248 0.2543211400272747
0.7224507593126277 12.987996434160388 15729.203285015368 14.91099639704645 0.2579207750823938
0.7450389182293955 12.986647232678289 13633.664765265834 15.613407778842898 0.2615722070886813
0.7679601504600294 12.986758908630636 11836.399570177446 16.34592786063638 0.26527729557730406
0.7912048642359829 12.988136709074341 10288.824150196178 17.11017441998004 0.2690407487099441
0.8147793677026653 12.990655841293504 8955.936604163546 17.907602538584555 0.2728649991359595
0.83866064767664 12.994128938721602 7807.1936870754225 18.739576987808164 0.276751123077457
0.8628428095990995 12.998396867401773 6814.447913895712 19.607443344719968 0.2806996115123369
0.8873228546492016 13.003364120462392 5955.322945201694 20.513286919802976 0.28471681993140213
0.9120782880400917 13.008849699031728 5211.119829704536 21.458901881197168 0.28880576176270056
0.9370985013125409 13.014738401432894 4565.226056124636 22.445771528189763 0.29296635201044524
0.9623824434107264 13.020944720818875 4004.601820739497 23.47592294066176 0.29720240375405643
0.9879023021671285 13.027345178481916 3516.4782565018468 24.551777679426188 0.30152001062405204
1.0136453686587614 13.033790960813576 3091.809166209698 25.675276792153916 0.30592079488300294
1.0396085868401086 13.040249309585292 2721.3228430380805 26.84838404534266 0.3104060352063712
1.0657603748779547 13.046571049517938 2398.3122099000607 28.074195037943074 0.3149844575161398
1.092092745610018 13.052706243298996 2115.7757498170176 29.354762288342194 0.31965649038567545
1.1185855402945242 13.05854850918229 1868.4671029037802 30.692846443823743 0.324426852655348
1.1452210546234263 13.063990558081478 1652.102677931632 32.09184262448045 0.32930357005275696
1.1719839446564384 13.069004315166103 1462.051810901593 33.553695551670096 0.3342843639286581
1.198840124567581 13.073467643296945 1295.3860273046482 35.08294586500631 0.33938278944166317
1.2257858168219524 13.07733527846829 1149.0406568378962 36.68161447955294 0.3445955938454345
1.2527816033429282 13.080498784050768 1020.1363779457498 38.35475657034482 0.34993723208355754
1.2798232891689751 13.08293312438774 906.7090065245881 40.104613027659646 0.355404291011095
1.306868686604934 13.084524061394008 806.7298596991624 41.93665364831204 0.36101132185836815
1.3339046302762607 13.08523398383095 718.580939054092 43.85436029753038 0.36676024429260984
1.3609125349048767 13.08503776586414 640.605997206286 45.862426494033485 0.37265884066801197
1.387843564530641 13.08377549213006 571.7878048442302 47.96618277405639 0.37871705395703964
1.4147009075231722 13.081485284817523 510.81669136989444 50.17038154695472 0.3849405144799748
1.4414229006327914 13.078036268936192 456.85084837687907 52.48025041617075 0.3913362346156556
1.4680182503152757 13.073432885285673 409.00759127337176 54.90220126200232 0.397915884168511
1.494427007091288 13.067568411951255 366.525890680387 57.44242347539748 0.40468852336194616
1.52063888321191 13.060423993688309 328.83027080953394 60.10754451370503 0.4116639224410718
1.5466225476207274 13.05193786117512 295.28447621137826 62.904669335641735 0.4188526201329503
1.5723381227388806 13.04205876527849 265.4528415395329 65.84142361184549 0.4262659868795706
1.5977628293983877 13.030731019754713 238.91632475320182 68.92600109429443 0.4339162934021926
1.622849463642779 13.017909513925302 215.23740612053888 72.16721557551898 0.44181678522411894
1.6476023108841042 13.003569435060081 194.09050533683504 75.5745579225565 0.4499817638547349
1.6719504476027427 12.987637473063208 175.2321403368529 79.1579597347812 0.4584254268258611
1.695887411001273 12.970087975388497 158.35845587711552 82.927622985139 0.467161090293322
1.719368048489958 12.950878593369078 143.2758996634678 86.89627903965633 0.4762102805161675
1.74235100187353 12.929938501932483 129.77681611427658 91.07550622667442 0.4855873432016079
1.7648337432622556 12.907292281304047 117.67494311496202 95.47939089474202 0.4953141879645673
1.7867601219498854 12.882855954395717 106.8170931649172 100.1216043759776 0.5054083512197259
1.8080995687405288 12.856601007033236 97.08673944572145 105.01866953504579 0.5158955257634799
1.8288091727884261 12.828468591721379 88.33076627047983 110.1871265622997 0.5267982476896417
1.848889238591892 12.79850358687415 80.46132771547076 115.64460932417408 0.5381399032737831
1.868266242342715 12.76656663703775 73.3861958393862 121.41131990382856 0.5499498021732562
1.8869454122589162 12.732747658434027 67.00700197114932 127.50868273240019 0.5622577516668533
1.904867782877701 12.69693492186058 61.255026038584624 133.9591312840963 0.5750930265676388
1.9220107648631513 12.65911851615765 56.07358381334275 140.7883502016167 0.5884919322990485
1.9383242666264593 12.619232995046042 51.39045687518062 148.0240200810488 0.6024927490392024
1.9538195313473097 12.57739292718755 47.15863968099109 155.6946493060066 0.6171312771981217
1.9684390104684317 12.533463334495526 43.33711204303235 163.8338707362585 0.6324550722626343
1.9821548616202502 12.487465598127436 39.87963878922053 172.4754527264986 0.6485056832812458
1.9949446131262427 12.439392615990084 36.74426912713786 181.6586913407386 0.6653363040842583
2.0067810383246396 12.389234622421819 33.902776452843185 191.4255831276434 0.6830013366047671
2.0176287808679345 12.336963459013651 31.32673282187459 201.82215912108668 0.7015600102034213
2.0274655460947044 12.282580387397985 28.990792750673368 212.8983662191656 0.7210749989160209
2.036276977920449 12.226118090214682 26.86937109529945 224.70968361344316 0.7416166161290033
2.044023429077147 12.167525283504636 24.94180410787193 237.31727336008683 0.7632619978690858
2.0506845979131425 12.10682202421646 23.18794314327649 250.78799534725482 0.7860937284952414
2.0562573015924133 12.044079622118486 21.593490614752437 265.1949665375763 0.8102000329924905
2.060705251845029 11.979232658165149 20.142357410238674 280.6198748759846 0.835680442865649
2.0640128674715967 11.912339887265507 18.82113543814662 297.15248343487514 0.8626420462374217
2.066173970929274 11.843442108431846 17.61849014616217 314.89316693233286 0.8912053323166036
2.067168528376842 11.77255409249119 16.524174304000947 333.9513085130437 0.9214960990922819
