M[M_sun], R[km], Lambda[1], P_c[MeV/fm^3], rho_c[fm^-3]
0.24162668629717493 15.618656898711224 2160425.4255784233 3.5677272577965504 0.1711233750220791
0.25364475035765655 15.277275913674272 1723201.5096433535 3.7848339580078716 0.17388835194394203
0.2660407297102489 14.981269447576635 1382995.8270015595 4.011431657179129 0.17666702574135285
0.2788167983721887 14.723483185136374 1116359.2738662418 4.247776001501158 0.17945806847449944
0.29197245119850207 14.498371264022046 905783.3872285705 4.494492353977284 0.1822680496333404
0.30550911536631953 14.301186652261011 738590.7154401205 4.751736762514931 0.18509268414959656
0.3194267803117964 14.128058330722599 605087.0068516405 5.0201908311046965 0.18793857579471926
0.3337265946968037 13.975898854645829 497657.9672617071 5.300079514086966 0.19080236512384968
0.3484076319256913 13.841971694373534 410972.0917345242 5.592130451612507 0.193690328911846
0.36347061251095786 13.72394738480721 340633.0074063627 5.896512173067225 0.19659755315601213
0.37892565553061547 13.619956683694866 283277.2412745959 6.214088279343448 0.19953170837219167
0.3947583941083829 13.528429211194977 236385.69332051053 6.545114773874286 0.20248894764347036
0.41098546417549764 13.447818062221375 197837.78237050274 6.890296932679907 0.20547303059745964
0.42759385150539225 13.377020786249822 166061.29027908275 7.250338673826111 0.20848700846228885
0.4445911835286823 13.314882234923656 139784.1198663824 7.625497052026021 0.2115263969398861
0.46197362591959945 13.260525605148086 117965.06728435287 8.01672495236353 0.21459741752690845
0.47973955777074445 13.213117128670456 99804.94992690874 8.424725743530413 0.21770168947963175
0.4978979148183423 13.171955947528126 84631.5689370295 8.849937815576526 0.22083664443401535
0.5164379018345335 13.136376356859085 71926.64415364226 9.293239479127601 0.22400576041106707
0.535358112580774 13.10581868601825 61265.93714096671 9.75551341623598 0.2272119235542742
0.5546659577163094 13.079799223454927 52296.92748555118 10.237569402587779 0.2304564851007688
0.5743503098135426 13.057813080180612 44722.10125474994 10.739874805563465 0.23373609252206082
0.5944092612436849 13.039525483424898 38322.17384372618 11.26368203633371 0.2370570299725036
0.6148474609104384 13.024497051804211 32895.538937663296 11.809925325297401 0.24042086676695465
0.6356527022255458 13.012418112522433 28286.453436215827 12.379583924817693 0.24382923629930184
0.6568250805791536 13.003015284408155 24365.81054259923 12.973341816218213 0.2472800314933981
0.678358012045569 12.99597010127644 21023.252224935037 13.592536002135283 0.2507781509997923
0.7002479390730847 12.991060593813712 18032.63278179864 14.238359666219306 0.2543261775608836
0.7224844832575599 12.988007784355798 15726.025334733937 14.912002818832018 0.25792609641374764
0.7450734350554097 12.986639177021594 13630.957728555499 15.614487429495922 0.261577725546659
0.7679953461373177 12.986759455650422 11833.35721834347 16.34709536192552 0.265283115278411
0.7912421487452082 12.988147795266187 10286.472598566004 17.111435631944136 0.2690468815566433
0.8148191050601078 12.990672871269101 8954.17596849681 17.908963709800425 0.27287145779605043
0.8387018210774239 12.99414445736865 7805.740430785596 18.74103208071939 0.2767578084764987
0.8628833232596729 12.998413217610599 6812.261336578786 19.609011280494713 0.2807066458513129
0.8873684635897444 13.003358687351357 5953.852807420723 20.514975245651865 0.28472421843705104
0.9121255100321427 13.008859309659378 5209.762658096404 21.460718661178554 0.288813540688465
0.9371472480161417 13.014746412856384 4563.935175701937 22.447709193904917 0.29297439997068647
0.9624326857324982 13.020957286631896 4003.518032792927 23.478005810363964 0.297210862906798
0.9879545665876529 13.027348516739718 3515.596136884974 24.554015558003037 0.301528900653267
1.0136982324366726 13.033801895092477 3091.0285340905843 25.677661016609935 0.3059299960643544
1.0396647710950793 13.040265136299793 2720.64203605367 26.850943765702734 0.3104157053689639
1.0658171073131228 13.046583547271714 2397.513989467773 28.07694223741285 0.31499462060155237
1.0921513280844553 13.0527189405812 2115.07157875676 29.357687229771038 0.3196670183788961
1.1186512781321891 13.058546664767785 1867.861530081142 30.695984051015216 0.3244379207680278
1.1452846449187009 13.064010356979113 1651.617468524894 32.09518265627708 0.3293150460730303
1.1720486444647917 13.06901702782166 1461.6336719294695 33.55727718964379 0.3342964344179118
1.1989064966866672 13.073471361603383 1295.0140042897676 35.0867860154511 0.339395487778117
1.22585347998558 13.07734132404425 1148.7172607478064 36.68570199787043 0.3446087795467925
1.252850509336216 13.080501225826788 1019.8235718648343 38.35910804618413 0.34995093446381453
1.2798941486453137 13.08294135093771 906.4386867098033 40.10927792461877 0.35541872264384516
1.30693938724001 13.084524988239206 806.5543708534441 41.941620807278326 0.3610263383324445
1.3339775424613844 13.085242555710426 718.3629409314083 43.859685413791844 0.3667760732920863
1.3609871364567618 13.08502923180995 640.4071078130421 45.86809840881731 0.3726753338257319
1.387919689587363 13.083770613322931 571.6153066409464 47.97222571600854 0.37873425412053957
1.414770299853183 13.081459109403008 510.6549477178847 50.1768617853269 0.38495867282203067
1.4415011969989742 13.078022030877097 456.7263842609689 52.48715766289367 0.39135519932723506
1.4680967805947491 13.07341871520185 408.8839547771727 54.90956610453089 0.3979357090000598
1.4945067875053304 13.067549912750673 366.4084323418983 57.45027897895495 0.4047092662193398
1.5207184383756338 13.06040067243509 328.72726859001057 60.11592644313899 0.4116856457268918
1.5467034176603265 13.051908831578874 295.18569555002347 62.91361639941865 0.4188753911215857
1.5724195258994842 13.042023453932918 265.37062275154653 65.85097773064923 0.4262898781297724
1.5978328526911474 13.030686269354629 238.8312066719909 68.93620769699461 0.43394138321113873
1.6229311282448027 13.01786333084541 215.16491974079563 72.17812392561397 0.44184315812752745
1.6476836272017132 13.00352215345506 194.02354613562932 75.58622147858351 0.45000951117811655
1.6720326841962467 12.98758218882267 175.167736604423 79.1703756385296 0.458454392987259
1.695969469810249 12.97002420929814 158.31179825723137 82.94091238622212 0.467191629298306
1.7194495318332783 12.950807599096883 143.22843009802364 86.9105103557211 0.4762425074451134
1.7424258437335538 12.929831324682155 129.74295931519632 91.09068538112416 0.48562111123301266
1.7649130821884966 12.907207343042897 117.63564385817759 95.49566413025224 0.4953498950769136
1.7868395021671475 12.882767148157164 106.78831801409764 100.13898586262597 0.5054458597138387
1.808176296322172 12.856501559484565 97.05091752055863 105.03724941400701 0.515934980175399
1.8288855929177315 12.828359549242231 88.29902266679613 110.20700315632712 0.5268398043604248
1.8489643026791496 12.7983832756612 80.43570995054915 115.66597118750829 0.5381840295120193
1.8683394689959059 12.76643951835859 73.35925066687588 121.43420590612887 0.5499963896871554
1.8870161291634835 12.73261368891765 66.98259735064643 127.53314730666662 0.562306735918544
1.9049380852941002 12.696788923870924 61.23416886472441 133.98537297720637 0.5751448358178115
1.9220771370897423 12.658964698191786 56.05353995958488 140.81653585578903 0.5885468486718387
1.9383897277186426 12.619067734244597 51.373659375998145 148.0543185051742 0.6025510295654481
1.9538831772126528 12.577217121733502 47.146185550890536 155.72714610031375 0.6171928618763086
1.96849762049558 12.533276005514665 43.32520941910551 163.86876285237025 0.6325202510255048
1.9822115117336756 12.487268472701512 39.8654108486597 172.51306147580314 0.6485751237247811
1.9949953852410525 12.439182216928321 36.73168882220441 181.69915307155304 0.6654100056879704
2.0068308385635802 12.38901315462655 33.89086806268813 191.46916062434795 0.6830796763932264
2.0176747287179624 12.336729259847603 31.31668950147243 201.86914226749644 0.7016434006537934
2.0275083679356536 12.282337290802985 28.981534752148725 212.94895664122546 0.7211635038326858
2.0363142846725015 12.225859894088703 26.86001328461942 224.76434963292672 0.741711107645094
2.0440552544124913 12.167256670372504 24.933542609365446 237.37628132541357 0.763362611870532
2.050711986594478 12.106539395942159 23.179828528148793 250.85177162974395 0.7862010396868914
2.056281644973665 12.043781674011274 21.587057966572626 265.2641154771423 0.8103151008453972
2.0607233301870913 11.978924145573306 20.13537555382619 280.6946593318393 0.8358031067791805
2.0640256880360583 11.912019075025894 18.815601125839116 297.23361948067577 0.8627735011696659
2.066181793527186 11.843106834331921 17.612923439258783 314.9813061824292 0.8913464259203516
2.067170338419953 11.77220570617568 16.517958752418018 334.04703236424626 0.921647287268889
