M[M_sun], R[km], Lambda[1], P_c[MeV/fm^3], rho_c[fm^-3]
0.24162668629717493 15.618656898711224 2160425.4255784233 3.5677272577965504 0.1711233750220791
0.25364502113258997 15.277274351001896 1723212.3313518378 3.7848395665389716 0.17388842185157655
0.26604182611026883 14.98124831908953 1382973.7578270985 4.011443447519745 0.17666716822066103
0.2788180293748716 14.723470674160119 1116380.1512182457 4.247794372628347 0.17945828155189011
0.29197380051978017 14.498350191322771 905836.8937116838 4.494517788058036 0.1822683328477325
0.3055110094839883 14.301153284684013 738630.309552663 4.751770123263249 0.18509304450934833
0.31942821495553114 14.12807199287344 605015.4389791647 5.020232364363058 0.18793900671830513
0.33372630293245853 13.975913582533343 497638.72383490915 5.300130313439433 0.19080287658903763
0.34841066773128004 13.841945894370541 410956.3666578216 5.592190643993823 0.1936909112896936
0.3634752900886084 13.723897838476727 340626.24527263985 5.896583110932547 0.19659821941945527
0.37893004721703233 13.619915768412945 283262.8418668066 6.214170821285392 0.19953246105531522
0.3947637108147214 13.52836938467709 236373.1108618498 6.5452088342940415 0.20248977242628222
0.4109904754407411 13.447793631272946 197828.5126888383 6.89040432760252 0.20547394521768717
0.4275995160140131 13.377007216771265 166048.99425775788 7.250460411203237 0.20848801556441118
0.4445965304517869 13.314871756139901 139775.89392022905 7.625632795481162 0.21152747754507178
0.4619790314371036 13.260494715814957 117949.25061199201 8.016877069841101 0.21459859427857916
0.4797474577068832 13.2130967867859 99788.41785127424 8.424895421423335 0.2177029652201812
0.4979058792534915 13.171946184400156 84622.12016047716 8.850124428332586 0.22083799559010273
0.5164464000000053 13.13635938422454 71923.92787483183 9.293446047056303 0.2240072146621631
0.5353674303178886 13.10579767153063 61260.477242080146 9.755741340165454 0.22721348404214256
0.5546756716819907 13.079785734043188 52291.107397141386 10.237818978887676 0.2304581398079275
0.5743608628143118 13.057818923779529 44717.73331062519 10.740147323873929 0.2337378421740296
0.5944203255222246 13.039490641566225 38319.27218461959 11.263980405824245 0.23705889419047985
0.6148593157234347 13.024477431764751 32892.8840893555 11.810251308905427 0.24042284929118307
0.6356655356226952 13.012411798247323 28283.5469541886 12.37993939547908 0.2438313410674649
0.6568384800358363 13.002996972674081 24170.170487145322 12.973725141534846 0.24728222242371806
0.6783717689819087 12.995973338233462 21020.648847909815 13.592952626089168 0.2507804706503473
0.7002625227711787 12.991055344061175 18166.537817452674 14.238811823085477 0.2543286305339501
0.7225004907209831 12.988001751652412 15724.289763520894 14.912492886458832 0.257928687586023
0.745090720404874 12.986646794331737 13629.379018291105 15.615013156395559 0.26158041271384147
0.7680138277940075 12.986753556731768 11832.722256903611 16.34766386848305 0.2652859491410139
0.7912616797809288 12.988148803190676 10217.965116049234 17.11204977190599 0.2690498679113125
0.8148382975808054 12.9906667029416 8953.245676673601 17.909626526135018 0.2728746028121644
0.8387229778089651 12.994143659800217 7804.909589702524 18.741740633370746 0.27676106390931676
0.8629057831127053 12.998419261251293 6811.513688556526 19.609774783670886 0.28071007120854813
0.88739063817009 13.003370754168007 5953.154344015822 20.515797374771477 0.2847278211343263
0.912150618015998 13.00886360204925 5209.396254571782 21.461603343373422 0.288817328641431
0.9371699354214172 13.014759863115831 4563.714810355238 22.44865274358275 0.29297831893887244
0.9624561360521171 13.0209692810755 4002.939480599233 23.47902007018151 0.297214982117283
0.9879795951611584 13.027356867602904 3515.1481272921396 24.555105302908267 0.3015332296924493
1.0137247258363304 13.033806464707405 3090.5861267168034 25.678822027911306 0.30593447663056456
1.0396921372389762 13.04026821601221 2720.3377535615823 26.85219023923151 0.3104204143215037
1.0658452795942488 13.046592918487292 2397.1801608442065 28.078280009009536 0.31499956960039616
1.0921808854830897 13.052724940852054 2114.6943231163254 29.35911155758521 0.3196721450844854
1.1186805423404342 13.058556625303439 1867.5732826114247 30.69751194286922 0.3244433105055477
1.1453152796305257 13.064008930670557 1651.3684618210496 32.09680912482881 0.32932063445877335
1.172079552814211 13.069019414580646 1461.4031445182923 33.559021316396915 0.3343023123048968
1.1989376552874629 13.073477140019142 1294.8486720706687 35.08865603394413 0.33940167142231026
1.2258861652202109 13.07734191295145 1148.556328680768 36.68769248071647 0.3446152005363337
1.2528845601304344 13.080508085298392 1019.6546699051175 38.361227072665805 0.34995760707506157
1.279928807874966 13.082946325050102 906.2721005935591 40.11154958401556 0.35542575039910645
1.3069745738334375 13.084523891774374 806.4256596196716 41.944039665055875 0.3610336509059614
1.3340139752088138 13.085238818179386 718.2750345798011 43.862278594365385 0.36678378156584507
1.3610233220288022 13.08503035625539 640.3068296881617 45.87086047776518 0.37268336554703363
1.3879564643347189 13.083769350035189 571.5143624063106 47.975168473097206 0.37874263015715653
1.4148063027228803 13.081460115576771 510.57035363934 50.18001750508062 0.3849675154965481
1.4415396395967293 13.078015081291674 456.6723826086459 52.49052133485621 0.3913644347101852
1.468135182391941 13.073412091321948 408.82100762352286 54.91315262551189 0.39794536326951896
1.4945451288591873 13.067539412616378 366.35008385008837 57.454104452564856 0.4047193675773206
1.520758645263873 13.060387101406391 328.689384788847 60.12000828785191 0.41169622456557925
1.5467420670817345 13.051895139143756 295.14026981562165 62.91797346741803 0.4188864802060464
1.5724596179954764 13.042008281435216 265.3227596263374 65.85563043865973 0.4263015127989112
1.5978731311036634 13.03066684188488 238.7939376343281 68.94117817044537 0.43395360159887403
1.6229709896771551 13.017844363350871 215.12299598711306 72.18343615764758 0.4418560014063997
1.647723933936919 13.00349540796939 193.98256750010535 75.59190150561045 0.45002302382780657
1.6720720586114455 12.987553045112453 175.14658371398014 79.17642206812337 0.4584684992383256
1.6960092798867576 12.969992151024725 158.28626936266815 82.94738422363783 0.4672065015618382
1.719487794793228 12.95077451942598 143.20187399856172 86.91744092354527 0.47625820177133094
1.7424700272312879 12.929822762241843 129.71296755449166 91.09807756388103 0.48563755611868203
1.7649506751229367 12.907167305921682 117.60931149582663 95.50358915579248 0.49536728435252114
1.7868786685931801 12.882723053885893 106.76003676850996 100.14745063199946 0.505464126318913
1.808214331387783 12.8564533057588 97.03253581799201 105.04629783064607 0.5159541945070982
1.828928602125026 12.828316719115692 88.282501721345 110.21668310879281 0.526860042566088
1.8490012239196414 12.798326079712073 80.4222559655461 115.67637451368705 0.5382055191939927
1.8683737089149648 12.766377972403896 73.34439805519482 121.44535153732355 0.5500190781078496
1.8870495799323763 12.732548908435021 66.9702827021322 127.54505544742509 0.5623305691194599
1.9049711919916015 12.696718719880204 61.22363875424128 133.99815294695262 0.575170067446236
1.922111168711913 12.658887852515083 56.044577667029706 140.83026261167126 0.5885735936123188
1.9384207476221802 12.618986037648323 51.36396114226982 148.06907426943346 0.6025794130121459
1.951579426489842 12.579629898499165 47.60588278385533 156.21973865043455 1.1314002297737362
