M[M_sun], R[km], Lambda[1], P_c[MeV/fm^3], rho_c[fm^-3]
0.24162668629717493 15.618656898711224 2160425.4255784233 3.5677272577965504 0.1711233750220791
0.2536440605941988 15.2772902681554 1723180.3516385136 3.7848203670725162 0.1738881825394893
0.2660399756690185 14.981271310144317 1383023.7330268542 4.0114030862079675 0.1766666804780278
0.27881501508781464 14.723533165014157 1116464.297970352 4.24773148377787 0.17945755213599607
0.291969533875618 14.498413707182893 905889.9511586692 4.494430721203179 0.1822673633380965
0.3055046053985305 14.301234667404579 738640.1828835558 4.751655921834159 0.18509181091595744
0.31942175573140613 14.12813420105383 605115.5742178839 5.020090186900225 0.18793753157225276
0.33371968094452165 13.975928323102192 497669.08088159165 5.299956416514167 0.1908011257355474
0.3484003211951817 13.842032335703916 411008.9255347359 5.591984593200046 0.19368891769158117
0.36346224768642443 13.724004238497619 340655.87124567945 5.896340276718649 0.19659593866912914
0.3789161730761507 13.620005801801739 283299.60818465863 6.2138882646929945 0.19952988447941283
0.39474910663178847 13.528437040427415 236408.00023274592 6.544886848461818 0.20248694904551517
0.41097316910693715 13.447872619148988 197875.4909247442 6.890036696183486 0.20547081431425213
0.4275813663818712 13.37705532087919 166080.70646865707 7.250043684012285 0.20848456808715846
0.44457624900088544 13.314936781513529 139799.24388179395 7.62516812409926 0.2115237784620891
0.4619573398967264 13.260574148324995 117983.03512443039 8.016356348730241 0.2145945660798017
0.4797224410689472 13.213167555566855 99815.73465407995 8.424314589631535 0.2176985981770948
0.4978796723226956 13.171983110338662 83766.55611654517 8.849485627303968 0.22083337039771686
0.516417237688835 13.136403486287604 71939.79572884533 9.292738938268606 0.22400223657221463
0.5353357392530728 13.105846015327963 61276.147757173756 9.754961128703284 0.22720814230148254
0.5546423808264344 13.079824542168476 52301.498715774804 10.236961768042237 0.2304524384917345
0.5743247082608552 13.057838841983877 44730.66307069739 10.739214464127379 0.23373185292549298
0.5943807934313093 13.039523424216503 38329.34340566611 11.262959056861552 0.2370525127836783
0.6148180661282185 13.024502543368047 32901.84419749459 11.809135436400888 0.24041606292456333
0.6356214820081406 13.012436814850235 28292.37897395261 12.37872258861166 0.24382413626371222
0.6567921433014375 13.003025106825586 24371.331410033734 12.97241298811929 0.24727472269286857
0.6783242160140144 12.995972259479213 21028.764890125694 13.591526491779756 0.25077253031659674
0.7002098560782549 12.991060652168674 18172.708505825816 14.237264060297194 0.25432023384528507
0.7224451137525981 12.988008258920331 15729.918610546252 14.910815356197926 0.2579198178511838
0.7450335459741441 12.986651549038692 13634.228967293424 15.61321356551239 0.2615712143989625
0.7679532505829315 12.986753453018583 11836.794689535003 16.345717844709963 0.2652762487005847
0.7911974616615446 12.988144546231085 10289.23380648597 17.10994754739568 0.26903964550539183
0.8147710581210488 12.990665844138695 8956.563634816064 17.907357685395716 0.27286383732508634
0.8386540449974251 12.994124393653566 7807.969895632112 18.739315240048217 0.2767499204819319
0.8628351137740956 12.998404751232963 6815.022697804022 19.607161298953972 0.28069834615086187
0.887314623591394 13.003350558176276 5955.482506422806 20.512983218505997 0.28471548906522914
0.9120701368104851 13.008854888145045 5211.388007464952 21.45857507388221 0.28880436246841706
0.937090734247091 13.014736642835938 4565.519985966855 22.445422976235278 0.2929649043240617
0.9623688290159664 13.020933287530124 4004.552624724537 23.475548269888623 0.2972008821047212
0.9878933336149863 13.027336769845862 3516.69293737269 24.55137512623699 0.3015184114713323
1.0136352840298335 13.033793881261508 3091.9206247396687 25.674847914801447 0.30591913976270263
1.0395991790461447 13.0402491504816 2721.596445605712 26.847923600595184 0.31040429572902734
1.0657499265531574 13.046575547324906 2398.420456078102 28.0737008704081 0.3149826293755474
1.0920807063398754 13.05270061858616 2115.8784762251958 29.35423614946549 0.31965459660877027
1.118578860157744 13.058534884039144 1868.6744080382332 30.69228205190146 0.32442486172627044
1.145210302414951 13.063992435739255 1652.190803503267 32.091241821601486 0.3293015057532416
1.1719724022163895 13.069002502882169 1462.1205572967506 33.5530512903365 0.33428219270153775
1.198828508669902 13.073465946865786 1295.546726502652 35.08225510436337 0.3393805052834826
1.2257736179679732 13.077328861662533 1149.1228637439006 36.68087922416955 0.3445932220253828
1.2527692671419681 13.080491602400414 1020.2403592908307 38.35397383630616 0.3499347673291078
1.279811092950335 13.08293827744622 906.7379908004499 40.10377391818345 0.355401695086704
1.3068545266044727 13.084523737228297 806.7526478888891 41.93576017055479 0.3610086207397467
1.3338929163345186 13.085234799786528 718.6480021826234 43.85340243391553 0.36675739702657595
1.360899131410362 13.085036376170839 640.6526722572657 45.861406251640766 0.3726558739417234
1.3878299866787203 13.083775326443302 571.8335988098642 47.965095795043666 0.37871396006388497
1.4146865951782432 13.081485135977871 510.8504128628299 50.1692159119975 0.384937248242369
1.4414098869932122 13.078033379621507 456.8924981599396 52.47900797571737 0.39133282333967284
1.4680041161389574 13.07343647642776 409.03422038143304 54.9008765145514 0.39791231818662376
1.4944127319047202 13.0675741551922 366.55043997596925 57.441010473813485 0.404684792259269
1.5206236501730233 13.060428235254633 328.85668592182924 60.106036825318455 0.41166001499398497
1.546607956598837 13.051941877021413 295.30522273810885 62.90305999836855 0.4188485242416421
1.5723238137227904 13.042063164830457 265.47250721993606 65.83970508588165 0.42626168949384374
1.5977479818225235 13.030737334901994 238.9351579742624 68.92416520888888 0.4339117804398069
1.622834847484287 13.017917870051692 215.24774047415357 72.16525347026531 0.4418120414808505
1.647586958269929 13.003578892014813 194.1043433003346 75.57245998257783 0.4499767729052433
1.6719359150724016 12.987647569678812 175.24245618620517 79.1557264740384 0.4584202166540983
1.6958730415896197 12.970101877567055 158.3700391960537 82.92523261424402 0.46715559722796723
1.7193534810749813 12.950890624064005 143.28397885324492 86.89371925338233 0.47620448385969566
1.7423390719709282 12.929950595946906 129.78358550345877 91.07277595953828 0.4855812693622052
1.7648200547694046 12.907307524775874 117.68551359384787 95.47646384457704 0.49530776536292676
1.7867464590550983 12.88287066842682 106.82547002995132 100.11847799410181 0.5054016046232722
1.808084563977456 12.856620128756028 97.08984066814293 105.01532760929507 0.5158884291771433
1.8287953989506969 12.828488566729398 88.33637362658793 110.18355140910957 0.5267907729953396
1.8488755761251052 12.798525955935009 80.46771277916093 115.64076703213152 0.5381319664242963
1.8682616584332963 12.766620150567523 73.38482047541486 121.40720348203737 0.5499414226469895
1.8869316693483233 12.732772880358027 67.01054580612016 127.5042690692345 0.562248893480097
1.9048552860334431 12.696961235700037 61.258496177890976 133.95441131439728 0.5750837078819154
1.921998766382064 12.659147423296313 56.07762451437272 140.78328059763828 0.5884820547826255
1.9383135135367808 12.619275144070917 51.39425089226637 148.01857048303887 0.6024822664662959
1.9538111385345673 12.577421466941571 47.165186437880365 155.68880431866046 0.6171202003620092
1.9684286346325695 12.533498183011861 43.341157546291136 163.82759493857816 0.632443349020412
1.9821445654143992 12.487502226565988 39.88168454415732 172.46868833281314 0.6484931935679091
1.9949357526644673 12.439430686303146 36.74658097651148 181.6514138292108 0.665323047996102
2.006772565737646 12.389274538416768 33.90532916413892 191.41774523832302 0.6829872463371346
2.017621222014853 12.337005066240387 31.32899784290007 201.81370872068726 0.7015450115762756
2.027460558437681 12.2826227664475 28.993022479916014 212.88926704631848 0.7210590804575111
2.0362708635939994 12.226164016563244 26.871349455880292 224.69985144572547 0.7415996209930326
2.044017544668511 12.167573741267743 24.943401146299873 237.30666029688123 0.7632439016213877
2.0506800469603146 12.106873049703571 23.188891320349104 250.7765247106119 0.7860744277828278
2.0562542226179206 12.044132334139807 21.595213042936365 265.1825296457672 0.8101793372819521
2.0607027930250226 11.979288077803663 20.143549474639684 280.60642445561547 0.8356583810456858
2.0640096067072053 11.9123956140939 18.822209544046075 297.13789071178934 0.8626184034112824
2.0661730377542917 11.843502053267327 17.62003427912244 314.87731472447706 0.8911799560497158
2.067167995701445 11.772617233873293 16.524518856984347 333.93409226525716 0.9214689074041272
