M[M_sun], R[km], Lambda[1], P_c[MeV/fm^3], rho_c[fm^-3]
0.24162668629717493 15.618656898711224 2160425.4255784233 3.5677272577965504 0.1711233750220791
0.25364196463701183 15.27737130548904 1723245.1165090972 3.7848027966018387 0.17388796353204858
0.26603785182468653 14.981277763756738 1383030.1048003947 4.011366149642063 0.17666623412142732
0.27881131232948536 14.723619286470432 1116495.559066198 4.247673931567497 0.17945688461708506
0.2919652460156454 14.498499196075535 906001.4121879012 4.494351043209407 0.18226647610514357
0.30549935605216266 14.301279984416157 738728.1248580259 4.7515514127083 0.18509068201793952
0.319414264356484 14.128234318445168 605179.3278848615 5.019960076882814 0.18793618163060427
0.33371098822412915 13.976033845853804 497739.1563653103 5.299797280274058 0.19079952349766427
0.34839105230373 13.842106519572596 411062.66244045773 5.591796033497462 0.1936870933245877
0.36345185761164367 13.724071784009737 340695.0346686927 5.896118057433054 0.19659385153857223
0.3789043328642596 13.620074344971593 283340.005601525 6.213629696789835 0.19952752665147205
0.3947353481738322 13.528514096629081 236446.32003214516 6.544592200484331 0.20248436538080253
0.4109573906814608 13.447951824454636 197900.12445592135 6.8897002801594125 0.2054679492542196
0.4275646818097854 13.377121924342768 166113.24279049318 7.249662343224799 0.20848141335255285
0.4445573255843122 13.314991747891305 139836.09054195255 7.624742912611386 0.21152039350523555
0.4619368976502947 13.260632595182926 118002.80448851358 8.015879850097418 0.21459087997764423
0.4796997768192726 13.213208602810264 99833.93502348982 8.423783088399334 0.21769460203085375
0.4978541760149374 13.17205615080227 84665.40255613383 8.848901083262225 0.22082913804909818
0.5163897298660236 13.136462938383858 71955.92107643532 9.292091892021677 0.22399768132629763
0.5353069048554501 13.105891114962185 61293.23989761208 9.754247193365448 0.22720325432225172
0.5546113841856884 13.079865118504056 52313.3669685306 10.236176290173576 0.23044720751554512
0.5742915062186879 13.057874001612909 44743.3750336315 10.738360856658204 0.23372637250112638
0.5943463372229445 13.03957427559107 38337.07568047496 11.26202448328162 0.23704667355103856
0.6147802208531372 13.024527879590227 32911.930670565685 11.808114376029378 0.24040985317390293
0.6355795654179368 13.012448795246822 28303.382231392487 12.377609176360739 0.24381754366715602
0.6567495474246822 13.003045613720877 24378.60172933234 12.971212336932188 0.24726786026303327
0.6782793352996618 12.995990747378123 21034.535597348124 13.590221552879173 0.25076526476641237
0.7001645247100711 12.991057957880276 18042.424504197355 14.235847837246308 0.25431255076611525
0.7223958956662487 12.98799744704199 15734.84356988974 14.909280403043692 0.25791170197525237
0.7449811533150834 12.986641241685954 13639.298762202201 15.6115669337735 0.26156279790976733
0.7678983046280349 12.986756496251497 11758.253776010855 16.34393723661466 0.2652673728158215
0.7911387940956547 12.988125675667067 10292.445586038668 17.108024027006866 0.2690302920770997
0.8147123732070347 12.990657159389801 8959.573992093798 17.90528172435843 0.27285398703840275
0.8385911596753195 12.994121566269376 7810.152439676082 18.737096045837852 0.2767397244327772
0.8627684848283124 12.998385632942707 6817.310041400823 19.604770018176854 0.28068761798211683
0.8872410503322787 13.003340884999194 5958.153127399518 20.510408342746906 0.28470420556041204
0.9119987611610157 13.00882588301892 5213.297450407941 21.455804306689092 0.28879249884567426
0.9370156343849287 13.014714666810544 4567.2158415587965 22.442467859211064 0.2929526304503316
0.962291740184735 13.020919938059755 4006.5204132351882 23.47237172058948 0.2971879811941726
0.9878127243221125 13.027317222686653 3518.0724168605034 24.547962193993463 0.3015048535117238
1.0135527323826783 13.033773868055869 3093.4716707934394 25.67121181006979 0.3059051073342689
1.0395150595370495 13.040221937739885 2722.7179592425864 26.844019874073997 0.31038954815317255
1.065662512801313 13.046550981794448 2399.4379041447664 28.069511250247597 0.31496713014878724
1.09199156019639 13.052677764455982 2116.878074632752 29.349775483714783 0.3196385409509304
1.1184864970369743 13.058516534082045 1869.4509291611346 30.687497088391538 0.3244079824574313
1.1451142388128348 13.063970082369108 1652.8553705730012 32.08614817664473 0.32928400449087397
1.1718754189464349 13.068990069952557 1462.8941893790163 33.5475892204265 0.3342637849627781
1.1987271287853636 13.073443106175638 1296.0429764273763 35.07639883187076 0.33936114017798863
1.2256712462013886 13.077313880123672 1149.604829585245 36.674645742551846 0.3445731137786063
1.252664704864195 13.080485315481555 1020.7009850144715 38.347297001635155 0.3499136316104292
1.2797029061561627 13.082930846995042 907.1526433599286 40.096660009177995 0.3553796870288446
1.3067453240150293 13.084518807614346 803.813215730407 41.92818535350893 0.36098572092023734
1.3337786597909373 13.085233381521347 718.9181336903437 43.845281789687675 0.36673325827224285
1.3607852776351708 13.085037296384304 640.9699709624936 45.8527567945006 0.3726307224952997
1.3877148858807697 13.083783642559071 572.1180816469933 47.955880583728565 0.37868773059774724
1.4145694305209096 13.081499886886162 511.0871970749779 50.15933390778371 0.38490955777754265
1.441291426373235 13.078053421374694 457.09593319077766 52.46847486481967 0.39130390336356335
1.4678843523725587 13.073458989549747 409.23971350571713 54.88964566164834 0.3978820867504335
1.4942916686753507 13.06759928077391 366.73357775864065 57.42903146626387 0.4046531610794852
1.5205020503002156 13.060464613842548 329.01715453262796 60.09325513498838 0.41162688893220045
1.5464843122330447 13.051986608241107 295.4494956892937 62.88941660971531 0.41881380073282215
1.5721996272688743 13.042116415782461 265.61072338064264 65.82513608654071 0.4262252579175159
1.597622660477092 13.030796578650822 239.05180864330552 68.90860133854667 0.4338735214279869
1.6227088294454033 13.017956196605995 215.25755824119943 72.14861962308677 0.4417718261557893
1.6474620760323877 13.0036576659473 194.20977186782528 75.55467465786923 0.44993446203924375
1.6718109834897719 12.987733802668881 175.33193889433096 79.13679402708514 0.45837604747195765
1.6957489952707738 12.970197109770202 158.45379501629927 82.90496834912716 0.46710903000574777
1.719213924044539 12.9509632098163 143.3768316455566 86.8720188664024 0.47615534315997965
1.7422175461835165 12.93007411905032 129.8592250854587 91.04963041764576 0.48552977905106204
1.7647000471472347 12.907435079807403 117.7558455782647 95.45165020381474 0.49525331869447753
1.786625820372504 12.883014968671922 106.88374814554206 100.09197464931039 0.5053444115550274
1.8079659604955327 12.856773087371868 97.14101763301994 104.98699714181933 0.5158282693700756
1.8286790041764502 12.828655363359847 88.37992060168017 110.15321532288276 0.5267273016488575
1.8487612155442898 12.798702087706252 80.51134785340058 115.60819510556453 0.5380646840637167
1.868150296729547 12.7668137668569 73.42502854956527 121.37230785114353 0.5498703879303118
1.8868239188235127 12.732981451067303 67.04938233456495 127.46685383911199 0.5621738014117824
1.9047498705147727 12.69718194944603 61.29267589566874 133.91439964435955 0.5750047124217477
1.9218964238935463 12.659386254834144 56.10718628184611 140.74030524799142 0.588398322458814
1.938214950958411 12.619515283959805 51.423126574019456 147.97237412909996 0.6023934054810824
1.9537172032338348 12.577698147246673 47.193514385435634 155.63925646760327 0.6170263022244461
1.9683371173017947 12.533785649249687 43.36348374247408 163.77438479940162 0.632343936007815
1.9820616989965671 12.487810158512806 39.902211742007154 172.41134727657132 0.6483873195771
1.9948554863937178 12.439751804640014 36.7676459328152 181.58972344265874 0.6652106781016117
2.0066925215247804 12.389598049033982 33.92512519997376 191.3513049654848 0.682867805861822
2.0175525107070227 12.337361517325006 31.347053899141226 201.7420767049871 0.7014178718143235
2.0273953601943533 12.282998792630067 29.00716332248298 212.81213594708555 0.7209241442140102
2.036214853678416 12.226555544281915 26.885725457032983 224.61650745276896 0.7414555589170682
2.043967122532165 12.167986052194907 24.956108042552902 237.21669742787054 0.7630905066655945
2.0506358660457056 12.107305655935255 23.200711504324218 250.67916242275666 0.7859103984553141
2.056211357476151 12.044561854772681 21.605169937779323 265.0771082061281 0.810003909881536
2.0606757419099466 11.979757963609075 20.153413062211207 280.492412518294 0.8354713749324325
2.063996461468311 11.912900403580704 18.8319143660616 297.0141969222073 0.8624179973085683
2.066161247413917 11.84401181702599 17.62820726506218 314.7429459724134 0.8909648581059614
2.0671651377670424 11.773146703268544 16.531377979311003 333.78816244556003 0.9212384229107073
