M[M_sun], R[km], Lambda[1], P_c[MeV/fm^3], rho_c[fm^-3]
0.24162668629717493 15.618656898711224 2160425.4255784233 3.5677272577965504 0.1711233750220791
0.2536437170870954 15.277280856870028 1723193.2906962282 3.78481485197868 0.1738881137965052
0.26603931487094307 14.981285111125365 1382938.8707205052 4.0113914923758465 0.17666654037340884
0.2788140810144869 14.723549641479934 1116464.402617119 4.247713418965812 0.17945734261139928
0.29196743398787073 14.498459309091922 905905.0935184702 4.494405711372362 0.1822670848478259
0.30550415014175797 14.301220347319655 738703.5064685345 4.751623117780367 0.18509145656956902
0.3194194668418519 14.12815615944391 605112.4368445316 5.020049346976624 0.18793710784228265
0.3337170510731297 13.975951442706318 497706.0769158808 5.299906465513598 0.19080062281185536
0.3483973549552967 13.842057432547387 411024.13655186014 5.591925406403422 0.1936883450430421
0.36345893365432397 13.724027781322215 340675.5540009275 5.8962705244094 0.1965952835406795
0.37891263316555224 13.620054005312236 283317.1696114686 6.2138071027673965 0.1995291443803767
0.39474434974974165 13.528475968226736 236414.12268473543 6.544794361182936 0.20248613805702356
0.410968318407911 13.447917496084049 197881.25161629898 6.889931098089392 0.2054699149965703
0.42757573569151597 13.377081118700199 166091.36424035055 7.249923984183771 0.2084835778411536
0.44457018141341276 13.314948579200202 139816.05541955054 7.625034653370652 0.211522715949268
0.4619505347035409 13.260596551830227 117992.26051907922 8.016206779055304 0.2145934090374442
0.47971507322411094 13.213176085252364 99818.37835839129 8.424147754690706 0.21769734381157074
0.49787219593005283 13.171991338408132 83775.29256207796 8.84930214224042 0.2208320418874596
0.5164098363484909 13.136406096962576 71944.00122129492 9.292535833726957 0.22400080670357933
0.5353267018404428 13.105857199289424 61281.947585740265 9.754737027585662 0.22720660798660766
0.5546325170747854 13.079820320118415 52305.28275242756 10.236715209572713 0.23045079650851022
0.5743138629141828 13.057853690054458 44735.170475726256 10.738946519600253 0.23373013263863
0.5943671806359273 13.039556301656345 37997.7660153668 11.262665696788376 0.23705067986463235
0.6148061939044251 13.024526847981035 32905.105071721126 11.808814927756455 0.2404141136972483
0.6356092631568779 13.01244138483077 28295.032727824397 12.37837309025198 0.24382206685799074
0.6567778030251912 13.003039858055176 24373.769891995893 12.972036104995741 0.24727256858348254
0.6783087509303118 12.99599664644287 21030.18929875464 13.591116872084626 0.25077024966387795
0.700196082200284 12.991073159854176 18174.869151030718 14.2368195077244 0.2543178221258813
0.7224298972311892 12.988003299848538 15731.902990113162 14.91033353332492 0.2579172702720297
0.7450166894767397 12.986654219572216 13635.681240579856 15.612696685847684 0.2615685724529764
0.7679363590086485 12.986758004013467 11838.155564474167 16.345158908654316 0.26527346254453327
0.7911793402842018 12.988141256872725 10290.150887601954 17.10934374977533 0.2690367094420271
0.8147532184649218 12.990666286166633 8957.583722617197 17.906706035057816 0.2728607452908282
0.8386352324986063 12.994116077362387 7808.493032607513 18.738618627311972 0.276746719906846
0.8628146236612851 12.998386867757715 6815.642153986423 19.60641066621847 0.28069497853517694
0.8872871580318359 13.003352666579865 5955.927116854299 20.512174953012046 0.2847119471205111
0.9120477085583188 13.008849082392683 5211.969802068538 21.457705315478115 0.28880063841480147
0.9370665235168499 13.014727439908798 4565.884519156761 22.44449534799861 0.29296105148447804
0.9623436216883968 13.020931015198164 4005.075679791905 23.47455113084499 0.29719683242678613
0.987868435993384 13.027330990426671 3517.16091511316 24.550303782980123 0.3015141555331633
1.0136092339977543 13.033783343234637 3092.3211377266384 25.67370651432924 0.30591473487845905
1.039572339397943 13.040233731620793 2721.8802815722743 26.846698189202638 0.3103996663454456
1.0657218132909638 13.0465612761543 2398.739110757248 28.072385712042756 0.3149777640328793
1.0920536467572977 13.052691994625407 2116.267166323864 29.35283590524259 0.31964955658932215
1.1185500929669459 13.05852669390461 1868.9355031644825 30.69078000454079 0.3244195631568754
1.1451795736206423 13.063982638928668 1652.3746156211384 32.08964287342515 0.32929601192479774
1.1719421464470612 13.068996973081038 1462.3402508881836 33.55133668615178 0.3342764143086522
1.1987966782440156 13.073454378439292 1295.6307381027948 35.08041675173959 0.3393744263497343
1.2257414455130904 13.07732321162491 1149.2597844699237 36.67892245780066 0.34458690979997764
1.252735432378864 13.080496051619887 1020.3200508154559 38.35188171290485 0.349928154970663
1.2797768099343474 13.082936718697763 906.8471773589232 40.10154076604961 0.35539478646004985
1.3068195897799648 13.084523094955127 806.9054059575532 41.93338232886775 0.36100143216408537
1.3338557659337165 13.085241385717735 718.7372646420698 43.850853243648075 0.36674981951475694
1.3608640263817513 13.085031392571338 640.7532136320707 45.85869105411158 0.37264797851614023
1.3877932220752391 13.083781719961044 571.8994013421224 47.962202993081135 0.3787057262156828
1.4146498160022325 13.081488499193668 510.9266147265272 50.16611378578478 0.3849285557428596
1.441372202478136 13.078039146176627 456.9742622999823 52.475701449706364 0.39132374485809485
1.4679663722744398 13.073445478666807 409.08910649919704 54.89735094812787 0.3979028279958709
1.4943748270620474 13.067582825878583 366.6036972759189 57.43725004046958 0.4046748626434245
1.5205859710824414 13.060441236367083 328.90320580306354 60.102024406478144 0.4116496160850005
1.5465689524239796 13.051958264205911 295.3469903909575 62.898777066618685 0.41883762383983053
1.5722849628127147 13.042080738468558 265.51579869078876 65.83513157642895 0.4262502528704482
1.597708870187273 13.030755197585187 238.96877799775413 68.91927937792019 0.4338997701197084
1.6227960433765838 13.017940325347714 215.2811735761378 72.1600317387242 0.44179941700323844
1.647547984564474 13.003604253382502 194.13954993781653 75.5668767636886 0.4499634905598187
1.6718965711311187 12.987674665182467 175.27096798851062 79.14978313537651 0.45840635091299636
1.6958339990688123 12.970130846188964 158.39595005105042 82.91887117092283 0.46714097864974263
1.7193150645412993 12.950924745414111 143.31050205626667 86.88690695937862 0.47618905736548967
1.742300229754644 12.929991368130572 129.8051889336736 91.06550997924825 0.48556510523057106
1.7647809272727624 12.907347063214257 117.70430137214731 95.46867418442463 0.49529067310920577
1.7867090731064514 12.88291636685727 106.85019614345947 100.11015787147697 0.5053836501596062
1.808047609843323 12.85666906871766 97.104699845987 105.00643388144591 0.5158695433274136
1.8287597110500997 12.82853960655531 88.34873075409348 110.17403701780744 0.5267708809340288
1.848839066044356 12.79858262245975 80.47780095193464 115.63054173548805 0.5381108444899094
1.8682273390714372 12.766679743953697 73.3976404714671 121.39624867623137 0.549919122676857
1.8868984724343132 12.73283839674153 67.02312796272237 127.49252325177706 0.5622253197181815
1.9048225522121223 12.697030513614619 61.27037772964291 133.94185036144083 0.5750589086606381
1.921966232001692 12.659222645122785 56.08713538341608 140.7697892103865 0.5884557684297438
1.9382823087433247 12.619342737783718 51.403581609869356 148.0040678716456 0.602454369971731
1.9537812435602986 12.577506740325953 47.17341570028154 155.6732495143779 0.6170907224508358
1.9683993278724707 12.53358917546863 43.348271505048366 163.81089368336097 0.6324121509368692
1.9821172362922983 12.487598512806661 39.88930329918486 172.45068685589732 0.6484599558090248
1.9949106068319926 12.439531144063048 36.754276279061315 181.63204687590357 0.6652877708221148
2.0067487460427746 12.389380034500189 33.90881748494381 191.3968870474173 0.682949749317187
2.0175989408280155 12.33711715840295 31.334137695452995 201.79122056323453 0.7015050973150707
2.02743920423574 12.282741352414234 28.997655229125332 212.86505242840914 0.7210167184321933
2.036253019570726 12.226286462576882 26.87557636485982 224.67368625005383 0.7415543938294091
2.0440019780790597 12.16770328413764 24.947265346711117 237.2784170578372 0.7631957443043494
2.0506651637626163 12.107009431539877 23.192105904988118 250.7459993870912 0.7860230652901478
2.05624148769893 12.044275103404825 21.597393489074637 265.1494330368495 0.8101242626018406
2.0606919593988833 11.979436990948814 20.145553423495702 280.5706307643414 0.8355996710610876
2.0640030952393373 11.912551027446536 18.82472177227008 297.09905727336815 0.8625554862828212
2.0661695289856916 11.843662039376307 17.621951989727222 314.83512972064153 0.8911124261557268
2.067166927735935 11.772782299516289 16.52667805502937 333.88827747670524 0.9213965466052689
