M[M_sun], R[km], Lambda[1], P_c[MeV/fm^3], rho_c[fm^-3]
0.24162668629717493 15.618656898711224 2160425.4255784233 3.5677272577965504 0.1711233750220791
0.25364464929084246 15.277257776643074 1723142.2088199046 3.784834111441385 0.17388835385641674
0.2660407326403078 14.981262272543937 1383009.7431548187 4.011431979729114 0.17666702963917907
0.278816495450526 14.723499212485363 1116360.689103312 4.247776504082135 0.1794580743036814
0.29197260640866735 14.498387673047045 905851.2995138417 4.494493049779613 0.1822680573812608
0.30550883641024695 14.301164049083011 738647.4087923355 4.751737675166889 0.18509269400797954
0.3194265039982555 14.128084834673361 605059.0154801983 5.020191967331438 0.18793858758351023
0.3337268509820309 13.97592653055065 497650.32174272864 5.3000809038052346 0.19080237911600667
0.3484077144243175 13.84197099809233 410971.65862648457 5.592132098294466 0.19369034484394695
0.3634705900176108 13.723949729914592 340621.60781802767 5.8965141137114 0.1965975713829529
0.3789239319104478 13.619983049897366 283284.0286263346 6.214090537437769 0.19953172896329294
0.39475861829963443 13.52841288573273 236385.48347653868 6.545117347076688 0.2024889702069792
0.4109856322023901 13.447828548328694 197839.53624712647 6.890299870670414 0.20547305561861967
0.4275942564719301 13.377039456858475 166062.55408984574 7.250342004178502 0.20848703601344068
0.4445907533760292 13.31489021555302 139789.41260504274 7.625500765537748 0.2115264265018272
0.4619738232161137 13.260523536852606 117965.50946640449 8.016729113813042 0.21459744971908482
0.47974043991883514 13.213121881690396 99797.79551218088 8.42473038537286 0.2177017243797978
0.4978980437694845 13.171952819465549 84627.06801291477 8.84994292069851 0.22083668139727977
0.5164379982643195 13.13637023970428 71926.97312203042 9.293245130153705 0.22400580019464314
0.5353583623477681 13.105811726094897 61265.2320408961 9.755519651487322 0.22721196624410542
0.5546662131363937 13.079781651080905 52297.495252814704 10.23757626271436 0.23045653078653566
0.5743505632348778 13.05781450862218 44720.95097599909 10.739882260758892 0.2337361403867248
0.5944092073622544 13.039499417160172 38321.20767858782 11.263690198724548 0.23705708097126926
0.614847765344052 13.02448022403182 32895.988518428814 11.809934243110488 0.24042092100213727
0.6356531477476142 13.012433673340805 28286.178440085157 12.37959364928885 0.24382929387861715
0.6568254521108065 13.003014813151824 24366.003482352637 12.973352302690712 0.24728009142977475
0.6783583878401791 12.99598372468056 21022.81534183085 13.592547399535178 0.25077821445746135
0.7002482625995815 12.99105927508938 18168.13088448599 14.238372035667082 0.2543262446657415
0.7224849595570912 12.988002941457724 15725.383340357695 14.912016225375597 0.2579261672991972
0.7450738917218074 12.98663916931096 13630.920874712556 15.614501811542876 0.26157779905814305
0.767995803587113 12.986759025747283 11833.63653150336 16.347110914260885 0.26528319280290213
0.7912425671732417 12.988140999734 10286.456618508462 17.11145243263418 0.26904696325270977
0.8148196026595061 12.99066408571883 8954.230607201713 17.908981842087773 0.2728715438324574
0.8387023707550315 12.994147868741956 7805.620462459293 18.741051464175417 0.2767578975334499
0.8628839450986229 12.998419893186364 6812.384164910897 19.60903216718169 0.2807067395567048
0.887369171971997 13.003371291680146 5953.888516275457 20.51499773611323 0.28472431699373996
0.9121261306966909 13.008852902978107 5209.8256834668955 21.460742862843333 0.2888136443129851
0.937147837769629 13.014748369034702 4563.901126953873 22.44773500595015 0.2929745071792272
0.9624333758913571 13.020968522091223 4003.44401946474 23.478033556753815 0.2972109755931314
0.9879551565790452 13.027343335389908 3515.547360729125 24.554045369358725 0.30152901907963103
1.013699597336244 13.033804323082055 3091.0431758981563 25.677692777525518 0.30593011863584446
1.039665618640334 13.040256244527953 2720.7163859700363 26.850977864513716 0.3104158341881316
1.0658181987208473 13.046590800154547 2397.5421858549116 28.076978833761093 0.3149947559873578
1.092151976556573 13.052718880384498 2115.055562972248 29.357726193939747 0.31966715862597933
1.1186522197636888 13.058550364325194 1867.8282903076315 30.696025848261815 0.32443806821052357
1.1452851888561673 13.064006139904109 1651.5947787047546 32.09522715016965 0.3293151989496627
1.1720500275826093 13.069012520729098 1461.6463253992763 33.55732490216492 0.3342965952140274
1.198907463117616 13.073473566226689 1295.0244205613149 35.0868371718313 0.3393956569383978
1.2258543397389878 13.077338884601419 1148.7040398436293 36.68575644964099 0.34460895519977536
1.2528506889138848 13.080502699474717 1019.8172896083962 38.35916601435634 0.3499511170000316
1.2798952583738905 13.082944105455304 906.4072201036685 40.10934006816132 0.355418914895205
1.3069397564863883 13.084523167543022 806.5396247329511 41.94168697752753 0.36102653837513266
1.333978311923513 13.085238250029782 718.3667133758914 43.85975635274135 0.3667762841593311
1.3609883477180216 13.085033956080313 640.392034031638 45.868173967806975 0.37267555354100995
1.3879206410404235 13.08377066856089 571.6096817379237 47.97230621782256 0.37873448325468884
1.414771170909386 13.081463894567188 510.63314599709196 50.176948112837486 0.38495891472122884
1.4415024199677802 13.078020228951786 456.72216389950665 52.48724967903888 0.3913554519690943
1.4680978499537372 13.07341772059333 408.87830043915 54.90966421681357 0.3979359731006797
1.4945078936230503 13.067551032673839 366.40796868184424 57.45038362788927 0.4047095425501829
1.5207199169110306 13.0604002286396 328.73229887978647 60.11603810520664 0.4116859351193318
1.5467044684493878 13.051908135579378 295.19195230175427 62.9137355903194 0.4188756944719042
1.572420692864611 13.042024890762397 265.372569603391 65.85110500888008 0.4262901964046569
1.5978339364917968 13.030685762812155 238.82348981247853 68.93634366779331 0.43394171745373267
1.6229322302601703 13.017863366390378 215.16295663258106 72.17826924530776 0.441843509464092
1.6476842639959013 13.00351970866343 194.02679936034113 75.58637685939192 0.45000988082537746
1.6720335612725754 12.987583047378651 175.1627329609306 79.17054104236647 0.45845477887251807
1.6959700106046196 12.970022476654476 158.30990308923924 82.94108942715607 0.46719203613785654
1.7194506105021232 12.950806668951023 143.22777385159614 86.91069994527858 0.47624293677218127
1.7424271940554044 12.92983048630106 129.74530748762018 91.09088759821448 0.4856215610916052
1.76491457199104 12.907205586390754 117.63662669686418 95.49588092327849 0.4953503707692207
1.7868409687499551 12.882764059646538 106.78656551976333 100.13921742036757 0.5054463594053992
1.8081782011832015 12.856499392382199 97.05037203673584 105.0374969374217 0.515935505791889
1.828891063354043 12.828369889861968 88.29742315680002 110.20726795538144 0.5268403579848087
1.8489650765003214 12.798382699091688 80.43648170157523 115.66625577436491 0.5381846173702617
1.8683405078435324 12.766437857229114 73.36149094168925 121.43451079864657 0.5499970103365908
1.8870175819108923 12.732611782956308 66.98293946373964 127.53347305753788 0.5623073878831218
1.9049389851443577 12.696786589224033 61.23360058533734 133.9857225767775 0.5751455260359146
1.9220784232626305 12.658962337364713 56.05338534032246 140.81691135445368 0.5885475802860324
1.9383901363368996 12.619065610419664 51.373290468410175 148.0547221520515 0.6025518060002993
1.9538863831153064 12.577213486950065 47.1474937050754 155.72757903587197 0.6171936823325289
1.968499234325954 12.533273888536783 43.32592049797432 163.8692277006965 0.6325211193660414
1.9822110882054993 12.487266651451998 39.86491122878683 172.5135625179535 0.6485760488443288
1.99499633771262 12.439179136163531 36.73192310254804 181.69969212415867 0.6654109875797659
2.006831271123519 12.389010129849012 33.89126068724231 191.46974118867115 0.6830807200806731
2.0176751733958134 12.336726739934589 31.316759725992647 201.86976820588433 0.7016445116326882
2.0275088030964246 12.282334985270552 28.980431094156437 212.94963064006126 0.7211646829533249
2.03631477468663 12.225856169833005 26.859839992831642 224.76507793212107 0.7417123665275898
2.044055646199427 12.167253708949561 24.933674476025264 237.37706747373352 0.7633639523256343
2.0507124262845773 12.10653575244949 23.179380899756218 250.85262130816278 0.7862024693720359
2.0562822307965813 12.043777709876263 21.587011860432316 265.2650367380024 0.8103166338769924
2.060724941914127 11.978918907195657 20.13586493837889 280.695655677401 0.835804741017799
2.064025495683714 11.912015266884131 18.815176589738986 297.23470045212275 0.8627752525370996
2.0661818966060577 11.843102644611509 17.612505153096993 314.98248046208056 0.8913483057111105
2.0671708404615936 11.772201223182963 16.518314588284028 334.04830769878305 0.9216493015579169
