M[M_sun], R[km], Lambda[1], P_c[MeV/fm^3], rho_c[fm^-3]
0.24162668629717493 15.618656898711224 2160425.4255784233 3.5677272577965504 0.1711233750220791
0.25364441240548447 15.277262586765758 1723204.2729093707 3.784826357331315 0.17388825720517542
0.26604065248801884 14.981243810738448 1382945.4581021236 4.011415678959171 0.17666683265399438
0.27881600168717197 14.723489147278428 1116488.504778094 4.247751105086465 0.1794577797136071
0.29197172543024874 14.498351733708823 888660.0990200016 4.494457885980917 0.18226766582420123
0.30550640636225235 14.301209069763981 738606.5158248558 4.7516915524896195 0.18509219579503855
0.31942358897950907 14.128112610225301 605084.9209211925 5.020134545932427 0.18793799181433288
0.33372324603872483 13.975913026915022 497668.4226836393 5.300010671818643 0.19080167199643763
0.3484035454566606 13.842006178734003 410993.56006964395 5.592048880274229 0.19368953968670866
0.36346685861847083 13.723959392973253 340627.490692664 5.8964160399112675 0.1965966502530674
0.378919961023704 13.619993924454123 283296.72278389614 6.213976420893694 0.19953068835781623
0.39475168530269633 13.528465764889507 236395.1823432862 6.544987306177107 0.20248782992396652
0.4109786567254184 13.447873371868022 197859.56682814367 6.890151394806252 0.205471791135855
0.4275860471546562 13.377061860769436 166076.35883585547 7.250173699914911 0.20848564367540068
0.4445831166373214 13.314903160651614 139796.40730965973 7.625313097963817 0.21152493254726887
0.4619646854347178 13.260569798733359 117976.65828854716 8.016518809327216 0.21459582284386308
0.4797296080193171 13.213138889970189 99802.62798118738 8.424495803867876 0.21769996065481922
0.4978874206706629 13.171971836735867 84637.95524613584 8.849684927041523 0.22083481341297098
0.5164261348194381 13.136393660693805 71934.16969467887 9.292959548901663 0.22400378968482484
0.5353453526749928 13.10583277413434 61277.44148782408 9.755204546104657 0.22720980886586067
0.5546528467344903 13.079813912760786 52301.71963109285 10.237229578983634 0.2304542220081308
0.5743356548217429 13.057844106714183 44726.446316862566 10.739505504984416 0.23373372149794833
0.5943929595740466 13.039517120556269 37989.904661589986 11.263277704613644 0.23705450370059972
0.6148303617492142 13.024516892852208 32899.41284927278 11.809483573562652 0.24041818017936087
0.6356354686643618 13.012444577046633 28290.650406500878 12.379102215147036 0.2438263840605976
0.6568066726988987 13.003009328427071 24368.88672618252 12.972822360716808 0.24727706249876483
0.6783391106852387 12.995972715635697 21026.12961808125 13.591971423826104 0.2507750075790264
0.7002282120157916 12.991050885995591 18171.276986487694 14.237746937569353 0.2543228534780534
0.7224581962861727 12.988022115338145 15727.9286592416 14.911338717768825 0.2579225850610917
0.7450513278943485 12.986653027448886 13632.841998763384 15.613775007010569 0.2615740841154824
0.767971606563313 12.986757514174444 11835.265838075733 16.34632496950553 0.26527927506541843
0.7912173721079233 12.988134720817262 10287.91548529885 17.110603402684095 0.2690428347075682
0.8147928295150891 12.990669496349083 8955.577152679074 17.908065520404623 0.272867195951591
0.8386759725989792 12.99413002182483 7806.81985122902 18.740071915189926 0.27675339701269386
0.8628557481193229 12.998411289920057 6813.516733263305 19.607976653217996 0.28070200413122753
0.8873383595955516 13.003371203386317 5954.970117698298 20.513861176382306 0.2847193364127727
0.9120945803204313 13.0088583628787 5210.700539052293 21.45951982860947 0.2888084076345705
0.9371155776505241 13.014736732985712 4564.689362894314 22.446430592218555 0.2929690893872067
0.9623995706500811 13.020948815207534 4004.153094716543 23.476631392486542 0.29720528098741844
0.9879209700824519 13.027342642089083 3516.273011802152 24.55253885387591 0.3015230344087943
1.0136634832705897 13.033791012006883 3091.755952501488 25.676087742729674 0.30592392449745504
1.0396277051490035 13.040252474461306 2721.12726705823 26.84925468656497 0.31040932433213314
1.0657797590376679 13.046578032316848 2397.9175469007214 28.075129445510118 0.31498791429604184
1.0921126314811687 13.052702322265619 2115.606073813995 29.355757150429486 0.3196600712783413
1.1186111080523464 13.058544499120943 1868.3783170446184 30.69391363866816 0.32443061725431416
1.1452416235062453 13.063996209864582 1651.9292326992863 32.09297866884825 0.3293074733893088
1.1720045686441145 13.069010906650611 1461.8566391337863 33.55491377189599 0.3342884694564231
1.1988620555796043 13.073467149053881 1295.287998411408 35.084252011171856 0.33938710851293563
1.2258085008477155 13.077334471975405 1148.9171570044316 36.683004761169315 0.34460007867871795
1.2528047262558735 13.080494981645344 1020.0453606391983 38.35623662981253 0.34994189264893316
1.2798487343454419 13.082935006177708 906.605941336217 40.10619968828266 0.35540919960899353
1.3068918644544094 13.084527528162763 806.6272275405363 41.93834311468947 0.36101642937118017
1.3339262222194137 13.085244937412355 718.4649287583048 43.85617151238258 0.366765628159842
1.3609380686881811 13.085034818332204 640.5367361781949 45.86435566209151 0.372664450426667
1.3878694794450526 13.0837713272592 571.7401248155272 47.96823813579057 0.3787229041800203
1.4147263634582083 13.081479775781926 510.76423008551507 50.17258564129868 0.3849466905952228
1.4414502473062387 13.078027770164832 456.81871583792844 52.48259974401808 0.3913426849897073
1.468044436179242 13.073429678084437 408.95201150553953 54.90470622647512 0.3979226270823637
1.4944540087574267 13.067561806477888 366.4771964235893 57.44509532231171 0.40469557850985793
1.5206664493563062 13.060414137121487 328.797871619052 60.11039540702233 0.4116713110466264
1.54665005809329 13.05192949625546 295.257374318968 62.90771244044952 0.4188603650766237
1.572366332457326 13.04204659886811 265.4322841608827 65.84467318570525 0.42627411283903666
1.597790508836379 13.030717529128987 238.88935225871467 68.92947258789718 0.43392482700674345
1.622877234351849 13.017894368690905 215.20411102650698 72.17092574370456 0.44182575522474554
1.6476291087445445 13.003553618451251 194.07279292436962 75.57852494688565 0.44999120131160214
1.6719792446951955 12.987618815274132 175.20616863960782 79.16218264327307 0.45843527882305946
1.695915965758535 12.970066476512498 158.3482430594364 82.93214298128915 0.46717147723131064
1.7193957757952356 12.950854717496878 143.2581566103553 86.9011193925505 0.4762212415339738
1.7423785428456071 12.929916455814103 129.76310946938239 91.08066895102267 0.48559882836295226
1.764860586386545 12.907268965238078 117.66627236320562 95.4849257279378 0.495326332624467
1.7867871557170885 12.882826973726834 106.81101124866954 100.12751613745098 0.5054211085445109
1.8081254281887589 12.856568160265788 97.07329170883351 105.0249888819848 0.5159089449099508
1.8288350784336258 12.828430866246327 88.31759764942792 110.19388693437767 0.5268123818293453
1.84891500263014 12.79846360852995 80.45462859518246 115.65187484837708 0.5381549113396469
1.868291124978767 12.766524026968916 73.37583842153188 121.41910379987686 0.5499656473331308
1.8869697722774876 12.732701654198937 66.99937580822933 127.51701205773985 0.5622744424953052
1.9048929192765591 12.69688385164925 61.25046675414845 133.96805647477916 0.575110647665294
1.9220338004791242 12.659066837051295 56.067560202697294 140.79793654460457 0.5885106101406908
1.9383461455610833 12.619177797134519 51.383452843026 148.03432498747284 0.6025125710394101
1.95384308454951 12.57733081043582 47.15505016602713 155.7057018885049 0.617152222948335
1.9684584919564252 12.533399898542818 43.33195559042624 163.84573797703266 0.6324772403670241
1.9821733083482258 12.487398647916809 39.87417856551755 172.48824390083445 0.6485293007860989
1.9949626731001242 12.439321634356663 36.74019583390943 181.6724528200939 0.6653613708097176
2.006798499237277 12.389159704386 33.898008400096245 191.44040428272595 0.6830279807730121
2.0176450289331695 12.336883377954136 31.324163405342155 201.83813853856105 0.7015883720931987
2.0274801772656885 12.282498202872658 28.988525472102953 212.91557247064108 0.7211051002235599
2.036290138323038 12.226030808591275 26.86650950855327 224.72827596900743 0.7416487534582173
2.044034830978317 12.167433328225313 24.938638182777208 237.33734240222853 0.763296217429511
2.050693264208391 12.10672585386569 23.1847124245807 250.8096860790994 0.7861302257351425
2.056265647048214 12.04397860644233 21.591402408903278 265.2184844850473 0.8102391682234463
2.060711815870216 11.979127215161775 20.139552124066235 280.64530943522317 0.8357221614626421
2.0640159447534963 11.91223121419234 18.818340993623305 297.1800781292567 0.8626867545867679
2.06617681545904 11.843328315742347 17.616010013359524 314.9231433636582 0.8912533186872452
2.067167047615806 11.772435756752778 16.520803514249824 333.9838644040498 0.9215475185215798
