M[M_sun], R[km], Lambda[1], P_c[MeV/fm^3], rho_c[fm^-3]
0.24162668629717493 15.618656898711224 2160425.4255784233 3.5677272577965504 0.1711233750220791
0.2536448175794846 15.277240729785632 1723152.8845182694 3.784835630372268 0.17388837278915745
0.2660409918351161 14.981244000419188 1382978.4864450363 4.01143517284678 0.17666706822612163
0.278817186270742 14.723489193988334 1116470.1050054005 4.247781479437196 0.17945813201030242
0.2919729083221098 14.498367011820095 905830.2743857095 4.494499937952362 0.18226813408266304
0.3055093267290913 14.301177049938804 738614.2303164406 4.751746710069468 0.18509279160217074
0.31942809844534864 14.128049126809218 605046.1110162715 5.020203215541434 0.18793870428803036
0.33372751904903636 13.97591494562556 497638.72599331086 5.300094661488347 0.1908025176330475
0.3484084567009476 13.841921280258855 410958.30386875314 5.592148399825069 0.1936905025657399
0.3634729588964037 13.72391208200442 340630.8067038071 5.8965333253626495 0.19659775182284706
0.37892643920198926 13.619950104023182 279362.3486433801 6.2141128917330395 0.1995319328075495
0.3947606894889525 13.528418934230361 236376.74828146157 6.545142820831209 0.202489193577393
0.41098696463203765 13.447811225338093 197844.6646589502 6.890328955700929 0.20547330331894462
0.42759621212221627 13.377009575408515 166059.3800396825 7.250374973457074 0.20848730875983298
0.44459242390820347 13.314877740665224 139781.51963466656 7.625537527963501 0.21152671915437438
0.4619758272739283 13.260517445322671 117963.55396276966 8.016770310672502 0.21459776841009895
0.4797423630329745 13.213105418546101 99795.63350913228 8.424776337962596 0.21770206987903207
0.4978999979316834 13.1719501326586 84628.63602032248 8.84999345960296 0.2208370473205416
0.5164405293527913 13.13636198091537 71928.19069046747 9.293301073331156 0.22400619403810004
0.535360616142267 13.105809179289055 61263.5256970232 9.755581378306458 0.2272123888585831
0.5546686058787401 13.079799133709509 52295.01842638876 10.23764417559854 0.2304569830598514
0.5743534069214726 13.057812605547474 44721.13404661575 10.739956064636205 0.23373661423047873
0.5944130511449537 13.039489034718306 38321.489089638555 11.263771003614915 0.23705758584168654
0.6148509936385891 13.024477699385862 32894.0719580113 11.810022526446831 0.24042145791211972
0.6356570014239477 13.012430252630596 28285.212666581167 12.379689918293195 0.24382986389453531
0.65682895828341 13.003002116300134 24365.3947519303 12.973456115275486 0.24728068477993895
0.6783623486143682 12.995968510587321 21023.047709655424 13.592660230027048 0.250778842667411
0.7002525982555776 12.991046317483132 18168.12015961482 14.23849448914345 0.25432690898182714
0.7224895785533629 12.987990014695521 15724.98282787865 14.912148945795373 0.2579268690420859
0.7450784326497533 12.986639042375066 13630.58291826746 15.614644189159504 0.2615785267980764
0.7680007932562389 12.986765176424575 11833.045920704886 16.347264877394373 0.26528396027050727
0.7912477112890256 12.988148748157407 10218.27072580436 17.11161875412269 0.26904777201778723
0.8148232672139806 12.990678846381051 8953.775461931125 17.909161346012898 0.27287239556574694
0.8387089307861613 12.994135842746914 7805.468943860501 18.741243354316897 0.2767587791693634
0.862890393041075 12.99841201800845 6812.150992529667 19.60923893889386 0.2807076672109732
0.8873736130647942 13.003375900701649 5953.687807442499 20.51522038475272 0.2847252926746004
0.9121275799572583 13.00887097364214 5209.357808380586 21.46098245193371 0.28881467016408824
0.9371542188963345 13.014747419144118 4563.865055063131 22.44799053737085 0.29297556851127127
0.9624399748573589 13.020965883240832 4003.2882022308513 23.478308237673954 0.29721209115396374
0.9879615941063552 13.027351447429949 3515.400109450192 24.554340492899815 0.30153019146535803
1.013706963825898 13.033807655877705 3090.8925297291717 25.678007201198454 0.3059313320573529
1.0396724900377035 13.040262472698478 2706.338729807242 26.851315432752564 0.3104171094601523
1.065826551673141 13.046589463300668 2397.449749725199 28.077341126988117 0.31499609626754177
1.0921595950469674 13.052717460092685 2114.957663167631 29.358111927990198 0.31966854703171904
1.11865974803809 13.058553023411584 1867.7640641888431 30.69643962908475 0.3244395278491888
1.1452931376570443 13.064007662867926 1651.5550557528147 32.09566762712034 0.32931671238508003
1.172057189714492 13.069015689489646 1461.5098182488398 33.557797242764096 0.3342981870505469
1.1989155731236916 13.073473575361316 1294.972258658395 35.08734360582061 0.33939733157830587
1.2258621511494814 13.077342353244639 1148.64204447697 36.686295507209735 0.34461069411604783
1.2528600417468683 13.080498077703064 1019.8420122234822 38.35973988347461 0.3499529240588702
1.2799042670591767 13.08294524625719 906.3711480561767 40.10995527249671 0.3554208181318922
1.3069495817562586 13.084522816129311 806.4973159381393 41.942342045338464 0.3610285187443674
1.3339886958402696 13.085239671876904 718.3395670918746 43.86045862963236 0.3667783716894421
1.3609969469921934 13.085033479167567 640.3790803551742 45.86892198207028 0.37267772866487764
1.3879306438523866 13.083766738952537 571.600504296962 47.973103164967384 0.3787367516235231
1.4147808798200106 13.081460773636891 510.62824624981323 50.17780273315127 0.3849613094615292
1.4415131667165577 13.078018094399283 456.71655066347114 52.488160615633376 0.39135795305968435
1.4681083929615402 13.073419439279718 408.85831155589864 54.91063550390016 0.3979385876308346
1.494518938106665 13.06754563715464 366.3837122838584 57.451419626489795 0.40471227815727334
1.5207308799429753 13.060397303557535 328.7196137651273 60.117143532416534 0.411688800033839
1.5467150061890043 13.051903539271898 295.17406686580983 62.914915551491745 0.4188786975668989
1.572431424004763 13.042019741732975 265.356994921415 65.85236503305532 0.4262933472502188
1.5978454437934981 13.030680390684694 238.81822268734823 68.9376897467382 0.43394502637684307
1.6229428852231267 13.017858531528203 215.15329411530573 72.17970787657663 0.44184698761460645
1.6476958395976409 13.003513522176949 194.02056099454535 75.58791509386579 0.45001354024873724
1.6720419358619758 12.987577510809688 175.15661228756147 79.1721785029862 0.4584585990494101
1.6959806110781732 12.970014461887182 158.2996185471979 82.94284209300834 0.46719606375888045
1.7194612647901362 12.950797477659416 143.22134658400748 86.91257684037326 0.4762471870161208
1.742442934713157 12.929853897476423 129.7220986296855 91.0928895037292 0.4856260145945005
1.7649250230362592 12.907193144695375 117.63220361142419 95.49802712820589 0.49535508002205575
1.786850956638199 12.882754012845131 106.78184989107146 100.14150979359066 0.5054513062473628
1.8081881549834171 12.85648682846669 97.0481091214675 105.03994736829495 0.5159407092869845
1.8289018290588013 12.828355425959113 88.29575876681054 110.20988941244349 0.5268458387541975
1.8489744774182193 12.798367284016082 80.43090809275583 115.66907312782313 0.5381904370503124
1.8683500746596187 12.766420905853776 73.356047214553 121.4375291752439 0.5500031546452313
1.8870251620275136 12.732595157475872 66.97935284682052 127.53669792884989 0.5623138422077277
1.9049477206465097 12.696768510781611 61.23104557073137 133.98918354702747 0.5751523590658097
1.9220868065673886 12.658942015228789 56.04980947738042 140.8206287223941 0.5885548231324239
1.9383989572788198 12.61904330623431 51.37164948923417 148.0587181838246 0.6025594925662299
1.9538925652039103 12.577189780435665 47.14481810692202 155.73186502200778 0.6172018047052896
1.968506579944077 12.533248178916018 43.32249730841316 163.87382961950289 0.6325297157886163
1.9822188454780991 12.48724035408055 39.863097330318816 172.51852275172604 0.6485852073736491
1.995004095676753 12.43914917656382 36.73086278299589 181.70502865742904 0.6654207081491131
2.0068374708648125 12.388981393255046 33.88883173312015 191.47548868380719 0.68309105242161
2.0176806071144853 12.336696045623267 31.31454719471047 201.87596490000703 0.7016555101535025
2.0275146743705634 12.282303396397175 28.979515992970747 212.9563031282388 0.7211763560721893
2.036319872695023 12.225822485304878 26.85887199144967 224.77228798941326 0.7417248292832664
2.0440596447370925 12.167218107532618 24.93245954461464 237.3848502328368 0.7633772226448419
2.05071523599343 12.106498616548953 23.17855980225536 250.8610330106771 0.78621662306343
2.0562847326910623 12.043739495822216 21.585622911441344 265.2741517362623 0.8103317932089359
2.0607259450447803 11.978879138680718 20.134057052352166 280.7055193756048 0.8358209197786088
2.064027484226944 11.91197274958372 18.81386240339188 297.24540194227706 0.8627925908686546
2.0661837832778858 11.843057990917215 17.61191273506342 314.9941056993844 0.8913669154295257
2.0671700241138287 11.77215568044899 16.517093564635154 334.06093337554796 0.9216692428058351
