M[M_sun], R[km], Lambda[1], P_c[MeV/fm^3], rho_c[fm^-3]
0.24162668629717493 15.618656898711224 2160425.4255784233 3.5677272577965504 0.1711233750220791
0.25364225494343756 15.2773330585179 1723158.622079823 3.784807021030982 0.17388801618751992
0.2660377668018445 14.98133554746883 1382947.7827026232 4.01137503019615 0.1766663414376825
0.2788119916313488 14.723604286857144 1116517.302737236 4.247687768649252 0.17945704510638139
0.2919663109011712 14.498472600501557 888793.1604239112 4.494370199872728 0.18226668941903568
0.30550088566393424 14.301269566735654 738678.0514833299 4.7515765393620075 0.1850909534337545
0.31941577580747904 14.12821684553137 605147.060982348 5.019991358571788 0.187936506190201
0.33371386650569446 13.975984701221952 497718.1026855204 5.2998355405008954 0.19079990871466332
0.34839295456232566 13.842092192227073 411044.3645494982 5.591841367742685 0.19368753194588123
0.3634548295997811 13.724047357934674 340689.05646607484 5.896171484122493 0.19659435333334574
0.37890595831344914 13.620079088562202 283343.1298640586 6.21369186239276 0.19952809352691847
0.394737794795848 13.528536366196443 236439.73770844965 6.544663040411393 0.20248498655126282
0.4109619747464398 13.447941371275874 197897.02180907378 6.889781161874807 0.2054686380768486
0.4275687663465327 13.377101613468229 166102.1193011787 7.249754025626853 0.20848217181756887
0.4445620994327818 13.315000877361436 139822.5443450502 7.624845142257586 0.21152120731895274
0.4619421057430594 13.2606119865805 117999.64694757157 8.015994409987313 0.21459176619101025
0.47970499572030195 13.213223043221015 99831.02472142973 8.423910871749126 0.21769556278300634
0.49786028943482824 13.172028431643284 84661.24940591653 8.849041618880651 0.22083015558702182
0.5163964474366508 13.136441772786592 71950.53081532607 9.292247454040425 0.22399877649260777
0.5353133913458157 13.105897769085976 61290.166928561695 9.7544188364089 0.22720442948138317
0.5546185097973308 13.079836955545565 52309.95378194069 10.236365132943913 0.23044846513472775
0.5742991112463032 13.057868598871549 44738.868586685094 10.738566078616993 0.2337276900896716
0.5943540153204967 13.039548005229324 38335.46076728896 11.262249170419423 0.23704807740034156
0.6147894243645602 13.024521639132521 32909.80057774646 11.808359855526607 0.2404113460988196
0.6355897827550002 13.012440024566871 28300.431604173642 12.377876858190207 0.2438191286311311
0.6567597484588922 13.003035508479819 24376.198955651613 12.971500991867405 0.24726951009627446
0.6782894120116095 12.99599041327148 21033.364395181503 13.590535279525273 0.25076701151232544
0.7001759200272885 12.991067731875315 18040.940864599273 14.236188317541897 0.25431439788833593
0.7224075981041207 12.988006029141031 15734.189167210623 14.909649426986224 0.25791365314394116
0.7449931488311323 12.986646874385135 13637.98364370421 15.611962806107494 0.26156482134654624
0.7679117984594586 12.98675611556025 11838.911088917444 16.34436531776702 0.2652695066929996
0.7911546873936545 12.988135168316498 10223.194662936054 17.108486465150417 0.26903254075719707
0.8147265382866197 12.990655765722327 8958.955836929475 17.90578081007547 0.27285635516444373
0.8386068873131987 12.994120190413993 7810.011399282949 18.737629565597253 0.27674217568002113
0.86278413721381 12.998392777267828 6816.574037712895 19.60534490830878 0.2806901971515745
0.8872578922444281 13.00334184453334 5957.058394761168 20.511027369813206 0.2847069182329982
0.9120159029520204 13.00882871632773 5212.782857112111 21.456470426683616 0.2887953509785911
0.9370320806201837 13.014724276549332 4566.594808324411 22.443178297508936 0.29295558120655874
0.9623098040891025 13.020923919540866 4006.0943145455085 23.473135391670194 0.2971910826893402
0.9878338362790003 13.027315671444367 3517.803058697693 24.548782691881776 0.3015081129603254
1.0135732626096876 13.033776878344954 3093.172704031008 25.6720859589815 0.30590848084327077
1.0395340445005463 13.04023312234727 2722.396865253554 26.84495835935495 0.3103930935815714
1.06568367808168 13.046554894107276 2399.2035997386683 28.07051846427398 0.31497085627144106
1.0920119242461255 13.052683631441438 2116.459138243057 29.35084785706658 0.3196424008365563
1.1185089309500418 13.058520933414727 1869.2622922055423 30.68864742244988 0.32441204033536186
1.1451372473850336 13.063986082124574 1652.7654083596703 32.08737271732973 0.32928821189205526
1.1718979446082711 13.06899036450487 1462.6752309645294 33.54890232949139 0.33426821027571396
1.1987518887445756 13.073450089002476 1295.9035341380993 35.07780670592296 0.3393657956358037
1.2256948059279549 13.07732440693301 1149.4986053685673 36.67614429649878 0.3445779478816679
1.2526892659786484 13.08048650826697 1020.5694025875018 38.34890347461796 0.34991872056466483
1.279728507432638 13.08292805867304 907.0673486195302 40.0983702139299 0.3553849778310045
1.306771236141981 13.084519034124197 807.08328713161 41.9300063582759 0.3609912260935289
1.3338069669647237 13.08523520127355 718.8451180183195 43.84723400778867 0.36673906127405187
1.3608136725229132 13.08503754786118 640.8703152770403 45.854836135917466 0.37263676893768277
1.387743326285277 13.08378302613248 572.0332876287125 47.95809592856297 0.37869403618427483
1.414597105225042 13.081493800077114 511.01933866278466 50.16170954401158 0.38491621457205366
1.4413198730491779 13.078046672314418 457.07490762163997 52.471007021714335 0.39131085571767893
1.4679125669269388 13.07345532154506 409.19304052221656 54.89234554949816 0.397889354362961
1.4943209535183541 13.067592813967691 366.69194681313263 57.43191120331552 0.40466076517189714
1.520531401721415 13.06045748687919 328.9737585322231 60.09632782873005 0.4116348523736626
1.5465139550376423 13.051976031992249 295.41533105648165 62.89269644626983 0.41882214817761193
1.5722325750716788 13.042099584785205 265.5834531953959 65.82863842907066 0.4262340159561581
1.5976530301088867 13.030782031068105 239.01844137903566 68.91234283568491 0.4338827187535935
1.622733782302437 13.017944115305571 215.33133622942574 72.15261832853088 0.44178149374726905
1.6474927742502392 13.003638846721845 194.1852737709037 75.5589501624163 0.449944633363239
1.671840780388518 12.987712298914321 175.30838755543428 79.14134528404487 0.45838666550237495
1.695778789396457 12.970173191844214 158.43406503161034 82.90983975456626 0.467120224481259
1.7192434349415355 12.950937524967614 143.34754296482097 86.87723549211593 0.4761671562505921
1.7422465780102356 12.93004492648095 129.83726466300038 91.05519443519935 0.48554215694207753
1.7647271356109206 12.907405745336806 117.73296603171833 95.45761520242458 0.495266407233347
1.786652319062396 12.882983148336567 106.86529845801726 100.09834582253208 0.5053581602704343
1.8079947422791727 12.856737049520223 97.12734795718536 104.99380752111176 0.5158427312247782
1.828707001402072 12.828615285609983 88.37115665526149 110.16052954362092 0.5267426403985978
1.848788625904009 12.798661122225294 80.5025139357365 115.61602504454284 0.5380808580157416
1.8681770992917563 12.766767796383657 73.41466598130715 121.38069635871601 0.5498874638576843
1.886850162349501 12.732930654504168 67.03873354661961 127.47584800184227 0.5621918526246165
1.9047751974260083 12.69712884901981 61.285783113045156 133.92401793284088 0.5750237019096619
1.9219207897754866 12.659328929379102 56.10005169036339 140.75063593306723 0.5884184505619026
1.9382379439331479 12.619454026040152 51.415304557103305 147.98347906208178 0.6024147663721778
1.9537492543528363 12.577663026021584 47.184168611785715 155.65116701486954 0.6170488739037783
1.968358997836082 12.533716938107245 43.35535766977515 163.78718369238962 0.6323678604766909
1.982080239810573 12.487733768567297 39.89777632585706 172.42513109578493 0.6484127698921863
1.9948749709015026 12.439674064143878 36.76164126607016 181.6045527156573 0.6652376898279981
2.0067088632978156 12.389515827254424 33.9189866020386 191.36727596907082 0.6828965171265121
2.0175693748014965 12.337275693952323 31.34378105673398 201.75929564226956 0.7014484337294917
2.0274111052087704 12.282908753327224 29.00519943625564 212.83067669051047 0.7209565801353746
2.036227858230464 12.226460804966203 26.88162990262873 224.63654156825996 0.741490188362639
2.0439790274084615 12.167886363491045 24.952733193638075 237.23832249589745 0.763127379393093
2.0506466664937015 12.107202397488749 23.19872638207896 250.7025815769521 0.7859498778556476
2.056219956125982 12.044453479778436 21.602472245860135 265.10244895339656 0.8100460783572572
2.0606814109297438 11.979647955951997 20.150971841444857 280.5198180997531 0.8355163264646187
2.0640011955645883 11.912783173393974 18.829273042816695 297.043929640115 0.8624661696391203
2.066163953406369 11.843889174267716 17.626065015132593 314.7752445161286 0.8910165617218149
2.0671657422927003 11.773018215154712 16.530390906449217 333.8232397874226 0.9212938247702209
