M[M_sun], R[km], Lambda[1], P_c[MeV/fm^3], rho_c[fm^-3]
0.24162668629717493 15.618656898711224 2160425.4255784233 3.5677272577965504 0.1711233750220791
0.2536363214812679 15.277483418878608 1723484.6817974057 3.784679706302773 0.17388642927085146
0.2660239406723688 14.981610364825329 1383402.9843014 4.01110739658107 0.17666310724339082
0.2787906269968551 14.723974518756835 1116821.6785426391 4.2472707692540235 0.17945220854180144
0.29193576356414 14.498937534294768 906430.6795809123 4.493792900145108 0.18226026105258433
0.3054615220078632 14.301784418592359 739109.9132256052 4.750819346386757 0.18508277430449727
0.31936736859597686 14.128764936496616 605490.3744736295 5.019048702927368 0.18792672577405847
0.333654706078315 13.97658576450612 498118.2939846435 5.298682615397289 0.1907883006719187
0.3483248230957953 13.84261958123626 411389.52704102057 5.590475303097887 0.1936743148946514
0.36337596905077424 13.724618640779486 341011.2349702078 5.894561602229236 0.19657923298191693
0.3788168169673646 13.620622492455361 283645.2924288132 6.211818693835951 0.19951101248512212
0.3946355513766204 13.52908053828172 236710.16975558386 6.542528538462653 0.20246626985274324
0.4108484463113502 13.448466796412283 198137.15352725977 6.887344137130375 0.20544788335146727
0.42744330212042086 13.377586722917611 166323.35691046872 7.246991624408558 0.2084593191802327
0.4444241709421039 13.315439374484498 140015.23134497367 7.62176500732667 0.2114966874643824
0.46179017013228885 13.261048490502871 118170.13963706991 8.012542839035458 0.2145650654992224
0.47953947330696134 13.213610068600106 99990.003653363 8.42006096810585 0.21766661688967548
0.4976800903162647 13.172408521769576 84788.62458705466 8.844807584112214 0.22079949936623447
0.5162006024974833 13.13677675217217 72079.55868909738 9.28756079812872 0.22396578214281043
0.5351039843206158 13.106186193972965 61398.73960165577 9.74924780446806 0.22716902585952947
0.5543938544845921 13.08012297535482 52404.69713794328 10.230676041499505 0.23041057800502976
0.5740587186633556 13.058092272340536 44824.14930754794 10.73238364993361 0.23368799698244755
0.5941009501377046 13.039767348245336 38076.336503567356 11.255480472802025 0.23700578645513967
0.6145160401211635 13.024700676628377 32693.290613607947 11.800964930922499 0.24036637261906732
0.6352990521762313 13.01259630219935 28357.325021943172 12.36981325686468 0.24377138344933946
0.6564484444748113 13.003135242480104 24428.93386026308 12.962805741288951 0.2472198116096233
0.6779652582131963 12.996085641197274 21080.98753255513 13.581084966584905 0.2507143947017638
0.6998330159973171 12.99112541293064 18217.820740290583 14.225932307716485 0.25425875853448837
0.7220418382103979 12.98805834590076 15769.740110219005 14.898533833911157 0.25785488081329877
0.7446132749219201 12.98665440501242 13670.172115910671 15.600038686102872 0.26150387315466395
0.7675131685734992 12.986738092858424 11868.330228441715 16.331471279863845 0.2652052331479886
0.7907367171715391 12.98809739688103 10317.611084553959 17.094557844575267 0.2689648105919668
0.8142880275664621 12.990605738179687 8982.234256121472 17.89074865684581 0.2727850286722195
0.8381494086215844 12.994056855017188 7830.595603988799 18.721560534502473 0.2766683467964806
0.8623093058227929 12.998302716162154 6834.6834122081 19.588030183746564 0.2806125169022892
0.8867615942401212 13.003227119824764 5973.434709081137 20.49238367961491 0.2846252186917994
0.9115000683428381 13.008710856005516 5227.241292675664 21.43640879905993 0.2887094528986928
0.936498154085064 13.014593543651836 4580.054333077201 22.421782270854717 0.29286671429288735
0.9617520469081742 13.020791698915358 4017.0898958812436 23.450136628651823 0.2970976778791243
0.987256861795858 13.027170836756065 3527.9793257748543 24.52407302426756 0.3014099531811241
1.0129779778877257 13.033637529958458 3102.241021709635 25.645760993160255 0.30580688773026443
1.0389187357587328 13.040081931243265 2730.606739997152 26.816696479941243 0.3102863252902502
1.0650523805423235 13.046413598530739 2406.269951921216 28.040187484893053 0.3148586487897903
1.0913568700428833 13.0525376417303 2122.9479554513123 29.31855522324792 0.31952616718258736
1.1178352528209599 13.05837963406203 1875.1067634192527 30.654007862456975 0.32428984704289937
1.1444505023532903 13.0638488151089 1657.8672458761496 32.05029871357275 0.3291602209031648
1.1711879234119602 13.068867851997892 1467.3274583713503 33.50936270242892 0.3341349576558073
1.1980228085737625 13.07333173428442 1300.2353126640728 35.03541448155553 0.33922561604237866
1.2249512142888794 13.077223879434953 1153.2803075796028 36.63102242180391 0.34443239169861833
1.2519319681400993 13.080416885226946 1023.9418856850673 38.30053319686854 0.3497654941285739
1.2789507362295005 13.08286880490773 910.1282199692913 40.04687754648691 0.35522567672052463
1.3059767331172043 13.084479663321973 809.8044264601364 41.875178616026325 0.3608254735223419
1.3329967180432178 13.085226186118435 721.3581905351328 43.78845697916131 0.36656434554773054
1.3599892369679494 13.085058116284898 643.1702045808923 45.79223289464795 0.3724547272160786
1.3869076027330085 13.08384683288106 574.0383075145415 47.8913992936678 0.378504196031221
1.4137404154266278 13.08156591397409 512.861962671936 50.090188790989714 0.38471580554033646
1.4404673240254011 13.078196584069675 458.69902598558673 52.39477560421156 0.3911015528066602
1.4670374358662432 13.07361699173137 410.6744146953262 54.81106620828989 0.3976705649941991
1.4934431533153008 13.067811121335176 368.0328323357708 57.34521937474969 0.4044318509814855
1.5196450325592292 13.060726637801531 330.1978613816388 60.003829201485466 0.41139512545476853
1.5456208245809668 13.052292570809989 296.5142609259122 62.7939642744636 0.41857086695080936
1.5713315000200287 13.04247507541053 266.5974101029005 65.72321057459858 0.42597038062765025
1.5967462058669908 13.031200622725953 239.91565019247363 68.79971850937754 0.433605866316721
1.6218381328945985 13.01845422625705 216.13680502914465 72.03225449597193 0.4414904924773873
1.646576839451677 13.004189627405411 194.91791523106193 75.43025757604057 0.44963847675004864
1.6709419089567916 12.98833992406948 175.9771164025673 79.00390160301389 0.4580651738872887
1.6948734431619514 12.970869807591113 159.05170463470873 82.7632172726807 0.46678328644491995
1.7183627056652957 12.95174571858345 143.89472531107972 86.720226423748 0.4758116079606701
1.741363969339158 12.930918532424446 130.34419276423233 90.88773339805594 0.4851696177746254
1.7638484115486794 12.908350389033666 118.19020620910288 95.27809066356684 0.4948724903092115
1.7857819932601142 12.88399920571839 107.2882451327171 99.90660151645882 0.5049443843765195
1.80712129736267 12.857816527710286 97.50882568046367 104.788849945342 0.5154075030951486
1.8278704319886463 12.829841391400567 88.71944006519033 109.94040966560962 0.5262810144704253
1.8479480242511315 12.799930924910445 80.81856885123258 115.38039727799247 0.5375941323589398
1.867365349955163 12.768163691048741 73.70370316165904 121.12826636282323 0.54937360889132
1.8860593918405022 12.734435237946474 67.30409110060505 127.20520002634031 0.5616486642973221
1.9039901025652644 12.69867451311578 61.528233687436284 133.63428656388723 0.5744511998834306
1.921166819847046 12.661016999050915 56.31950700591389 140.43978722950254 0.5878127990775709
1.937530316624303 12.62131336767057 51.619317135464115 147.64934372168818 0.601772040420661
1.9530450789327014 12.579549724345474 47.368492697929746 155.29280186742233 0.6163697360765088
1.967708677645528 12.53579673262185 43.52893055978999 163.40132146747126 0.6316453995298558
1.9814641444299461 12.489933515042775 40.05115698495039 172.0104293575614 0.6476470684751067
1.9943053966585575 12.442029318902309 36.90213272032945 181.1584116201214 0.6644250376363829
2.006167564196121 12.391962404921745 34.04956985402544 190.88680171087478 0.682032762790131
2.017060744889324 12.339835644921894 31.461507128811732 201.24129623135897 0.7005290358715539
2.026950065008505 12.28561014821305 29.11506269895109 212.27221674196474 0.7199784952153009
2.03580975139019 12.229288013926167 26.982548709720607 224.03389501435058 0.740448499447227
2.043616249347053 12.170872126629188 25.044215193568 236.5873145226147 0.7620165312797588
2.0503348995134987 12.110330311292055 23.282114242076194 249.9981629421494 0.7847623872633848
2.0559583366389247 12.047708950404067 21.68146752013876 264.3402607300659 0.8087777528714325
2.060471653245253 11.983039240467267 20.223404394721268 279.6942153725478 0.8341599652014752
2.0638492681611207 11.916324176697465 18.89544864799613 296.1495005586304 0.8610166825696783
2.066077712522155 11.847587214634578 17.686899488358225 313.8039024873674 0.8894616341820414
2.067141090798427 11.776863720002632 16.58569595712693 332.7683739234445 0.9196277484001583
