M[M_sun], R[km], Lambda[1], P_c[MeV/fm^3], rho_c[fm^-3]
0.24162668629717493 15.618656898711224 2160425.4255784233 3.5677272577965504 0.1711233750220791
0.25363571531309903 15.277475311926155 1723363.9865528687 3.784668013460168 0.17388628352520918
0.26602181836817557 14.981678725584322 1383430.2852109445 4.01108281720803 0.1766628102161734
0.2787874186811933 14.724063225419183 1116986.714155206 4.247232473146355 0.17945176436466348
0.2919329225543699 14.498983771629607 906387.4169195663 4.493739883784614 0.18225967070310578
0.30545719187631604 14.3018803351568 739215.9874289919 4.75074981124683 0.18508202319227626
0.31936329403269853 14.128799930219227 605547.6705277903 5.018962138269665 0.18792582763232393
0.3336490426509753 13.976636874179329 490168.84604046895 5.298576744130526 0.1907872347239346
0.3483185133831222 13.842674675337943 411415.4406631421 5.5903498624040395 0.19367310122143086
0.36336780176588246 13.72468938445476 341037.2308133485 5.894413776196126 0.19657784456853064
0.37880930477348407 13.620665807509505 283662.11656700645 6.21164669577403 0.19950944406989657
0.3946273369462321 13.529093513988226 236732.65733060145 6.542332548458292 0.20246455128517452
0.41083782061566543 13.448496317653888 198158.74992143566 6.887120374636519 0.2054459776961713
0.4274306210461118 13.377648457423664 166350.29060106198 7.246737992342395 0.20845722094714966
0.44441073883092613 13.315507903129346 140036.44461352407 7.6214822080892 0.21149443620061284
0.46177624016697777 13.261094133248138 118183.16608856946 8.012225943946092 0.21456261405950747
0.47952429349867826 13.213645062591734 99994.93692321912 8.41970750928789 0.2176639593734908
0.4976637152913541 13.172441915902512 84805.8661058555 8.844418865962131 0.2207966848807414
0.5161824984791958 13.136814513865767 72087.17294790837 9.287130535273535 0.2239627530654862
0.5350852621653551 13.106210267193486 61408.0185818892 9.748773083491653 0.2271657756684405
0.5543745896021283 13.080133669669568 52412.86358271385 10.230153772126524 0.23040709989474364
0.5740349783696762 13.058123552194047 44831.93475594294 10.731816101990564 0.23368435314884886
0.5940773099338865 13.039800681321562 38418.9242290374 11.25485911882825 0.2370019042242673
0.6144904951762618 13.024722450481997 32978.65919475058 11.800286105251821 0.240362244226394
0.6352719327137373 13.012606134577767 28363.679197807367 12.369073065351909 0.24376700072046795
0.6564199291805533 13.003144276231028 24435.386277170124 12.962007582679208 0.24721524966231037
0.6779345294968727 12.99610154649169 21085.04420659314 13.580217517725007 0.25070956497891533
0.6998008733452632 12.99114396824524 18222.298729952592 14.2249909239601 0.25425365148166573
0.722012828235715 12.988042495194666 15773.871934531544 14.897513572454473 0.2578494863063868
0.744577918821125 12.986670443310713 13673.175623813628 15.598944232449073 0.26149827903356554
0.7674755696639207 12.986747636919395 11871.191366877829 16.330287828138797 0.2651993339379592
0.7906983679268246 12.988094108831934 10319.97226928955 17.093279463740675 0.26895859425886426
0.8142491764623002 12.990603913398171 8984.624207247576 17.889369022994686 0.2727784824082444
0.8381077816162226 12.9940476447248 7832.291671129257 18.720084148866395 0.2766615566718257
0.8622656169973201 12.998294377073986 6836.3518312487995 19.586441121422432 0.28060538778181
0.8867156494182437 13.003224801205857 5974.8413698776485 20.49067268900348 0.28461772086564685
0.9113859317888814 13.008663193856895 5230.009423131495 21.41691666596431 0.30031524532127957
0.9346693988000877 13.012584804349032 4619.031006617964 22.447242892849356 0.3580875706108411
0.956219188897498 13.01306378914222 4116.015638135802 23.536024681992057 0.41125943444157487
0.9764034552662963 13.009728245764073 3691.1212711900394 24.704095267673967 0.46243358831729997
0.9954803841444497 13.002424031616227 3324.918555408993 25.95315138047697 0.5115473949046256
1.013708407354225 12.991404382470579 3004.7704646420266 27.28414198235857 0.5585170770309511
1.0312639643977233 12.97674053906028 2721.0229953614007 28.69960772895106 0.6037655166714831
1.0483299419242107 12.958770114613605 2467.391949205798 30.201675200632653 0.6474122143205268
1.0650425915953146 12.937746475197406 2238.935116694253 31.792691552158942 0.6896023170454526
1.081509977977274 12.913846180708992 2032.1346706778277 33.47531628554938 0.7304945491968953
1.0978398333083277 12.887368400252248 1834.9068479654177 35.252586070524856 0.7702526644205065
1.1141084685613796 12.858559703689277 1672.197638610204 37.12651023136718 0.8089225145608718
1.1303813248547256 12.8276053665886 1515.5261144148608 39.101135093520526 0.8467126936891626
1.1467177370225132 12.794794599114017 1372.6619386612365 41.18139014058662 0.8838310184763253
1.1631570460668001 12.760287496954888 1242.1794148288536 43.37008920557102 0.9203086923738826
1.179747157069917 12.724280960526588 1122.8157828103067 45.67182532860446 0.9562668173968445
1.196493344545313 12.686960245213132 1014.1271763972619 48.09184492879736 0.9918168206246663
1.2134168843093291 12.648417723926432 915.1069910006506 50.63585373443252 1.026935803430953
1.230534426801966 12.608919430206738 825.081023248228 53.3071174947873 1.0616970505173309
1.2478519343846035 12.568536060453813 743.4059077693146 56.11396439212104 1.0966469265301366
1.265352444782003 12.527379866342487 669.218186407325 59.06262643139585 1.131860857392783
1.283025779612235 12.485479869539548 602.095279720846 62.16007253555825 1.1674226348226733
1.3008620341766188 12.44307641977405 541.4735781269194 65.4140528482884 1.2034239563038727
1.3188247013720886 12.39996176437593 486.71356715125773 68.83314509390286 1.2399627665483455
1.3369126469965793 12.35649506097029 437.4461737159708 72.42624115470751 1.277129967420146
1.3550861101083815 12.312527225525367 393.1112183676628 76.20135797990866 1.3149862639117638
1.3733031209982665 12.26810320056103 353.21513261721327 80.17201041759945 1.3536957390141455
1.3915581678070739 12.223270911316856 317.46368677813945 84.34551921189542 1.3932817228078007
1.4097948890916892 12.178053492172788 285.30240300343064 88.73678040112343 1.433905092629767
1.4279692807549256 12.132324753769801 256.57070647579815 93.35796130224583 1.4756585439865835
1.4460761960740292 12.086239644835604 230.75725312125724 98.22262824467603 1.5186488753533618
1.4640407661815145 12.039628893757094 207.66940387934602 103.34582138829175 1.5629956070453206
1.481832629791766 11.992522738661048 187.0108348076721 108.7441457363491 1.6088304254865622
1.499407117815258 11.94481720055102 168.51418872251503 114.43550090353041 1.6562918652059988
1.5167302674650465 11.89659943680399 151.97389003052976 120.43707445350604 1.7054974773537623
1.5337529122350475 11.847730191090461 137.17821764418554 126.77133321308077 1.7566285523009921
1.5504239973176395 11.798243502636744 123.93490941996644 133.45995022814003 1.809843336755689
1.5667173923190403 11.748062454307732 112.08999968726758 140.52662111817025 1.865318721071433
1.5825662970191847 11.697060363727708 101.48783735368991 147.99759695556867 1.9232578476951208
1.5979449247494852 11.645242863851577 91.99511526918552 155.90187156073617 1.9838946998321019
1.612806943625301 11.59259652988133 83.48142389572071 164.2697691154874 2.0474850522539185
1.6271115039128732 11.539025957604455 75.87091572661274 173.13561695050785 2.1143502593087233
1.6407997577824949 11.484515770118495 69.03612597781513 182.53508404594947 2.1848773637357892
1.6538681776459214 11.428937822592772 62.90380784116515 192.50828646299578 2.2596104647690867
1.6662436136093912 11.372367881866667 57.40830489831262 203.09883612799158 2.3393725532313177
1.6779154522451911 11.314614010944618 52.462705483010865 214.35521344863002 2.4255908796207835
1.6888256976215077 11.25583946384958 48.019188393004875 226.32769159533453 2.521231126693059
1.6989607658265986 11.195755749000899 44.01902858478688 239.07348010855807 2.6339260285215853
1.7082796010156291 11.134518453741554 40.42113543811545 252.65277847114362 2.749520803716931
1.7167625025332218 11.072028533476802 37.17650772551724 267.13442444586957 2.8292358417442847
1.724365148043205 11.008330013586157 34.25133515681571 282.5955337134691 2.913611127340067
1.731060948381386 10.943345527696858 31.616731539005375 299.1206482462393 3.003001196223958
1.7368241740445913 10.877035478729532 29.236225234525875 316.80329372762554 3.0977936646936803
1.741610253820087 10.809530528889994 27.09075900043959 335.74578421860724 3.198398812349004
1.7454083660836486 10.740646137552567 25.148821385056728 356.06328369381566 3.305279279555507
1.74817870049357 10.670443144424555 23.397575045260307 377.8820481162972 3.418928485337177
1.7499300205159978 10.598985412648801 21.815710523511328 401.3433932878875 3.5398969093465538
1.7506146284886728 10.526236704356283 20.382842038948105 426.6032483966623 3.6687765038617988
