M[M_sun], R[km], Lambda[1], P_c[MeV/fm^3], rho_c[fm^-3]
0.24162668629717493 15.618656898711224 2160425.4255784233 3.5677272577965504 0.1711233750220791
0.2536445915937756 15.277260335377747 1723197.3902516963 3.78483030954637 0.17388830646762948
0.2660403720328831 14.981259637742358 1382921.893887207 4.0114239873403905 0.17666693305587813
0.2788169255278853 14.72349967772658 1116381.05185427 4.2477640507567775 0.17945792986387402
0.29197164991329555 14.498375215767275 905855.1494270685 4.494475808683276 0.18226786539765166
0.3055085691090225 14.301153518204574 738604.1332225739 4.751715060827302 0.18509244972995187
0.3194245401998615 14.128119159815743 605065.1335150276 5.020163813113994 0.18793829547263774
0.33372479100867747 13.975945247513788 497696.3478795737 5.300046468420176 0.19080203240881777
0.34840567027972125 13.841988249247803 410982.39433199604 5.592091295712187 0.19368995006773898
0.36346883910747413 13.723939595306142 335721.875978236 5.896466027167352 0.196597119743955
0.37892329102261957 13.619961407980192 283289.96020442905 6.214034584941955 0.1995312187439023
0.39475653018713736 13.528405317318144 236397.54317117744 6.545053586669351 0.20248841111434296
0.41098214176651116 13.447829022999418 197844.2989155738 6.890227071360248 0.20547243562914527
0.4275911017804365 13.377016524432262 166069.70747316908 7.250259482737439 0.2084863533347072
0.44458688201413027 13.31489640249607 139793.20227387844 7.625408749997887 0.21152569399896412
0.4619694071571199 13.260548397831155 117970.57901606418 8.016625999072488 0.21459665204320194
0.4797357771215467 13.213113800204505 99799.82522651202 8.424615367253438 0.2177008596043321
0.4978923245272488 13.171966517672919 84633.10664839245 8.849816423249884 0.2208357655017035
0.5164316006365629 13.13639173344524 71929.69062408166 9.293105106081326 0.2240048144164441
0.5353521069964465 13.105821343234275 61268.36705375472 9.755365151266167 0.22721090845380965
0.5546594192493836 13.07982031738321 52299.44702822171 10.237406279116708 0.23045539876208612
0.5743435043941356 13.057820688185164 44322.33564351955 10.739697532343005 0.2337349543730731
0.5944017579330714 13.039501538188293 38323.533438554296 11.263487947196925 0.23705581730006467
0.6148400250679038 13.024497049407803 32896.79089537436 11.809713273504967 0.24041957713825604
0.6356452589010178 13.012419262499918 28287.620825120408 12.379352692081527 0.24382786715311283
0.6568162640744293 13.003006381432199 24367.69361345594 12.973092464405756 0.24727860630068962
0.6783488279646156 12.995972250837035 21024.924411012867 13.59226499006395 0.2507766420771876
0.700238034116087 12.991061065108426 18169.50198711468 14.23806554056781 0.2543245819148694
0.7224742428187723 12.988001969704396 15726.28788081475 14.911684032892232 0.2579244108723167
0.7450626076752528 12.9866392782599 13631.921204465798 15.614145447830587 0.2615759775632312
0.7679840459479036 12.986752209982662 11834.117136313162 16.346725552927452 0.2652812718733069
0.7912309016404998 12.988144195246909 10287.098594837082 17.111036139358912 0.2690449389594809
0.8148053642573237 12.990667558272671 8954.958345295023 17.908532554295434 0.2728694119940083
0.8386898174548487 12.994138202069259 7806.382813834082 18.74057117473896 0.27675569085199786
0.8628705517405527 12.998407285284662 6770.642504302047 19.608514630508044 0.28070441769604343
0.8873539715299387 13.00336789077509 5954.274211243587 20.51444046095403 0.28472187492758544
0.9121104774028078 13.008862860725666 5210.212505759179 21.4601431873405 0.2888110766761402
0.9371326158622612 13.014745162139706 4564.4647899772135 22.4470954283 0.29297185073778875
0.9624167503781632 13.02095874703608 4003.8671301354584 23.477346049808613 0.29720818342314875
0.9879391376803981 13.02733726561303 3515.8353649191668 24.553306696616886 0.3015260846834921
1.0136821401685554 13.033799549452647 3091.5247613208753 25.67690579851041 0.30592708153226156
1.0396470121182397 13.040258755323872 2720.9049532853396 26.850132957117594 0.3104126422801312
1.0657983015284063 13.046587855866592 2397.669489453213 28.076072042421227 0.3149914013718886
1.09213210442504 13.052711533006349 2115.2694788465783 29.35676073276372 0.31966368355854186
1.1186315132748346 13.058546639294738 1868.2351767042096 30.694990189214426 0.32443441485612484
1.1452637646239607 13.064001845545823 1651.7713130441582 32.09412467373964 0.32931141094923877
1.172027466010497 13.069012075390342 1461.74804689972 33.55614267481622 0.3342926109859695
1.1988854442747072 13.073469973210102 1295.1446366350033 35.08556961288179 0.33939146546458776
1.22583174160617 13.077336759825865 1148.8090358244322 36.68440723781955 0.3446046028512929
1.2528287325854575 13.080496096924906 1019.9613070759885 38.357729673518556 0.3499465941004305
1.2798720256663454 13.082942480457927 906.4930071523033 40.107800270623535 0.3554141512760362
1.3069162188613364 13.08452472521442 806.5989155669031 41.9400474068349 0.3610215817045349
1.3339548588861043 13.085240584535509 718.4364784808166 43.85799862408492 0.3667710592807339
1.3609639406199572 13.08503392678358 640.4760452108668 45.866301764636496 0.3726701094285098
1.3878955670623123 13.083770094963366 571.6799153401286 47.970311542331466 0.3787288057643459
1.4147457045605536 13.081460022532088 510.72567845546786 50.17480908965224 0.3849529209425385
1.4414773196051514 13.07802479627102 456.77558187277316 52.48496970421862 0.39134919201247065
1.4680721785461874 13.073421845448426 408.9082285203717 54.90723319346523 0.397929429223036
1.4944812184211325 13.0675555719619 366.4416359624212 57.447790641188625 0.40470269563668315
1.5206935406751603 13.060408248717216 328.7530671359629 60.11327134915941 0.411678764570727
1.5466776395771251 13.051918897643498 295.2175830972825 62.91078228721426 0.41886817808070365
1.5723937614452912 13.042033842777126 265.39870716237095 65.84795132061856 0.426282310218933
1.5978078045566313 13.030696146810051 238.85265560478092 68.93297459818454 0.4339334356272236
1.6229056078316884 13.017877331248009 215.17865721393778 72.17466853230307 0.44183480409110276
1.6476572344443594 13.003537207683284 194.04939117036062 75.5825268561047 0.4500007217587958
1.6720065945257847 12.987598222712668 175.19184833616376 79.16644269242016 0.4584452174689815
1.695944190993067 12.97004494921616 158.32922730957958 82.93670273835745 0.46718195553977343
1.7194238891502798 12.950829666977537 143.24395182619025 86.90600233251784 0.4762322989905477
1.7424014909263956 12.929877113640602 129.74804628735092 91.08587710628001 0.4856104145913468
1.7648927248113464 12.907233182451973 117.60260940434665 95.49050927624442 0.49533858417619747
1.7868143135212544 12.882794178576447 106.79862351808794 100.13347994073831 0.5054339781732727
1.8081520414913668 12.85653280028073 97.05976433591437 105.0313638688588 0.5159224822079402
1.8288613049782028 12.828393439861403 88.30523673717387 110.2007068406529 0.5268266404392188
1.8489405412337159 12.798422402974296 80.44347145731577 115.6592043694821 0.5381700516010266
1.8683162613433364 12.766479449737696 73.3685464985281 121.42695627249351 0.5499816320897681
1.8869943645118274 12.732656118098442 66.99241720587196 127.5254017158548 0.5622912337317816
1.904916059259079 12.696835595497225 61.2408839852724 133.9770603277904 0.5751284240668096
1.9220563720018373 12.659013107572719 56.06077220862668 140.80760739559756 0.5885294526360639
1.9383697513115528 12.619120486960123 51.37999778595685 148.04472075700642 0.6025325678193297
1.9538648452217815 12.5772721097951 47.15349777359998 155.716851947133 0.6171733534255719
1.9684791473300214 12.533335568906919 43.328416651177555 163.85770990146176 0.6324996040213513
1.9821923991307289 12.487328793058724 39.86838359566 172.50114793728702 0.6485531266785104
1.9949808426623512 12.439248135937977 36.73541278275771 181.68633575147632 0.6653866587617284
2.00681515450803 12.38908401776646 33.894651584939844 191.45535627386496 0.6830548601468048
2.017660122341227 12.336804204677968 31.320514647467483 201.8542590524734 0.7016169844152356
2.027495509989779 12.282413991213845 28.984828695680328 212.9329306878648 0.7211354673860837
2.03630286796442 12.22594272806479 26.863524872391555 224.74703257706756 0.7416811747017807
2.044045609234707 12.167341185225908 24.93652856431441 237.35758878883237 0.7633307393785354
2.0507022182646137 12.106629243436524 23.18187241954538 250.8315685380098 0.7861670455786682
2.0562739307365767 12.043875888398794 21.58927969327575 265.242210373526 0.8102786494803199
2.0607176557476903 11.979022019060999 20.13705001223864 280.6709689437734 0.8357642490288628
2.0640212212780207 11.91212122307131 18.81735245289341 297.207916952557 0.8627318584687058
2.0661800382206823 11.843213352126956 17.61487894390214 314.9533850795223 0.891301729726256
2.067170007399772 11.772314429960403 16.52079149847 334.01670849767015 0.9215993931438854
