M[M_sun], R[km], Lambda[1], P_c[MeV/fm^3], rho_c[fm^-3]
0.24162668629717493 15.618656898711224 2160425.4255784233 3.5677272577965504 0.1711233750220791
0.25364650261388705 15.27722862157591 1723018.303557918 3.784860318581572 0.17388868051577644
0.2660440741440754 14.981189899748875 1382856.3389608983 4.01148707299945 0.17666769540883726
0.27882222126903494 14.723397116666726 1116287.5870849444 4.247862348023477 0.1794590699640369
0.29197931126253834 14.49825480605905 905743.6186809383 4.494611897674239 0.18226938078015062
0.3055169261236741 14.301077154404105 738503.8485420025 4.7518935632279184 0.18509437789655547
0.3194366569342743 14.127961026548805 604974.1376506872 5.0203860445731 0.1879406012097994
0.33373796215420093 13.975784895232676 497565.7831056678 5.3003182806580265 0.19080476910703487
0.34842181195560795 13.841851958689126 410897.828216411 5.592413368151799 0.19369306620719132
0.3634877841821311 13.723809154596358 340536.63546828245 5.896845596764898 0.19660068474194065
0.37894348088667584 13.619862181868347 283222.80322061427 6.214476246136555 0.19953524616220236
0.39478025282194446 13.528289741364901 236330.2980361138 6.545556881675071 0.20249282433162485
0.411009029235292 13.447707423630519 197787.78284928313 6.890801717759627 0.20547732955902337
0.4276209379913729 13.376904268354172 166016.040209374 7.250910874265179 0.20849174212987884
0.4446189388152306 13.314795262017045 139746.52987492536 7.626135086986279 0.21153147610842488
0.46200372821138114 13.2604322711117 117927.73668590806 8.01743995254744 0.2146029486313838
0.47977414884213515 13.213048034504292 99762.92637261299 8.425523285883683 0.2177076858831846
0.49793469180858696 13.171876830511923 84595.90551775569 8.850814959983245 0.22084299533429497
0.5164786280209516 13.136296391947077 71905.48820951265 9.29421042294735 0.22401259591608938
0.5354024856907682 13.105739221240963 61247.1977036135 9.756584744497276 0.22721925843463814
0.5547131434688727 13.079741277254115 52276.32294805718 10.2387378861688 0.23046420343500543
0.5743999875766624 13.057768607696978 44703.15890175062 10.741155752024724 0.23374431659512965
0.5944611150615025 13.039452811588255 38304.58322431301 11.265084498381393 0.23706579258075688
0.6149040373482527 13.024445786488496 32880.456157428634 11.811457590291102 0.24043018549464404
0.635712686640752 13.012405592554336 28273.606467614878 12.38125479724151 0.24383912965890694
0.6568885413597834 13.002993101524984 24355.413729255728 12.97514362301122 0.2472903298821613
0.6784255617907692 12.995946231587878 21014.106505535732 13.594494334305722 0.25078905446864874
0.7003195148193218 12.991046151350345 18159.803645670116 14.240485026983185 0.2543377077467559
0.7225593988462472 12.987991239602994 15719.19041935471 14.914306386380233 0.2579382762437114
0.7451520768250484 12.986651339908862 13624.53845912095 15.616958620426885 0.26159035663549235
0.7680779976786388 12.986761412021187 11827.04739522125 16.34976764825369 0.2652964359555243
0.7913286542654298 12.988150450907034 10282.091205339793 17.11432242918804 0.2690609190740888
0.814907952218213 12.990689652896004 8949.283934657156 17.912079323072053 0.2728862411582473
0.8387943604030932 12.994159873524103 7801.235688234875 18.74436268954787 0.27677311090076234
0.8629834874307709 12.99842143127026 6808.840857636761 19.61260020047207 0.28072274707183786
0.8874696712556656 13.003384511254033 5950.484542479604 20.51883975525586 0.28474115331733746
0.9122324471256826 13.008885139442851 5206.770730640795 21.464877222290646 0.2888313464428818
0.9372576996691951 13.014781241250844 4561.7193482278135 22.45214448104416 0.2929928216283933
0.9625477474887021 13.020990896728472 4001.1746205459667 23.48277349638508 0.2972302258963473
0.9880742768163873 13.027375257326966 3513.490806457366 24.55913809072775 0.3015492500440018
1.0138221933675362 13.03383541047241 3089.389890829813 25.683118564174872 0.3059510577914718
1.039791481256984 13.040292986649026 2719.004160897114 26.856803064296404 0.3104378407439696
1.0659487519613553 13.046618842980727 2396.221424661585 28.083230722624876 0.3150178844427946
1.0922868481974672 13.052741744675565 2113.803751611849 29.364382610001538 0.3196911176367415
1.1187902544927963 13.058581265641978 1866.6198107329403 30.70316628311509 0.32446325655715713
1.145427609396367 13.064038955732082 1650.4466552410133 32.10282829431032 0.32934131573224745
1.172195432395108 13.069038762249384 1460.7319449366012 33.56547594010386 0.33432406505228873
1.1990566667400309 13.073496536893487 1294.2330403727844 35.0955765868733 0.3394245558146809
1.2260078093744005 13.07736400948984 1147.8893092982642 36.6950588751846 0.3446389633845945
1.2530076207270129 13.08051425875594 1019.1399843093916 38.36906921245256 0.34998230122145124
1.2777877070468189 13.082087999999114 914.3163335884485 40.259948951608386 0.909777818308146
