M[M_sun], R[km], Lambda[1], P_c[MeV/fm^3], rho_c[fm^-3]
0.24162668629717493 15.618656898711224 2160425.4255784233 3.5677272577965504 0.1711233750220791
0.25364363209623075 15.27730437682996 1723279.9677059255 3.7848132396944894 0.17388809370016056
0.2660385092182689 14.981308607104014 1382949.1281408675 4.0113881030359995 0.17666649941523704
0.2788138539281906 14.723531929293705 1116421.0492584433 4.247708137907081 0.1794572813590764
0.29196727859921434 14.498460963120532 905929.0923132756 4.494398400019285 0.18226700343421248
0.3055036377312508 14.301227819872558 738703.1385441605 4.7516135278828635 0.18509135298037338
0.31941914336335836 14.128159111806465 605130.5778408096 5.0200374078970444 0.18793698396972394
0.3337159868302641 13.975979012389962 497694.11818036746 5.299891862934143 0.19080047578811032
0.34839648796424927 13.842064752211146 411028.61485934287 5.591908103869157 0.19368817763626334
0.36345729531404486 13.724054327780452 340673.2632901325 5.896250133201852 0.19659509202214298
0.37891148510014616 13.62003093781158 283309.81063490873 6.213783376131054 0.199528928022022
0.3947421451154879 13.52849364674861 236420.19445737326 6.544767323756226 0.2024859009753171
0.41096618212053404 13.447940140449788 197888.0894408577 6.8899002279266055 0.20546965209330983
0.42757458718796193 13.377075294233387 166087.88666551583 7.249888991612341 0.208483288356578
0.4445685097773316 13.31495726359225 139812.51468802532 7.62499563511016 0.21152240533882583
0.4619493811805954 13.260591994090866 117994.75532479624 8.016163054548379 0.21459307079303339
0.4797135142218875 13.213170396918064 99827.1872721023 8.424098982991943 0.21769697711657762
0.4978691938305102 13.172004977066956 84649.98931133046 8.84924850318162 0.22083165351775572
0.5164059883640353 13.136427457716614 71944.43123655401 9.292476459280483 0.2240003887037746
0.5353237866654249 13.105863604982611 61282.35259010851 9.754671515191657 0.22720615945408057
0.5546295091950229 13.079841576315038 52304.81782946263 10.236643132210746 0.230450316501397
0.5743108137190353 13.05786870373689 44735.12493049121 10.73886819044779 0.23372962974120784
0.5943665637210485 13.039539655828495 38331.66661454995 11.262579937917138 0.23705014404165295
0.6148024801998961 13.024514288687845 32906.37612918379 11.808721232562801 0.2404135438741439
0.6356038796647212 13.012435616238053 28297.699246499735 12.378270920527351 0.2438214619034699
0.6567744559040457 13.00304850000472 24375.01800948861 12.971925929918422 0.24727193886792
0.6783056340758822 12.995988147277465 21030.966154244292 13.590997127185988 0.25076958295636387
0.7001926421615552 12.991066042041107 18175.087410968885 14.236689550976278 0.25431711710418015
0.7224255763264041 12.987997906936133 15732.398868219509 14.910192681448587 0.257916525535065
0.7450118413542762 12.986646851549706 13636.193734571332 15.612545585915269 0.2615678001303504
0.767930738997812 12.986761022207796 11837.691288869417 16.344995514518523 0.265272648065747
0.7911740278239526 12.988134235246369 10290.680357779467 17.109167241426718 0.26903585114169853
0.8147481540528795 12.99066423770081 8957.96742181493 17.90651553812277 0.2728598413964926
0.83862934943874 12.994115153341273 7808.607171929046 18.738414986706214 0.276745784283629
0.862808921794415 12.99839984042929 6815.944242509641 19.606191234208826 0.28069399408213824
0.8872832704707638 13.003335151615532 5956.558494862753 20.511938673520973 0.2847109117071455
0.9120412600211584 13.008835941109966 5212.213083562672 21.457451060112284 0.288799549766954
0.9370597107006878 13.014725982757913 4566.0453248507465 22.44422417586909 0.292959925189834
0.9623375711426899 13.020930566843132 4005.2449542504237 23.47425963906422 0.2971956485920538
0.9878615650750402 13.027325036896789 3517.2037736777806 24.549990599584724 0.3015129114042085
1.0136027287590623 13.03377706412679 3092.457854834939 25.673372851577092 0.3059134472096387
1.0395635759203197 13.04023992132832 2721.9737723080116 26.846339968169254 0.31039831305088617
1.0657146435138947 13.046560395146262 2398.8249467978653 28.072001255988365 0.3149763417627598
1.092043348604276 13.052696342305937 2116.1050410406515 29.352426576704502 0.31964808325791405
1.1185417226582404 13.058527663903353 1868.9880497026577 30.690340916775593 0.32441801424633154
1.1451711752523184 13.063983915257271 1652.4085878648302 32.08917545947404 0.32929440593650017
1.1719336060481158 13.069000347338115 1462.3925455019341 33.550835463573755 0.334274725136886
1.1987870446821096 13.073462069184938 1295.6643255411675 35.079879355005204 0.3393726493244223
1.225731836601073 13.077324110811587 1149.3190969400175 36.67835044633215 0.3445850645795257
1.2527262056830288 13.080487065840723 1020.4027437742802 38.35126850576016 0.34992621246485694
1.2797677217903083 13.082929063194454 906.9034052842599 40.10088796167106 0.3553927669013905
1.306809700858193 13.084524523615084 806.9093969580125 41.932687228975375 0.3609993307718035
1.3338464409015214 13.085234036670546 718.781159355027 43.85010805546814 0.36674760443010324
1.3608536218258687 13.085033527114627 640.7806198884807 45.85789733898698 0.37264567050037595
1.387783437406571 13.083777907885011 571.9516473154299 47.96135736101837 0.3787033192738562
1.4146391272327266 13.081490404599117 510.9360865375797 50.1652069647284 0.3849260147303259
1.4413620946249088 13.07804171466151 456.984295966752 52.474734879134466 0.3913210910174471
1.4679546935342218 13.073447206448765 409.1097960251349 54.896320348434806 0.39790005380684645
1.4943636673105851 13.067584368554714 366.6286754502967 57.43615078540875 0.4046719600044276
1.5205745298249351 13.060444472910477 328.9154322496228 60.100851492128015 0.4116465762653658
1.546557679071375 13.05196261802424 295.35993737048176 62.897525077251046 0.4188344374273523
1.572273349235362 13.042084637034414 265.52733671356157 65.83379464693746 0.4262469097136758
1.5976973237275933 13.030760850074646 238.97875244292723 68.9178511524191 0.433896259264431
1.6227853272473998 13.01794430259212 215.2927780929583 72.15850532488633 0.441795726622534
1.6475358393866493 13.003611898416947 194.14829328878784 75.565244682331 0.44995960787694655
1.6718853888506193 12.987681742797523 175.28060351316054 79.14804578620686 0.45840229769726015
1.6958227879191037 12.970140979174088 158.40690173540813 82.9170116046528 0.46713670537187
1.7192881723467974 12.950901019691285 143.32292161793026 86.88491560419018 0.47618454792575327
1.7422900919771216 12.93000142881916 129.81185923196912 91.06338600622726 0.48556038017240577
1.7647699467722722 12.907360327738497 117.70904795247561 95.4663971342174 0.49528567675261054
1.7866983408316248 12.88293062679675 106.85133708343672 100.10772576144198 0.5053784017716647
1.8080346069229447 12.856683597765242 97.10647192308062 105.00383410080863 0.515864022687781
1.8287486675145372 12.828555885253273 88.35351696642697 110.1712558113193 0.5267650661710847
1.8488289968716123 12.79859772321466 80.48229825946704 115.62755272539619 0.5381046702264878
1.8682167656182325 12.766697557404447 73.39984419475311 121.39304642454616 0.5499126040659202
1.886887216579591 12.732857645810274 67.02518884672726 127.48908978129136 0.5622184287703127
1.9048132804164657 12.69704982709107 61.27146850432655 133.93817862060592 0.5750516595041646
1.9219572314873177 12.659243606293217 56.090173863560004 140.7658454975653 0.5884480845774499
1.9382723458330537 12.619365274069846 51.40463743797348 147.99982857211273 0.6024462154681612
1.9537721713226819 12.577532579225508 47.16922050549629 155.66870265289143 0.6170821056931718
1.968391145339839 12.53361529802939 43.348523796695446 163.80601170852086 0.6324030313672958
1.9821099809138372 12.487625487757441 39.889691314197826 172.4454248212692 0.648450240037423
1.9949037172810868 12.439559754254827 36.755768655080104 181.62638570765202 0.665277458925648
2.006742695325462 12.389411109290537 33.91281641898091 191.39078998617754 0.682938788557073
2.0175934319088644 12.33714997679753 31.33660470653912 201.7846470593632 0.7014934299941219
2.027433782784706 12.282775568986855 28.99867812782503 212.85797427708565 0.7210043356299252
2.0362476302210406 12.226322475446764 26.877150537951678 224.6660379437402 0.7415411735498657
2.0439974058550305 12.167741022668565 24.948901806389312 237.27016133910382 0.7631816675455259
2.0506613775937104 12.10704896205812 23.193280944039486 250.7370619915013 0.7860080040406626
2.0562385503060683 12.044315671297184 21.598671524758032 265.1397586844427 0.8101081639173676
2.0606915761364872 11.979478908517486 20.147013987827485 280.56016806024655 0.835582509791199
2.064001278387052 11.912596467631923 18.82588166053339 297.0877060611451 0.862537095285097
2.06616834335012 11.843709220575976 17.622760736232674 314.82279885994717 0.8910926868730488
2.06716409302107 11.772831811567352 16.526373103986206 333.8748856474945 0.9213753952807624
