M[M_sun], R[km], Lambda[1], P_c[MeV/fm^3], rho_c[fm^-3]
0.24162668629717493 15.618656898711224 2160425.4255784233 3.5677272577965504 0.1711233750220791
0.253635344251027 15.277491815494812 1723507.3739006587 3.784661320706497 0.1738862001032634
0.26602275348222926 14.981624839945345 1383464.100904464 4.011068748505691 0.1766626402042084
0.27878593530713675 14.724091241157 1116926.7700937113 4.2472105533543 0.17945151012810806
0.2919312738919575 14.499020229899116 906503.5867091607 4.493709538564204 0.18225933280203377
0.3054551479471212 14.301899829520163 739165.7544600549 4.750710011226871 0.18508159327610121
0.31936051502803986 14.128834172554665 605559.4471971648 5.018912591171704 0.18792531356205916
0.3336467643908544 13.976656867150675 498169.2831222936 5.298516146684131 0.19078662460819876
0.3483149846651123 13.842748768296538 411446.8355175147 5.590278064236063 0.1936724065544047
0.3633644803584477 13.72470874057463 341054.1595611269 5.894329165654074 0.19657704988841418
0.37880398448876873 13.620702285379263 283675.61101344955 6.211548250299394 0.19950854636570395
0.39462206306958253 13.529119878123439 236742.01822479907 6.542220371181497 0.2024635676420011
0.4108313028337295 13.448529557104136 198170.59705958114 6.886992301826032 0.20544488697437352
0.42742339592173484 13.377692018001856 166366.66787741912 7.2465928238087916 0.20845602000507465
0.4444033919558457 13.315516042621097 140046.87974641265 7.621320345908931 0.21149314767358085
0.4617677217663932 13.261120278684384 118196.90087920624 8.012044567299988 0.21456121096451314
0.47951593377544816 13.213667275950002 100004.32649007364 8.419505205791005 0.21766243833400933
0.4976545766869129 13.17245896316067 84811.94032790548 8.844196382232562 0.22079507400347934
0.5161724745010804 13.13683044782116 72095.88241350524 9.286884274057094 0.22396101937116983
0.5350749835862231 13.106217833526461 61412.79196338444 9.74850137743427 0.2271639154249493
0.5543613311637812 13.080182747626322 52419.20596670225 10.229854852663737 0.23040510920773036
0.5740222751526667 13.058154139918416 44835.9957704178 10.731491268272215 0.23368226761575617
0.5940641987428293 13.039793564572172 38421.254917756785 11.254503490476186 0.23699968225188806
0.6144773006033478 13.024743947937152 32982.85163885885 11.799897584425597 0.24035988137153785
0.6352565231273847 13.012631089873434 28365.54606226126 12.36864942346147 0.24376449230539918
0.6564034575147588 13.003152468404192 24436.958694706715 12.961550764953357 0.24721263867951632
0.6779182754110287 12.996098249607716 20925.226847069032 13.579721043872148 0.25070680074551593
0.6997824647180408 12.991141635561076 18224.085723446144 14.224452135909267 0.2542507285301944
0.7219936299839418 12.988054819107948 15775.81546162399 14.896929641512866 0.2578463988433841
0.7445584044487757 12.986670625760734 13674.844641875758 15.598317840233497 0.2614950773320619
0.767455065202434 12.986742774360586 11872.844433729948 16.329610501313052 0.2651959576336123
0.79067637848422 12.988095917296206 10252.457301727794 17.092547808092725 0.26895503646520763
0.8142281091896668 12.99058064890264 8985.828237830816 17.888579419494622 0.272774735796096
0.8380841943363425 12.99404493024381 7833.558385821197 18.719232736919317 0.27665761343435114
0.862240604972296 12.998289618526849 6837.30536897034 19.585531660870707 0.28060130760588115
0.8866898292492927 13.003215349628782 5975.715384154612 20.48969344866987 0.28461342968267134
0.9114240118906917 13.008708734646051 5229.300120563561 21.433514031242744 0.28869705834118675
0.9364257330922653 13.014579518471526 4581.330289185429 22.418695015899274 0.29285389159341885
0.9616737593595055 13.020766558397394 4018.8556001974034 23.446818191285452 0.2970842007189756
0.9871742517543802 13.027149154153099 3529.384374897984 24.520507809042584 0.3013957902735224
1.012891903372107 13.03361447201467 3103.5680076944404 25.641962788793244 0.30579222972811926
1.0388301901326973 13.040053792312525 2731.745503201972 26.812618912924304 0.3102709209763058
1.0649601593055382 13.046392936113612 2407.573636437431 28.03581149853492 0.31484246011342687
1.0912642088169477 13.052509654805451 2123.9207968105648 29.313896311838366 0.31950939796209915
1.1177384228076153 13.058358231714108 1875.9723227089494 30.649010479666156 0.32427221845128246
1.1443506647597488 13.063836798350426 1658.5468971104513 32.044939451082875 0.32914168648867037
1.1710860565968062 13.068850026831218 1468.0238885925462 33.503658654818544 0.3341157344272484
1.1979175594096625 13.07331524259997 1300.8547091470098 35.02929907006169 0.3392053940344603
1.224843148937491 13.077214078914075 1153.8260737962523 36.62451337250236 0.3444113945131507
1.2518221176286304 13.080411773260888 1024.478782989421 38.29355573225693 0.3497433910502966
1.278838938459793 13.082865456387212 910.5609444325504 40.03944983325448 0.35520269785722214
1.3058622491816942 13.084475972006315 810.2398111810668 41.867269997513816 0.3608015645704281
1.332880226924607 13.085219818233357 721.7248782900982 43.77997892736046 0.3665391443932529
1.3598714648140973 13.085058857141341 643.5110695878833 45.78320315023679 0.37242846994592893
1.3867853909029333 13.083838437302505 574.3051703598851 47.88177934886889 0.3784768145629375
1.4136181336030558 13.081578700039502 513.1157020034314 50.079873336538114 0.3846869005001765
1.4403442338746024 13.078212622007626 458.94367375516487 52.38378099199201 0.39107136572083057
1.4669126848863319 13.07363605213534 410.8982841855465 54.79934383579096 0.3976390104756547
1.4933146140811895 13.067840942256778 368.22091781735395 57.3327167065446 0.40439883704905955
1.5195162545702374 13.060763705988359 330.35579270595264 59.99048941750124 0.41136055299236
1.5454913742855152 13.052336290178733 296.6690114140002 62.77972588319432 0.41853462911302675
1.5712015379127164 13.042526201911583 266.71990621600713 65.70800698736205 0.42593236218617037
1.5966205019852076 13.03127276677615 240.03161557397476 68.78347757124143 0.4335659429409504
1.6217118940513024 13.018543961626351 216.2398207032963 72.01489796844027 0.4414485299422547
1.6464471497554007 13.004269935297218 195.02524166788658 75.41170056597912 0.4495943300628823
1.670811047633054 12.98842993053128 176.07943094641124 78.98405193160701 0.45801868632476694
1.6947430958534808 12.970970962282179 159.1362273905522 82.74207598113874 0.46673470381852994
1.7182335131118514 12.951858999125285 143.9780487838516 86.6975881980335 0.47576034351764573
1.7412357131388063 12.931040828775176 130.40638884794348 90.86358880712876 0.4851159049471169
1.7637211039245047 12.908486556916081 118.25533970695604 95.25220758642116 0.4948156970585436
1.785655955999204 12.884146944392523 107.34630599173651 99.87895743043308 0.5048847296381805
1.8069971194442769 12.857976240973732 97.56425414860662 104.75918083634599 0.5153443003512479
1.827748092991011 12.830010434826429 88.76898312200271 109.90867663365094 0.5262144652748945
1.8478288455451803 12.800117318289832 80.85816517735945 115.34642968224553 0.5375239670274428
1.867248429242785 12.768368567961495 73.74801188469259 121.09187776744729 0.5492995350460671
1.8859447115964976 12.734649706157105 67.33792811150204 127.16618655043465 0.5615703645624734
1.9038848398439339 12.69893441544534 61.56273473632753 133.5924250377087 0.5743683293212716
1.9210593535443887 12.661264043003571 56.351920464872954 140.39498182767866 0.5877255011161848
1.9374257880531367 12.621579940691134 51.64298438065701 147.60118357759967 0.6016794019873901
1.9529639300276154 12.579891676910817 47.39347324962653 155.241151142524 0.616271852782516
1.967612128682046 12.536091492623006 43.55212394886137 163.34570593061062 0.631541263106055
1.9813787072138689 12.49026111818043 40.07366423435384 171.95066343463813 0.6475367172330996
1.9942212932165027 12.442359777704343 36.92167049087598 181.09411716514072 0.6643079243951425
2.0060883675388372 12.392314598420091 34.068818002957165 190.8175621510313 0.6819082900029967
2.016988904664145 12.340206468505553 31.47963211279742 201.16665209846977 0.7003965498987121
2.026883785073266 12.286000001577882 29.130271686649934 212.19166062347983 0.7198372798940865
2.0357491752458086 12.229698706041768 26.995539103552193 223.9470603637956 0.7402984036865028
2.043563834378649 12.171304216516333 25.057941512992137 236.4933930728944 0.7618560778901348
2.050297109482235 12.110796948741672 23.296269582635233 249.89667316942388 0.7845912984472063
2.0559189626950785 12.048176529892086 21.692454514772667 264.2304527857648 0.8085950260724084
2.06044191048769 11.983535054799647 20.2329856767776 279.57525631675657 0.8339644968816551
2.063834612891371 11.916848584336655 18.905258271168165 296.0204637708741 0.8608072557144101
2.0660654534742835 11.848120659483744 17.695470651575594 313.6639823442941 0.8892376495531551
2.0671379489777 11.777418938521656 16.594404135503893 332.61643005680156 0.9193877651999861
