M[M_sun], R[km], Lambda[1], P_c[MeV/fm^3], rho_c[fm^-3]
0.24162668629717493 15.618656898711224 2160425.4255784233 3.5677272577965504 0.1711233750220791
0.2536460887843684 15.277244365348299 1723039.4951943576 3.7848595864882033 0.17388867139058578
0.26604395324145397 14.981181563558442 1382927.713452236 4.011485533968092 0.17666767681055157
0.27882239592242236 14.72337400756347 1116331.6857742548 4.247859949960594 0.17945904215012126
0.2919791335615234 14.498262499787948 905698.3186194468 4.494608577626228 0.1822693438106455
0.3055167438325481 14.301083333900747 738525.9019304977 4.751889208433017 0.1850943308564593
0.31943642927663846 14.127960903825446 604971.8553168671 5.020380622924887 0.18794054495810664
0.33373842788127533 13.975734387753006 497562.90783373197 5.300311649383299 0.19080470234110164
0.3484214180617495 13.841855284943428 410899.8899427905 5.592405510665276 0.19369299018384767
0.36348743743040957 13.723806190946199 340565.71351421427 5.896836336494496 0.19660059776752134
0.3789433488488895 13.619859348606925 283217.449764837 6.214465470978665 0.19953514790573654
0.3947799567822964 13.528290179118983 236332.86219100739 6.545544602788551 0.20249271666237806
0.41100838460723127 13.44771201191751 197800.89753882022 6.8907876980453295 0.20547721016125328
0.42762027237148675 13.376900615679807 166011.30933197573 7.250894982114443 0.2084916106581886
0.4446181601979514 13.314811006539882 139747.4974889048 7.626117366297107 0.21153133504034471
0.4620016773043499 13.26046386189628 117922.38171666436 8.017420094154929 0.21460279501066293
0.47977307161208366 13.213037121840268 99765.46103785528 8.425501134875937 0.21770751933857288
0.49793390124212594 13.171880033724461 84602.40764768566 8.850790598012876 0.22084281894322044
0.5164774717091147 13.136297935561753 71905.24312020399 9.294183455664712 0.22401240606473838
0.5353992334414532 13.105754700541816 61248.04345635264 9.756554988986215 0.2272190547126589
0.5547112559806547 13.079728250994332 52274.87355618105 10.238705466806241 0.23046398950817223
0.5743985095002709 13.057764755803992 44704.42893131764 10.74112017422339 0.23374408817462447
0.5944595797036972 13.039453206658852 38304.87374022638 11.265045545374141 0.23706554920166267
0.6149022335805803 13.024464017959518 32880.820691542816 11.811415031870856 0.2404299266684418
0.6357108861079801 13.012392338878803 28274.474509051764 12.38120838883532 0.24383885487129026
0.6568862880987604 13.002982588038376 24355.66273488532 12.97509357773982 0.247290043843912
0.6784234347117346 12.995948764260088 21014.188482210517 13.594439941316987 0.2507887516230602
0.7003172963146699 12.99104655707626 18160.154620338355 14.240425994512474 0.2543373874927212
0.7225578074283188 12.98798916661942 15718.17458493468 14.914242403911638 0.2579379379442816
0.7451496743735354 12.986654754095436 13624.539767169024 15.616889981927326 0.2615900058010123
0.7680755477859218 12.986759841662318 11827.194172856369 16.349693423936813 0.2652960659659208
0.7913270225536346 12.988149943943634 10282.30305534461 17.114242246382776 0.269060529172259
0.8149052468529446 12.990690340587914 8949.231806974882 17.911992784393203 0.27288583053840393
0.8387945883005599 12.994144699619474 7801.652684888747 18.744270178888634 0.2767726858621494
0.8629798032282062 12.998433994870044 6766.860757691887 19.612500514584017 0.2807222998441268
0.8874674202914359 13.003390635372906 5950.6862813852385 20.518732414149362 0.28474068293196525
0.9122282035647087 13.008880510019003 5206.852473311294 21.464761713098955 0.28883085186597296
0.9372547440529491 13.014778238167269 4561.8925176182065 22.452021285034323 0.29299230994230563
0.9625435985052655 13.020991371192219 4001.1446128709586 23.48264106700498 0.2972296880612861
0.9880692756048661 13.027375009732742 3513.4710960299767 24.558995804373215 0.30154868480786173
1.0138186633020518 13.033830378507883 3089.503156670632 25.68296697174726 0.30595047276709864
1.039788298906162 13.040294471478868 2719.0294476214963 26.856640311879463 0.3104372258946451
1.065945269991197 13.046617658256052 2396.2424794917783 28.083056048041694 0.31501723824555705
1.0922828611462458 13.052742924144086 2113.7167655057624 29.364196632495158 0.3196904482319093
1.1187863610363544 13.058584677823678 1866.6282606636003 30.702966781461647 0.3244625528021472
1.1454237530291456 13.064038429591909 1650.4458791526397 32.10261591982869 0.3293405860344466
1.1721912529460525 13.069041572802664 1460.767994037715 33.565248200691876 0.3343232975469895
1.1990524675596481 13.07349199220078 1294.2427966233906 35.09533240715628 0.339423748378554
1.2260045713858407 13.077358527174008 1147.9443608144159 36.69479896397657 0.3446381249512708
1.2530029455708707 13.08051874989738 1019.2124744093021 38.36879251454273 0.34998142992625925
1.2800514137449455 13.082950271399556 905.8247362539037 40.11966000046987 0.355450841318101
1.307106409440079 13.08455589072806 805.9481476193813 41.952675651274994 0.361059758800648
1.3341403980227298 13.08523927398573 717.8342410946052 43.87153700519037 0.3668113023509144
1.361153238871439 13.085028864053108 639.9581258140335 45.88072190850387 0.37271204124804763
1.38809383043578 13.083774001087518 571.1889013085704 47.985675058252966 0.37877253529010935
1.414941063372154 13.081443834761297 510.29267454242336 50.19128449163344 0.38499908683451667
1.4416746857011977 13.077994862462875 456.3717590217098 52.50253083156841 0.3913974082885873
1.4682709120655775 13.07338475801478 408.5815924423233 54.925957826815754 0.39797983256846375
1.4946837499982109 13.067504557128705 366.1368041951426 57.46776286258382 0.4047554333048929
1.5208968385630914 13.060345493837465 328.4841139494083 60.134582106345505 0.41173399525156745
1.5468828176825462 13.0518457711714 294.98044754855744 62.93353001424757 0.4189260728545279
1.5726011009025676 13.041948949715524 265.1742299537615 65.8722426210613 0.4263430536060025
1.5980148533608638 13.030597437118686 238.63648019303508 68.9589249979273 0.4339972267427148
1.623124124188248 13.017775151170646 214.9900994900004 72.20240330991221 0.441901857917261
1.6478646253580358 13.003407198710441 193.86262269093615 75.61218195957818 0.4500712705471832
1.672215606437665 12.98745531706104 175.02400104151442 79.19801084943691 0.45851886561813837
1.6961504914001726 12.96988864513005 158.18252895778042 82.97049204545311 0.46725960326906885
1.7196302129542496 12.950651888795912 143.11723911185564 86.94218678464438 0.47631423897152514
1.7426144599928526 12.929701273690878 129.62985611230687 91.12447176282846 0.4856962734959847
1.7650903183051403 12.907024104298568 117.54227882315058 95.53188605993218 0.4954293740785953
1.7869997132589586 12.882527022708933 106.70873202590553 100.17767488342943 0.5055293489422569
1.8050378586025677 12.85827270124953 98.26719255091302 105.57624616715877 1.6191014161939976
