M[M_sun], R[km], Lambda[1], P_c[MeV/fm^3], rho_c[fm^-3]
0.24162668629717493 15.618656898711224 2160425.4255784233 3.5677272577965504 0.1711233750220791
0.2536440810657228 15.277277001147821 1723287.806486331 3.7848209147278253 0.17388818936574854
0.2660401214514377 14.981267768498155 1383044.8110710871 4.011404237490441 0.17666669439059707
0.2788151338675891 14.723498318255931 1116472.2087724337 4.247733277638971 0.17945757294208156
0.2919695998342187 14.498395977031352 905865.2881156518 4.494433204717008 0.1822673909925994
0.30550474555390966 14.301231351174962 738627.1991266109 4.751659179329595 0.18509184610312518
0.31942168360422296 14.128131273238807 605103.5962685178 5.0200942423746495 0.1879375736493652
0.333720793162431 13.975931271969698 497675.3228311253 5.299961376739388 0.19080117567678487
0.3484006157844215 13.842029840564555 411007.4233922456 5.591990470562401 0.19368897455667877
0.36346341712767594 13.723982844885338 340648.8098279741 5.896347203263824 0.19659600372470723
0.37891631366315637 13.620006251927833 283297.7781242753 6.21389632424438 0.19952995797281714
0.394748451598815 13.528449103728953 236408.82116830448 6.5448960326534165 0.20248702957846826
0.41097416450306723 13.447869628841767 197871.064063266 6.890047182318608 0.20547090361857914
0.427581788335922 13.377080825564635 166082.0671984164 7.250055570494166 0.20848466642097682
0.4445768478731312 13.31492687974511 139798.44498593046 7.625181378076614 0.21152388397227112
0.4619579974219413 13.26057150726885 117982.29235540263 8.016371201387845 0.21459468097711615
0.4797229573664416 13.213153539287461 99811.57866851155 8.424331156791176 0.21769872273897484
0.4978803469994458 13.171981884503351 84645.56275561421 8.849503847881342 0.22083350232248208
0.5164182022160322 13.136403389726892 71939.08714088223 9.29275910713423 0.22400237856228603
0.5353355447084525 13.105853182625903 61277.034832617916 9.75498338261075 0.22720829466351272
0.5546453600520789 13.079791667354836 52300.85956930209 10.236986252055075 0.23045260154570874
0.5743258064716826 13.057839784341867 44729.67046352463 10.739241071863306 0.23373202375539967
0.5943821202020186 13.039522838445428 38329.06786870032 11.26298818846899 0.23705269479848876
0.6148193477859514 13.024500714518858 32902.239717721604 11.809167263979809 0.2404162564893463
0.635622627870596 13.012436786241095 28291.851103599907 12.378757294999103 0.24382434176280757
0.6567915376459514 13.003024740136809 24370.902882549777 12.97245041393774 0.24727493660349964
0.6783256322739566 12.995971534858024 21028.282025476758 13.591567168493253 0.25077275679363953
0.7002122806110406 12.991054354007032 18172.26917211136 14.237308206013218 0.25432047333794905
0.7224477772340322 12.987999424595122 15730.222369000347 14.910863203038033 0.2579200708354634
0.7450351849914025 12.98665048084971 13634.529314333318 15.613264893665187 0.2615714767544323
0.7679550641770676 12.986761228465314 11836.754562390819 16.345773349277863 0.26527652537693464
0.7911991311393821 12.988138207974108 10289.042157509004 17.110007506951977 0.2690399370684101
0.8147742820136276 12.990668769506241 8956.72835059984 17.90742239698299 0.27286414437694084
0.8386558508169893 12.994125548786531 7807.595728291587 18.739384416642416 0.2767502383125893
0.8628368086351735 12.998400971304452 6814.783915324647 19.607235840034313 0.2806986805696788
0.8873165118832738 13.00335756347181 5955.501092142917 20.513063482846118 0.28471584079601275
0.9120708289239345 13.008851452506809 5211.155947894399 21.458661444824113 0.2888047322837784
0.9370930033309485 13.014734973290333 4565.410595455897 22.44551509398565 0.2929652869287529
0.9623689819133391 13.020938586416976 4004.3812392353225 23.47564729047884 0.29720128425675996
0.987895667142829 13.027336580227145 3516.5828642359766 24.551481515759054 0.301518834106398
1.0136376359829387 13.033792779512611 3091.935604051276 25.674961261431424 0.30591957718917706
1.0396019420652343 13.040245728343065 2721.578054943762 26.848045290040904 0.3104047554498407
1.0657525002076123 13.04657020635126 2398.3208232434463 28.07383147230652 0.3149831125287597
1.0920843451342162 13.05269918905644 2115.8616517176933 29.35437520093509 0.3196550971086828
1.1185820663084187 13.058535441956284 1868.6350914350114 30.692431213100967 0.3244253879020671
1.1452131727061483 13.06399088185337 1652.1472507340245 32.09140060569405 0.329302051319744
1.1719760621867683 13.069006498996757 1462.091593643037 33.553221559867104 0.3342827665274114
1.1988315053983984 13.07346747514076 1295.5525513909613 35.08243766298187 0.33938110895534224
1.225777213769342 13.077327012895028 1149.0826871863458 36.681073542098815 0.3445938488649428
1.252771914648991 13.080498085990447 1020.1737218207119 38.35418070214796 0.3499354187298121
1.279814369318578 13.082933446936003 906.7462546999843 40.10399568321661 0.3554023811536297
1.3068580311466549 13.084521070015755 806.7631262211854 41.93599630431908 0.3610093346078903
1.3338950262241795 13.085233062653433 715.6692279092003 43.853655583895765 0.36675814951923674
1.360902343327401 13.085033874089529 640.6522734546892 45.861675887397375 0.37265665800587633
1.3878335849439605 13.08377360356482 571.8259179686727 47.965383068283984 0.3787147777362607
1.414690222152618 13.081484254282987 510.8403820931559 50.16952397280403 0.38493811146269796
1.4414135626076907 13.078031565752463 456.8887865316755 52.4793363350464 0.39133372489136475
1.4680076678999205 13.07343655500546 409.0344812188447 54.90122662635927 0.39791326062464427
1.4944164677542937 13.067572068317466 366.544836541986 57.441383909829376 0.4046857783360961
1.520628271534924 13.060427777209602 328.8468020724943 60.106435285589846 0.4116610476758312
1.5466117828016517 13.051940304375297 295.2980693658599 62.903485322857264 0.4188496067262807
1.572327613795813 13.04206373211921 265.47660896563076 65.84015926723067 0.4262628252302177
1.5977517734300262 13.03073525773769 238.92843299765116 68.92465040648884 0.43391297314960875
1.6228383773534516 13.01791541671819 215.2439295451374 72.16577202576977 0.44181329518229134
1.6475913460482767 13.003577242296018 194.1056711075649 75.57301443703336 0.44997809193925337
1.671939972172119 12.98764455635298 175.23657477588299 79.156316691617 0.45842159362495666
1.695876978659979 12.970097431541763 158.3663702809958 82.9258643535002 0.46715704896293797
1.7193574137281677 12.950888799814644 143.28245648518177 86.89439576637102 0.4762060158287643
1.7423432235285432 12.929948121471204 129.78293003864712 91.07349752785173 0.4855828745861029
1.7648229786025245 12.907303870792777 117.68109735723466 95.4772374194083 0.4953094627588374
1.7867497761190798 12.882866698076084 106.8235632080501 100.11930424902631 0.5054033876455533
1.8080896835646176 12.85661450058661 97.08801581899719 105.01621082889865 0.5158903046958229
1.8287989669506857 12.828482601472578 88.33303282874198 110.18449626684034 0.5267927484415151
1.848879202532057 12.798519699790843 80.46812844673208 115.64178249015228 0.5381340640101595
1.8682555550265394 12.766584849078072 73.38751709800721 121.40829138791898 0.5499436372246915
1.886937369807478 12.73276461985259 67.00957989648047 127.50543553095451 0.5622512345594617
1.9048585952529935 12.696954327926399 61.25750804482361 133.95565872772016 0.5750861706631332
1.922001960494051 12.659140040685347 56.07668575233119 140.78462041327097 0.5884846652529842
1.9383166574342676 12.619256639694463 51.39347333642136 148.0200107244914 0.6024850368423863
1.9538134413465391 12.577414406186938 47.163019184209844 155.6903490546328 0.6171231277913071
1.9684308013945 12.533487693672926 43.33983863830496 163.8292535301678 0.6324464472832853
1.9821472686474182 12.487492874890272 39.88094576629034 172.47047605164883 0.6484964943952741
1.9949379253942081 12.439420646668955 36.74711895498129 181.65333715595247 0.6653265513624304
2.0067750425568467 12.389264003354315 33.90491279573326 191.41981666285423 0.6829909701618574
2.0176232306743462 12.33699453958454 31.32956507306145 201.81594202081112 0.7015489754636985
2.0274609571811175 12.282612219112474 28.99220910357612 212.8916718052181 0.7210632874393338
2.0362739712765796 12.226150687781221 26.87065451466762 224.7024499216879 0.7416041125205945
2.044019102986401 12.167560889477768 24.94297082826656 237.3094651490966 0.763248684152073
2.0506796985698634 12.10685995038019 23.188552356548357 250.77955620351014 0.7860795286307087
2.05625347261068 12.044119616684382 21.593832614865203 265.1858165016753 0.8101848068011455
2.060703439178266 11.979276335791274 20.143066651434417 280.6099791679702 0.8356642116012996
2.0640103691372564 11.912384252065836 18.82240975832522 297.14174731289114 0.8626246517960974
2.0661730301714445 11.843486204137262 17.619345852543724 314.8815041830752 0.8911866625489284
2.0671689139602263 11.77260034959712 16.524493105998197 333.93864221309383 0.921476093683288
