M[M_sun], R[km], Lambda[1], P_c[MeV/fm^3], rho_c[fm^-3]
0.24162668629717493 15.618656898711224 2160425.4255784233 3.5677272577965504 0.1711233750220791
0.25363612020067244 15.277464207999364 1723343.5797017498 3.7846773062533416 0.1738863993553931
0.26602296599270997 14.981656022198433 1383366.176941014 4.011102351459462 0.17666304627607363
0.2787903642203968 14.723975753446602 1116805.3564187537 4.247262908644834 0.17945211737058053
0.2919350632996497 14.498946784715072 906370.9025392404 4.493782018058144 0.1822601398780204
0.30546109781228536 14.301788538904797 739151.9530889894 4.750805073647345 0.1850826201316717
0.319366691396309 14.128746728911752 605501.9488819622 5.019030934691855 0.18792654142175713
0.3336541962450381 13.976604621120801 498116.8307780222 5.298660884257796 0.1907880818754025
0.3483235359916521 13.842630508721298 411396.5393541244 5.59044955509828 0.19367406577567214
0.3633739057771678 13.724631256203358 341013.70304365817 5.894531259359186 0.19657894799526018
0.3788152776780835 13.620624698214035 279721.61610558035 6.211783389343683 0.19951069055066203
0.39463368169410107 13.529086217390013 236716.58582380047 6.542488309302796 0.20246591709735823
0.41084621066748733 13.448450097454238 198134.965788383 6.887298207282899 0.20544749219361244
0.4274399416827838 13.377611927128747 166335.148908011 7.246939563405163 0.2084588884928937
0.4444210157960763 13.315460738976713 140016.8887706572 7.621706959334259 0.21149622536503807
0.4617878165780134 13.261052210858033 118176.5684009273 8.012477792355618 0.21456456231056587
0.47953598750455506 13.213615693987938 99988.04658249723 8.419988416154707 0.21766607140042868
0.4976771809711905 13.17241371167655 84798.56701740492 8.844727794626266 0.22079892165626477
0.5161974673593588 13.136778680246993 72080.64458650418 9.28747248091785 0.22396516038414
0.535100697766824 13.106184688005564 61401.52498419089 9.74915036148893 0.22716835871331476
0.5543902724912979 13.080140933119994 52409.14488111907 10.230568838403366 0.23040986407422953
0.5740525518395051 13.058105501411035 44825.347747613145 10.732267152630353 0.2336872490336743
0.5940967189442796 13.039766257824347 38412.229080305005 11.255352930858292 0.23700498957076718
0.6145112066299773 13.024703229284619 32974.08441718248 11.800825591873902 0.2403655252051698
0.635293440287274 13.01259811670076 28361.581122811374 12.369661321344786 0.24377048382785213
0.6564420312531583 13.003153309184068 24430.940334607534 12.962641906943881 0.24721887519969032
0.6779594681260958 12.9960908486107 21081.533496540796 13.580906909091182 0.2507134033253432
0.6998261216726566 12.991137930396391 18218.28405643152 14.225739073644712 0.2542577102302182
0.7220396367763902 12.988032191257117 15656.029892930022 14.898324408625983 0.2578537735028726
0.7446051589050384 12.986659204299148 13670.621687922254 15.599814031390807 0.2615027248687953
0.767506116387815 12.986741290994035 11869.252664674708 16.331228356473257 0.26520402223581385
0.7907279453727907 12.98809434769637 10317.831286936826 17.0942954350047 0.2689635345830845
0.814281915223122 12.990594158273156 8982.910231937016 17.890465462944952 0.27278368493740923
0.8381419684141487 12.994051525568999 7830.963406319148 18.721257811688954 0.2766669559417855
0.8623003395627054 12.998301002607924 6835.026094299451 19.587704000131936 0.2806110535221236
0.8867522825358768 13.003223560989877 5973.744579964565 20.492032467508444 0.2846236796258926
0.9114905141382814 13.00871634498341 5227.683610973198 21.436030883512732 0.28870783477375916
0.9364880518020132 13.01459809014679 4580.2228537597675 22.421379225036645 0.2928650402700186
0.9617447623259566 13.020790470544513 4017.509270277905 23.449703400501328 0.29709591841088046
0.9872460448540059 13.027171978359728 3528.176629620151 24.523607577599815 0.3014081041824711
1.0129666468957972 13.033627871004251 3102.3663453173253 25.6452651282053 0.30580497409190505
1.038907277032999 13.040075388272163 2730.7715899254167 26.816164142098863 0.31028431421373953
1.0650410266864014 13.046408869194815 2406.521756848494 28.03961618604552 0.3148565353069335
1.091346424516603 13.05252528015775 2123.0712594625725 29.317946986329186 0.3195239779031393
1.1178228756941722 13.058375838708313 1875.266220051779 30.653355435166294 0.32428754556335526
1.144437408755657 13.063846031636968 1657.9681452968769 32.04959903959624 0.3291578011583742
1.1711743909751366 13.068865263113251 1467.411093686241 33.50861801366416 0.33413244797788944
1.1980091048294939 13.073333704221184 1300.3052559119446 35.0346160851715 0.3392229759619824
1.224936667912041 13.077220186371205 1153.3556500314685 36.630172632168254 0.3444296504087983
1.251917754149898 13.080415655174038 1024.0126510708928 38.299622250607605 0.3497626084505185
1.278936906034981 13.082871700798487 910.1793348107152 40.045907815517474 0.35522267669687135
1.3059618283885193 13.084483966956174 809.9270087565538 41.874146097618485 0.36082235206276914
1.3329824084243398 13.085226058572106 721.3870409694947 43.78735011445803 0.36656105537340417
1.359974410212757 13.085055178473146 643.2169552163837 45.79105399997599 0.3724512991505132
1.3868909006455274 13.083839061675949 574.1075273571053 47.89014334114825 0.37850062118492006
1.4137253731160815 13.081565541372875 512.9064043851122 50.08884203051034 0.3847120317690572
1.4404511978461287 13.07819914585536 458.73549382252065 52.39334017080026 0.3910976116443232
1.4670218100700014 13.073616500432301 410.7218042442482 54.809535755942576 0.397666445291726
1.4934251673892305 13.067814577961856 368.0456148933127 57.34358704391621 0.40442754072874987
1.5196298069719962 13.060733121876712 330.1985134734943 60.0020875731386 0.41139061170997154
1.5456040562048696 13.052298554135437 296.53579676494087 62.79210531959088 0.41856613576286483
1.571315174092897 13.042480709220612 266.6205608899514 65.72122559860594 0.42596541695082574
1.5967282361759778 13.031210657249424 239.93023675288504 68.79759809083468 0.4336006539167002
1.6218213796178667 13.018463472172389 216.15301496376176 72.0299884190581 0.44148501382781663
1.6465602862605215 13.004200624140111 194.9426013111663 75.42783475596858 0.4496327129185141
1.6709251540329182 12.98835364839318 175.99260049952957 79.00131000362282 0.45805910440955006
1.694856410056679 12.97088478352557 159.0627869930122 82.7604570300828 0.4667769434154691
1.7183454189496785 12.95176259148109 143.9032421941171 86.71727072898346 0.4758049147662579
1.7413466748182 12.930934145820546 130.35083081040344 90.88458101984496 0.4851626048934547
1.7638318350882696 12.908367320892822 118.19884182624592 95.27471129231314 0.49486507521410394
1.7857661840509786 12.884017949081628 107.29514963300052 99.90299221143721 0.5049365956528681
1.8071052052205567 12.857837635256272 97.51709341177637 104.78497623210026 0.5153992511012652
1.8278545134550899 12.829861867941563 88.72329118915452 109.93626646490044 0.5262723255221244
1.8479330385166497 12.799955035426173 80.82523924776677 115.37596230787223 0.5375849712410619
1.8673496870002964 12.768191024762173 73.70771307152567 121.12351527872995 0.5493639374251842
1.8860444622570183 12.734463620444835 67.30667929993936 127.20010620560451 0.5616384410397497
1.9039819834752303 12.698732476606368 61.53207792208819 133.6288208649412 0.5744403797919146
1.9211525984601627 12.66104747669425 56.32249259430868 140.43393713991523 0.5878014008783782
1.937514578846563 12.621346664907389 51.497839136297635 147.64305558945108 0.6017599448854488
1.95303292572886 12.579585478706978 47.371529417618135 155.28605795499848 0.6163569556873905
1.967696280570048 12.535836503128778 43.5314214121954 163.3940598477917 0.6316318026260567
1.981453321101952 12.489975116590672 40.05452704196256 172.00262579826241 0.6476326600560846
1.9942939633196637 12.442072526907882 36.9035091809588 181.1500167413229 0.6644097462482499
2.0061574324980267 12.392009164058862 34.05312168257113 190.8777611143915 0.6820165104014073
2.01705141452246 12.339884961073096 31.46391755149044 201.2315499170916 0.7005117371251239
2.0269412371216196 12.285660742186257 29.11654747714712 212.2616984484786 0.7199600565886489
2.035801978000392 12.229343403795884 26.983710226420406 224.02255687624174 0.740428901205583
2.04360930594274 12.170927667848948 25.045737952809244 236.5750509885506 0.7619955805212769
2.0503286564510237 12.110389334662292 23.284021261327904 249.98491113127713 0.7847400477056788
2.0559531461021923 12.047769504379035 21.682625779610458 264.3259227196064 0.8087538935890071
2.0604678875636817 11.983106081230446 20.224648144705565 279.6786823879423 0.834134442080243
2.0638465810319517 11.916391189808047 18.89642492852472 296.13265159047535 0.860989336674941
2.066076788739571 11.847656543921845 17.68785296354905 313.7856323283743 0.8894323872509571
2.067140375260443 11.776936410685236 16.58716879697457 332.7485336485807 0.9195964122708408
