M[M_sun], R[km], Lambda[1], P_c[MeV/fm^3], rho_c[fm^-3]
0.24162668629717493 15.618656898711224 2160425.4255784233 3.5677272577965504 0.1711233750220791
0.25364390934679465 15.277268139914236 1723114.7726472549 3.7848176058155456 0.17388814812175324
0.26603965580639416 14.981267677179705 1383164.383828429 4.011397281489635 0.17666661033143247
0.27881459005604925 14.723515862755997 1116476.0280360046 4.247722439210295 0.17945744723264206
0.2919689505838545 14.498439257825531 905853.3987328061 4.494418199444631 0.18226722390540892
0.30550434969981816 14.301225094583206 738657.151138411 4.751639497706926 0.18509163350403743
0.3194204002187077 14.128141373283254 605092.9864267581 5.0200697394147396 0.18793731942169886
0.3337180348968167 13.975962027915983 497689.8849873238 5.299931407337871 0.19080087393463982
0.34839883588075493 13.84204492350985 411016.49836081616 5.591954959885833 0.19368863098111433
0.36346083300244997 13.724004554069962 335737.08586360305 5.8963053535063 0.19659561066292822
0.3789144810802038 13.620018364963375 283315.3101813758 6.213847628956159 0.1995295139304215
0.394747076081492 13.528446402213167 236396.5377156475 6.54484054238545 0.20248654300378185
0.41097109337290083 13.44790149758762 197872.86671677514 6.889983825824422 0.20547036404808813
0.42757854495651204 13.37707018961796 166089.26583449508 7.249983753235692 0.20848407229520266
0.44457304469659237 13.314939766780153 139805.05558265373 7.625101298542622 0.21152324648768958
0.4619548922712061 13.260572886018508 117985.13266918453 8.016281462788196 0.21459398677649733
0.47971863962088906 13.213162453156015 99817.52649832328 8.424231059348617 0.21769797014614045
0.4978747388566702 13.171998726351251 84645.16622045345 8.849393760665098 0.22083270524399984
0.5164133702761727 13.136416675178275 71942.48054653418 9.29263724857574 0.22400152067043724
0.5353301805464871 13.105861096837087 61278.91093189541 9.754848926466916 0.22720737410558026
0.5546366672669706 13.079826946051304 52302.08188196674 10.236838321876379 0.23045161638842637
0.574319464908029 13.057845788392314 44731.824491375475 10.739080310403184 0.233730991617028
0.5943765771143101 13.039519208815646 38330.94101969566 11.262812178088627 0.2370515950824471
0.6148120702059249 13.024506869640302 32903.61202627667 11.808974964881324 0.24041508698998357
0.6356156826562074 13.012437489664878 28294.284987194114 12.37854760251369 0.24382310015804165
0.6567846302394053 13.003024029113375 24371.677382519643 12.972224291007336 0.2472736441775555
0.6783161074734648 12.995981336416312 21029.623909781105 13.59132140409653 0.2507713884433228
0.7002041978825406 12.991068581655254 18174.262320442016 14.237041482385335 0.2543190263492503
0.7224377417309542 12.987995797809122 15730.75953713295 14.910574117744506 0.257918542332545
0.7450244424222799 12.986643562902966 13634.851135230163 15.612954774777652 0.26156989163238925
0.7679447676013375 12.986752590200169 11837.454048276184 16.34543799710787 0.26527485373047643
0.7911883631255276 12.988136273580322 10289.71152832186 17.109645238415176 0.26903817547919007
0.8147610434878594 12.990674264558452 8956.950113138731 17.907031417407868 0.27286228920681327
0.8386445919241317 12.994126077943697 7808.12474498232 18.738966460184184 0.27674831801892025
0.8628241523655805 12.998402131820026 6815.218503984666 19.606785472208667 0.2806966600532772
0.8872993769718954 13.00334791484021 5955.898932014556 20.51257853601802 0.2847137156838198
0.912059128589895 13.00884342078699 5211.6247080056 21.458139602923055 0.28880249790787665
0.9370784009941049 13.014738092124 4565.667680040713 22.444958530821097 0.2929629752822263
0.9623568969555832 13.020930785880095 4005.081702851254 23.47504902154341 0.29719885450885014
0.9878809109997504 13.027332514885844 3516.8244906599903 24.550838725028605 0.301516280603973
1.0136222548126232 13.033782244914503 3092.1132487036016 25.674276437069377 0.30591693432007416
1.0395872056181907 13.040244811023843 2721.6904774502764 26.847310059897616 0.3104019778827519
1.0657361625654798 13.046569429389239 2398.5000287477296 28.073042394767896 0.3149801933878271
1.0920679344517445 13.052699282065664 2115.9080481756564 29.353535072638383 0.31965207316265604
1.1185640587619292 13.05853454843879 1868.7937253035595 30.691530003742514 0.32442220882765826
1.145194040384177 13.063995929034219 1652.2473113107494 32.090441256639075 0.3292987550908832
1.1719570968405781 13.069002880539974 1462.2381532251081 33.55219281805467 0.3342792995614358
1.1988118682046733 13.073458119743817 1295.5497401486557 35.08133467296121 0.33937746166636523
1.2257577953981684 13.077327587330974 1149.197342398931 36.679899504664476 0.34459006160191674
1.2527527292519265 13.080489157698063 1020.3004344601428 38.35292912649806 0.34993147294731036
1.2797936496557933 13.0829308994486 906.8242518676119 40.1026558160387 0.35539823605220194
1.3068372961489771 13.08452503827518 806.8312757210806 41.93456962426535 0.3610050215379468
1.3338734906406862 13.085236346125235 718.691336103218 43.852126095548165 0.36675360308887456
1.360880867436617 13.085035215552486 640.7012190954132 45.86004679554038 0.3726519208280516
1.3878115362393055 13.083776436821625 571.8771135441631 47.963647414606626 0.37870983750561377
1.4146679029517069 13.081486362141735 510.88035008543704 50.16766272536473 0.38493289604225933
1.4413910790303528 13.078038288953962 456.9348296560457 52.47735244851844 0.391328277882257
1.4679858758501136 13.073438771533697 409.07132959604945 54.899111316342115 0.3979075665905083
1.4943939156674395 13.067577983995337 366.5871886964997 57.43912768037567 0.4046798206472652
1.520605403093792 13.060435253240643 328.87343828885014 60.10402786549909 0.41165480841133584
1.5465881841506461 13.051950390020172 295.32250130822393 62.90091559561261 0.4188430665661407
1.5723041228245478 13.042071356997289 265.50169514407906 65.83741519387043 0.42625596333697896
1.5977284435093881 13.030746392243012 238.94894665526292 68.92171894062037 0.4339057670379639
1.6228152872058923 13.017929154371872 215.26684810049696 72.16263901983272 0.4418057205754776
1.6475679964651138 13.003590729405031 194.12120829712097 75.56966453880948 0.4499701226107657
1.671916904450195 12.987660413954492 175.25628542286879 79.1527507217017 0.4584132742579416
1.6958536553397692 12.970116988199427 158.38609214681347 82.9220475205449 0.4671482778919231
1.7193341100002268 12.950908496754352 143.2992020355655 86.89030842250976 0.47619676000593003
1.7423200532691994 12.929971078087659 129.7954283966126 91.06913797175208 0.48557317617847606
1.764800222611651 12.907328432718591 117.69416895832727 95.47256365428986 0.4952992074745665
1.7867271264626268 12.882894585357151 106.83503225509183 100.11431220532099 0.5053926150318109
1.8080665986741375 12.856643726970924 97.09681427830732 105.01087462056965 0.5158789732462511
1.8287782582997936 12.828513831781898 88.34054593776516 110.17878765849886 0.5267808132600073
1.8488582457902658 12.79855420814226 80.47361833116263 115.63564733561009 0.5381213908979544
1.8682450589883433 12.766650246127382 73.39101918379328 121.40171852474477 0.5499302572839544
1.8869167843254175 12.73280477493141 67.01937979214846 127.49838805693254 0.5622370903353323
1.904839643231715 12.696996032491057 61.2646866119808 133.9481221683885 0.5750712911549316
1.921982448208468 12.659184068764322 56.08199465868151 140.7765255877538 0.5884688934545701
1.9382979633882707 12.619301014126824 51.39952260858773 148.01130915775585 0.6024682989458405
1.9537956055959267 12.577465353315365 47.16826598311748 155.68101616500326 0.6171054410312237
1.968413412399003 12.53354426115329 43.344182778863235 163.81923276145173 0.6324277284040453
1.98213116636306 12.487549788417356 39.88542871493535 172.45967513878858 0.648476551690625
1.9949214328355191 12.439481908707826 36.74906107727976 181.64171694523043 0.6653053849874768
2.006761090064411 12.389327413568637 33.908292191994214 191.4073016954075 0.6829684718547839
2.01760947478698 12.337062242913204 31.332622354990182 201.80244905679032 0.7015250267835328
2.0274491138064357 12.282682644365503 28.994825365102688 212.8771429467682 0.7210378700707097
2.036261245902813 12.226225503719988 26.8727088650893 224.68675069383443 0.7415769760315042
2.0440098861926503 12.167638982022158 24.946123257979423 237.29251907018968 0.7632197895308434
2.0506724530362606 12.106941253719745 23.190630102753023 250.76124084464897 0.7860487108578913
2.056248485407715 12.044202936864409 21.5967527592032 265.1659583355967 0.8101517616590556
2.060698202439951 11.979362301458286 20.144718282659056 280.5885027143531 0.8356289852187667
2.0640061334012128 11.912472113334925 18.82295376911121 297.11844696442387 0.862586901056598
2.0661707827204174 11.843583006046703 17.62082219132719 314.85619284105803 0.8911461440687167
2.067168317054813 11.772700012499824 16.526073020059062 333.91115293926407 0.9214326765711015
