M[M_sun], R[km], Lambda[1], P_c[MeV/fm^3], rho_c[fm^-3]
0.24162668629717493 15.618656898711224 2160425.4255784233 3.5677272577965504 0.1711233750220791
0.253644317777155 15.277260428257069 1723131.3488342445 3.7848250825022287 0.17388824131504588
0.26604053202661854 14.981261822514433 1383093.9282894817 4.011412999004899 0.1766668002683286
0.2788161852357052 14.723494018025447 1116442.8506509648 4.247746929330597 0.17945773128113174
0.2919708605593679 14.49839117320195 905832.844778538 4.49445210483876 0.18226760144984158
0.30550606509828154 14.301215587731319 738623.6136403722 4.751683969653474 0.18509211388593613
0.3194241646059705 14.128098496738561 605101.239527101 5.020125105535204 0.18793789386656803
0.33372105257712575 13.975986477809112 497683.63614285184 5.299999125307784 0.19080155574223243
0.3484028601002675 13.84201196135015 410997.1626316663 5.592035198810698 0.19368940731478537
0.3634663042295089 13.72395130029147 340632.95074097894 5.896399916107166 0.19659649881488714
0.3789194726479739 13.619988945128533 283290.37136527034 6.213957659614041 0.19953051727753585
0.3947515224563565 13.528447450168589 236406.50813157062 6.5449659268907014 0.20248764245650674
0.4109769367007478 13.44788120223449 197866.4038493543 6.890126984768482 0.20547158324973008
0.42758544196686304 13.377048226911215 166075.21795043215 7.2501460300485885 0.20848541476968777
0.4445814619865326 13.314934100727948 139799.65719391135 7.625282244736139 0.211524686935738
0.46196312738744055 13.260557789106567 117976.11106446812 8.016484234560004 0.21459555538008618
0.479728492223871 13.213137151710155 99806.78768169883 8.424457237932959 0.21769967069290286
0.4978856677704558 13.171996695977358 84641.00321124546 8.849642512129769 0.22083450631088739
0.5164243867559051 13.136391427953662 71935.83611274346 9.292912598576114 0.22400345915160597
0.5353434381220717 13.10583481618946 61274.1685509007 9.755152742006935 0.22720945418758617
0.5546503068919717 13.079798733216393 51810.301146807695 10.237172583409507 0.23045384243984116
0.5743331444176972 13.05783265083954 44727.038711105095 10.73944356557564 0.23373332382775755
0.5943910687475589 13.039514704084201 37990.40806718958 11.263209889846433 0.23705407999270697
0.6148277154767426 13.024497682484398 32898.4441059147 11.809409482790386 0.24041772958384777
0.6356327069872857 13.012434767260341 28290.354531481 12.379021422726552 0.24382590568268087
0.6568036384038556 13.003011191367579 24369.41176049839 12.972735237661661 0.2472765645391081
0.6783358538702783 12.995985910047002 21026.742130345738 13.591876732906517 0.2507744803653553
0.700224919204498 12.99106019982525 18171.500243272967 14.237644171030125 0.2543222959645625
0.722459129399239 12.987991065223406 15728.57287165654 14.91122733522892 0.2579219961396173
0.7450466180197494 12.986657440012177 13633.005894521015 15.613655520174584 0.26157347337803555
0.767967579558366 12.98676273191566 11835.580308526218 16.346195760185235 0.26527863098936355
0.7912130183317777 12.988139271066746 10288.221071313714 17.11046382235518 0.26904215597569453
0.8147889508077873 12.990662349962072 8955.848466779778 17.907914877544204 0.27286648116198975
0.8386726408345445 12.99412438697397 7806.95139450178 18.739910877977273 0.2767526571300246
0.8628522125358574 12.998404943636015 6814.093755702817 19.607803127660357 0.28070122563148725
0.8873335816878619 13.003362491257818 5954.979250226758 20.513674327240782 0.2847185176108631
0.9120895365830339 13.008853129668719 5210.856179807806 21.45931876344718 0.28880754673177145
0.9371094986832668 13.014736492118555 4564.957199184002 22.446216148628867 0.2929681987106208
0.9623939856097629 13.020954272271354 4004.31228439966 23.47640087919698 0.29720434480445734
0.9879151521925336 13.027332650356627 3516.334834511647 24.552291185797934 0.30152205054109404
1.0136571836310049 13.033797927837538 3091.661418010973 25.67582387859115 0.3059229061949271
1.039621618212305 13.040245775380985 2721.2503988989474 26.848971400378076 0.31040825412793027
1.0657733985494526 13.046581156382304 2398.0030609360315 28.074825411119697 0.31498678954062737
1.0921059595587563 13.052700149255589 2115.6613620774183 29.35543344543518 0.3196589061391177
1.1186047962325973 13.058541256848446 1868.466847090485 30.693566398120485 0.3244293923407816
1.1452344663343537 13.063995102234966 1651.9477888009358 32.09260902612162 0.3293062033333085
1.171999011224947 13.069011662791938 1461.9630488032456 33.55451739085235 0.33428713361143747
1.1988546139567797 13.07346291463711 1295.3844851341526 35.08382702083816 0.33938570318511724
1.2258019048870923 13.077329978390297 1148.9586315253316 36.68255239489726 0.3445986194151491
1.2527969741175782 13.080493470724491 1020.082766601987 38.355755051668325 0.34994037620552426
1.2798414302204708 13.0829311352668 906.6368863729049 40.10568342426597 0.35540760246059855
1.3068838273225993 13.08452778244287 806.6666079148318 41.93779339975315 0.3610147674996462
1.333921370207535 13.085236141819669 718.528853920562 43.85558218289815 0.3667638763678355
1.3609306278800501 13.08502903532844 640.5619809773134 45.86372795297055 0.3726626251338111
1.387861043078869 13.0837725704277 571.7627366888171 47.967569365726604 0.3787210006445346
1.4147178450896651 13.081483975367961 510.76125120124095 50.17186847650331 0.384944681020433
1.4414410079685525 13.0780302787305 456.8235403766201 52.48183532303977 0.3913405861761046
1.4680368708399523 13.073429853442653 408.9798115329294 54.90389116431089 0.39792043308160335
1.494445332424902 13.067565403081797 366.5003388144829 57.444225959757965 0.4046932829137394
1.5206573606836096 13.060416876315225 328.8052912104486 60.10946778612279 0.41166890694932495
1.5466410241271398 13.051930623377347 295.26484444467474 62.906722277495255 0.4188578450331837
1.5723584879047405 13.042048762360604 265.4383006983107 65.84361584150997 0.42627146881971495
1.5977815192301608 13.030721535443785 238.89597721892957 68.92834303504571 0.43392205034676457
1.622868344014494 13.017899130068567 215.2104758004915 72.16971853042773 0.44182283656895743
1.6476201512229247 13.003558598953752 194.08015258824634 75.57723415717629 0.44998813055347314
1.6719690197107206 12.987623678104105 175.21384974049323 79.16080859341213 0.45843207318045404
1.6959065162786284 12.970070785564838 158.34757139919392 82.93067226425569 0.4671680975278512
1.7193868692943823 12.950862174575786 143.26560960137252 86.8995444369153 0.476217675034353
1.7423674552978907 12.929913325522358 129.7769314865463 91.07898910124364 0.48559509131552436
1.7648517143555191 12.907274482331035 117.6673786162255 95.48312480014687 0.49532238098676606
1.786778314146387 12.88283473594815 106.81361331363865 100.12559256348943 0.5054169575553539
1.8081178824900999 12.856578133234922 97.07786853103963 105.02293268642421 0.5159045785743679
1.8288266835551759 12.8284441700708 88.32078119955091 110.19168723639716 0.5268077828460047
1.8489061029449543 12.79847750726141 80.45516662720597 115.64951078185793 0.5381500279939949
1.8682827007418226 12.766537411912116 73.3792103520762 121.41657106331193 0.549960491609629
1.8869613725319525 12.73271719186985 67.00180586771974 127.51430606017873 0.5622690266554305
1.9048844598265893 12.69690090275591 61.25112095376357 133.9651523785918 0.5751049140777063
1.9220262801557002 12.659082934853222 56.06924689180122 140.7948173193587 0.5885045327037305
1.938340912184865 12.61919508621499 51.38775697378308 148.03097195224908 0.6025061213093332
1.9538360144701543 12.577351574783066 47.156806226516515 155.70210557043126 0.617145407565589
1.9684520179876308 12.533420181740729 43.33748571412623 163.84187658085784 0.6324700272468792
1.982167492970312 12.487420489708507 39.87606942010749 172.4840818695012 0.6485216160503092
1.9949571150837446 12.439344976747005 36.74046141204831 181.66797506486745 0.6653532145164851
2.00679328732635 12.389183608148688 33.90046311461978 191.43558172329017 0.6830193112000765
2.0176410589180462 12.336909793487601 31.32578828535874 201.83293909578427 0.7015791435951526
2.0274753594868047 12.282524576085127 28.988579223576924 212.9099738320621 0.7210953057403219
2.0362863462473095 12.226059081712615 26.867655239977505 224.72222630952612 0.7416382964777819
2.0440313838967894 12.167463285375815 24.940221791388375 237.33081224719166 0.763285082915303
2.050690213647029 12.106757080727297 23.18559983100071 250.80262824573302 0.7861183500898484
2.056262428953849 12.044011631300936 21.591637394618996 265.2108320967607 0.810226434204743
2.0607090067238567 11.979162161058488 20.13967140835798 280.6370334034235 0.8357085868442612
2.064015234192359 11.912265156938442 18.819968800333196 297.1710992131178 0.8626722071337708
2.0661756508531677 11.843365451523855 17.617216635891715 314.91338945546477 0.8912377045986737
2.067168467225282 11.772471581112198 16.522439231146546 333.9732711662404 0.9215307873486417
