M[M_sun], R[km], Lambda[1], P_c[MeV/fm^3], rho_c[fm^-3]
0.24162668629717493 15.618656898711224 2160425.4255784233 3.5677272577965504 0.1711233750220791
0.25364192600934427 15.277374844060597 1723227.796787612 3.7848023792982852 0.17388795833056112
0.26603782537998316 14.981285815601215 1383104.2865592348 4.011365272391338 0.17666622352037004
0.2788111923486943 14.723617324319457 1116580.9295445236 4.247672564695612 0.17945686876343103
0.29196510758514505 14.498494676785107 905975.4824168339 4.494349150853534 0.18226645503332173
0.3054986837033937 14.301308635250757 738707.6759875594 4.7515489306199195 0.18509065520664786
0.3194142884322252 14.1282251939082 605135.9733079461 5.019956986783482 0.18793614956963103
0.3337107215428089 13.976034394039727 497723.9871465854 5.299793500816833 0.19079948544480127
0.3483907638154907 13.842105857357518 411055.5647576021 5.591791555251365 0.19368704999632477
0.36345163790367857 13.724074952500885 340691.23680110974 5.896112779796424 0.19659380196989212
0.3789043424092286 13.62009610036407 279439.90803731757 6.213623555903887 0.1995274706539863
0.3947346705899161 13.52852060973763 236430.91692400433 6.544585202730267 0.20248430401995288
0.410956943116044 13.447955145829852 197905.8403630525 6.889692290457279 0.20546788121056347
0.42756425091905337 13.37712013165967 166113.11425197724 7.249653286610214 0.20848133842950142
0.4445567986342196 13.314997687551578 138206.71561037164 7.624732814120829 0.2115203131147574
0.4619357127677241 13.260637844128016 118004.5994028162 8.01586853360424 0.2145907924354205
0.4796988325173806 13.213219220698564 99833.32440995827 8.423770465671385 0.21769450712558583
0.49785356332252045 13.172046981407066 84665.56740969524 8.84888720084552 0.22082903753446972
0.5163892096338968 13.136464313745197 71955.89723121042 9.292076525275554 0.22399757314344693
0.5353056283813873 13.105898800387237 61293.722562584204 9.754230238114086 0.22720313823762597
0.5546106027550217 13.07987860218275 52314.17351391908 10.236157635911677 0.23044708328543792
0.5742907777063748 13.057888410804859 44742.30805000816 10.738340584440492 0.2337262423472091
0.5943451205101804 13.039553530770903 38336.43738471519 11.262002288272447 0.2370465348762196
0.6147790813162739 13.024555431043595 32912.25783000524 11.80809012713032 0.24040970570013825
0.6355780993289403 13.012473829639712 28302.980838886808 12.377582734295205 0.2438173871017239
0.6567486273431788 13.003045814704162 24379.11242330607 12.971183823125113 0.24726769728980466
0.678278136671332 12.995998776435494 21035.46591915542 13.590190562469889 0.2507650922201163
0.7001633699517291 12.991058326366229 18042.579846489905 14.235814204094018 0.2543123683046226
0.7223934804247274 12.988005252757064 15735.159299156172 14.909243950333734 0.25791150923603384
0.7449793924840074 12.98664708096621 13542.720173207112 15.611527828964743 0.2615625980319242
0.7678962407149122 12.986762840534023 11839.957897482589 16.343894950205566 0.265267162028678
0.791138848495923 12.988130235424618 10293.039112003407 17.10797834680309 0.2690300699497373
0.8147107516912616 12.99066559483145 8959.961833547803 17.905232424098596 0.27285375311219495
0.8385885735628821 12.994116926603489 7809.863998050832 18.737043344175248 0.2767394822959061
0.8627668491229022 12.998386117742374 6817.283234370478 19.604713229945514 0.28068736320913723
0.8872394593135419 13.003326812373711 5958.049700137089 20.510347194669457 0.28470393760005547
0.9119977744746354 13.008830230445685 5182.6476034322 21.455738506776626 0.28879221710950387
0.9370133800516627 13.014726417284301 4567.299795422053 22.442397681540307 0.2929523389722404
0.9622904979144138 13.020920397475193 4006.5751373126004 23.47229628459785 0.2971876748261964
0.9878117699155717 13.02732009366697 3498.8098753969207 24.54788114466919 0.30150453154123436
1.0135513260682631 13.03376853034278 3093.454726837748 25.671125461114716 0.30590477409702144
1.0395129107946046 13.040216304164892 2722.686205288198 26.843927170004683 0.31038919793389186
1.0656603550626431 13.046544326061186 2399.402693845202 28.0694117571937 0.31496676208071794
1.0919883358856286 13.052681469706046 2116.6814160799754 29.34966955425989 0.31963815966993386
1.1184843322844868 13.058516061259898 1869.4720928427619 30.687383458037353 0.32440758161899386
1.1451124138803446 13.063975466520231 1652.8865402850502 32.08602721621435 0.32928358888274933
1.171872683359373 13.068989682563355 1462.8617102814521 33.547459511294186 0.33426334782962863
1.198725084876633 13.07345013734405 1296.0065033562396 35.07625976195032 0.33936068031146366
1.2256687577970642 13.077316263744315 1149.5854526434066 36.6744977153619 0.34457263626580564
1.2526613452807795 13.080486342866866 1020.6911904750502 38.347138314332916 0.34991312892384346
1.2797010935131476 13.082924444717367 907.1900201290139 40.09649107537353 0.35537916440409073
1.3067421302791091 13.084517277317733 807.1953635942606 41.92800547501848 0.36098517712030925
1.3337773762700211 13.085228051321897 718.9188066186211 43.84508895013734 0.36673268505337
1.3607822461005956 13.085035200663231 640.9583837624033 45.85255139789287 0.37263012522986544
1.3877122534087316 13.083781098462255 572.1173316293276 47.955661752911794 0.3786871077346026
1.414566933418481 13.081496486457526 511.10617167112474 50.15909924366456 0.38490890022282026
1.4412879662006728 13.078053585567476 457.10274929812607 52.468224739860126 0.3913032166141382
1.4678809207026664 13.073460243903948 409.2422312533258 54.88937896853138 0.3978813688605264
1.4942886029502027 13.067602222645615 366.73898852265364 57.42874700798849 0.40465240995291546
1.5204991340943697 13.060464882330589 329.01961576480045 60.09295161684088 0.41162610231003643
1.5464815429212972 13.051989623416828 295.45204411648706 62.8890926304401 0.4188129761798092
1.5721965571234873 13.042117037905403 265.614682857354 65.82479012862034 0.4262243928071478
1.5976199631704335 13.030799009634109 239.0532768790636 68.9082317574913 0.43387261292607476
1.6227005795815668 13.017959816518928 215.3603842576074 72.1482246356219 0.44177087120236663
1.6474594608432565 13.003659800063929 194.21071011470602 75.55425232889452 0.44993345732862144
1.6718080004899942 12.987737760389786 175.33775131170256 79.13634445998115 0.4583749986370474
1.695746052341977 12.97020028681334 158.45679046927555 82.90448715864079 0.46710792423141156
1.7192109108902616 12.950964757996726 143.3647841259744 86.87150357605229 0.4761541762808643
1.7422141418872035 12.930077621291481 129.86187669440864 91.04908081292515 0.4855285563828609
1.764694694720636 12.907439827684616 117.74944614941549 95.45106099143393 0.4952520258309493
1.786623153445188 12.883020112225 106.88334422247648 100.09134531626417 0.5053430534816165
1.807963138922246 12.856777018222477 97.14131733187877 104.98632442541533 0.5158268408553817
1.8286761878231488 12.828659222405719 88.38467394647039 110.15249281871247 0.5267257864431449
1.8487581686147894 12.798706506197034 80.51246187242221 115.60742168060808 0.5380630864346451
1.8681476155037584 12.766818711945037 73.42655520811336 121.37147925280448 0.5498687012077409
1.8868210556821543 12.732985666635601 67.04854711493233 127.46596541643129 0.5621720183545511
1.9047472872388553 12.697187504535991 61.293702823853906 133.91344957288752 0.5750028366856673
1.9218940078082833 12.659392336223876 56.108048913660234 140.73928480884902 0.5883963342553111
1.9382123041400063 12.619521273949147 51.42364757974663 147.97127721297707 0.6023912955083451
1.953714940847706 12.577705447865856 47.193124329526114 155.63807997628675 0.6170240726556327
1.9683353817228668 12.533792139125136 43.3644779981547 163.77311790833073 0.632341563837862
1.9820589755532467 12.487818076971404 39.90165534450903 172.40998575185554 0.6483848056705783
1.9948553849136805 12.439758592749346 36.756567859441056 181.5882586528957 0.6652080099667479
2.0066907060759154 12.389606419534463 33.9248112878962 191.3497274010842 0.6828649698553791
2.017550778298454 12.337370155824734 31.346749878575256 201.7403758759242 0.7014148530105098
2.027394010705188 12.283007995217343 29.008083475056626 212.810304556702 0.7209209403061028
2.036213045043 12.226565267555753 26.88618972007753 224.61452855504638 0.7414521383452438
2.0439659345879346 12.167995554872045 24.956571048142354 237.21456138447115 0.7630868645153783
2.0506349215254285 12.107315077005069 23.20053501446203 250.6768491697219 0.7859064988335827
2.0562104421917153 12.0445725737642 21.605499832726593 265.07460514925646 0.8099997446494771
2.0606751985144305 11.979768765702389 20.15319454162236 280.4897055092809 0.8354669348076003
2.0639960512948266 11.912912648643738 18.83222773873437 297.0112600530202 0.8624132390542537
2.0661608427776614 11.844024037679857 17.62793167873522 314.7397556673147 0.890959751054983
2.067165210691886 11.77315952808269 16.532238603362853 333.7846976688852 0.9212329505727138
