M[M_sun], R[km], Lambda[1], P_c[MeV/fm^3], rho_c[fm^-3]
0.24162668629717493 15.618656898711224 2160425.4255784233 3.5677272577965504 0.1711233750220791
0.253645286260624 15.277286210093669 1723110.8469364329 3.7848508317257776 0.17388856226669558
0.26604288004227744 14.981204772713529 1382868.2365958751 4.011467129444168 0.17666745440274156
0.2788200377955176 14.723431099392046 1116468.4263987187 4.24783127274764 0.17945870953766663
0.29197761152613255 14.498283955609187 905748.3229819743 4.494568874929174 0.18226890171189927
0.3055136111950281 14.301122024865377 738476.5017361955 4.751837131833869 0.18509376832979882
0.31943300481155495 14.127998618327647 604996.0549823941 5.020315788517511 0.18793987227610634
0.3337340946542772 13.975783597724266 497586.94337920577 5.300232349871615 0.19080390392660065
0.34841671310881683 13.841894970655353 410924.4787818833 5.592311547753245 0.19369208106682548
0.3634826257378185 13.723832396831064 340598.41910358146 5.896725598720571 0.19659955769491402
0.3789361263275617 13.619907609724635 283231.90214227856 6.214336617820791 0.19953397292008604
0.39477401668467316 13.528315345446048 236347.76627129587 6.545397767726018 0.20249142911724408
0.4110004933422497 13.447748210625223 197805.28458275032 6.890620045841376 0.2054757823647319
0.42761113062672806 13.376942505822097 166031.86061921788 7.250704939017172 0.20849003848034875
0.4446100912884195 13.314810469358884 139752.61087627173 7.6259054572864615 0.21152964810836292
0.46199131153366413 13.26046642051762 117934.7304795197 8.017182622248843 0.21460095797348155
0.47976181753859437 13.213085205150035 99776.92617148899 8.425236247676521 0.21770552775713878
0.49792156785669495 13.171903123737481 84613.88021891528 8.850499271970607 0.22084070961820035
0.5164641503701284 13.136317278741402 71913.74253408222 9.293860975186812 0.22401013578206966
0.5353858374217217 13.105771598276794 61253.90027780708 9.756199166818009 0.2272166185657477
0.5546961390454428 13.079758924196112 52285.03822492591 10.238317790289745 0.23046143133296654
0.5743820091865875 13.057786236066624 44710.2503722938 10.74069472916713 0.23374135668557688
0.5944416734634663 13.039481075092315 38308.85023704214 11.26457973975762 0.2370626388397413
0.6148818707299462 13.024472981262003 32887.41938135885 11.810906112968583 0.24042683159240352
0.6356899797175243 13.012408453312593 28278.944627783763 12.380653432144989 0.24383556893154737
0.6568654031825171 13.002988259786648 24359.13209237864 12.97449513177412 0.24728662337217638
0.6784006994300268 12.995964460595664 21016.605557318864 13.593789505909047 0.2507851301729709
0.7002930312776637 12.991046950176107 18163.14618975061 14.239720080879215 0.25433355787680867
0.7225320935182685 12.988002078319223 15720.92450754694 14.913477299056586 0.25793389254650445
0.7451238054173779 12.986641778941209 13626.825753765843 15.616069201079567 0.261585810513764
0.7680482813475491 12.986750944145214 11829.35600439222 16.348805849065972 0.26529164162780117
0.7912987646881505 12.988149040156195 10284.1959599405 17.11328342129438 0.26905586673053955
0.8148750900458077 12.99068532390723 8951.001382444501 17.91095795738429 0.27288092035824035
0.8387630278034508 12.994147378176281 7803.144219654538 18.743163940461372 0.2767676032689593
0.8629479315312608 12.998426923799483 6810.018323082318 19.611308476872434 0.28071695192269375
0.8874343823233153 13.00337247871604 5951.748045033342 20.51744883774317 0.28473505810113164
0.9121944618810459 13.008868631628797 5207.948769103984 21.463380465475492 0.2888249377636406
0.9372190724225277 13.014763729591968 4562.836790980919 22.45054812100415 0.2929861912576167
0.9625058213457818 13.020981700427019 4001.8705341610175 23.481057493799955 0.297223256699975
0.9880309696175648 13.02737207077876 3514.311214531737 24.557294365384358 0.30154192579847006
1.0137773615734034 13.033820152837324 3090.1089707246583 25.68115425439347 0.30594347714172065
1.0397454138250888 13.040281665214575 2719.5673027383264 26.854694148254616 0.3104298736389152
1.065901386946503 13.046608163820284 2396.710504015777 28.080967324637687 0.3150095111494391
1.0922381100692713 13.05273494239815 2114.2937719272627 29.361972753866084 0.3196824436343131
1.1187401866981364 13.05857175106475 1867.0782145240157 30.700581187860966 0.3244541374661382
1.1453750393418272 13.064024649780002 1650.9084975139976 32.10007639931425 0.3293318604920917
1.17214213876988 13.069032899515406 1461.0556582762551 33.56252495468937 0.33431411992718263
1.1990021758482707 13.073487628794522 1294.4935279368774 35.09241257731451 0.3394140932928349
1.2259528989960107 13.077354970405182 1148.1969561638784 36.69169102577434 0.3446280992237289
1.2529516936483027 13.080511971363418 1019.4125358939581 38.3654838506877 0.3499710112609699
1.2799978247564645 13.082947026450842 906.0299934567386 40.11611299063386 0.35543986805464783
1.3070510597260327 13.084550482774336 806.1420795394491 41.94889878236445 0.36104834075373826
1.3340850995005982 13.085235652327308 718.0104523049632 43.867487916090234 0.3667992663640741
1.3610951654353765 13.085031149757247 640.1194278345736 45.87640908612217 0.3726995001464143
1.3880377112496527 13.083779384266295 571.3206780699082 47.98108007428118 0.37875945648243253
1.4148825526615219 13.08145063929916 510.4222702252297 50.18635694039461 0.38498527929291815
1.4416157207880664 13.07800334860663 456.5155050821333 52.497278538117264 0.39138298745863476
1.4682116350543508 13.07339580566497 408.6841732968744 54.92035752537905 0.39796475756418837
1.4946232185461297 13.06751927613403 366.2248633804216 57.46178940237744 0.40473966007886086
1.5208358209783714 13.06036612805944 328.5752827964513 60.128208282758756 0.4117174763351733
1.546821170101837 13.051867232991341 295.04052349866726 62.92672638317795 0.41890875707254305
1.5725393042551161 13.041973971773817 265.2402058832981 65.86497729452476 0.42632488576262023
1.5979523783398994 13.030627544504755 238.71464686342009 68.95116341883505 0.4339781472759946
1.6230621259420537 13.017810606427574 215.04347326284957 72.19410800365404 0.44188180251852643
1.6478043358519538 13.003444941950866 193.92463978965208 75.60331225975166 0.45005016974149287
1.6721520025702896 12.987499093747353 175.09262471466764 79.1885689321101 0.4584968377330375
1.6960887192920693 12.969934160243081 158.22411975371844 82.96038574790566 0.4672363790267391
1.7195693472919606 12.950704071090698 143.1562928626314 86.93136405847385 0.47628973082163145
1.742546153379227 12.929737375516511 129.6647258843536 91.11292810404818 0.48567059310426663
1.765029966323336 12.907082795857814 117.57080166602564 95.51951021095726 0.4954022187025515
1.7869405054050524 12.882599779521684 106.72943626953963 100.16445606660133 0.505500823309024
1.8082901949219439 12.856354435609596 97.00160430025812 105.06447585460562 0.515992795579079
1.8289949052112595 12.8281922302225 88.25691679940174 110.23612993941983 0.5269007007159212
1.849074395476823 12.798213312635667 80.39566465928132 115.69727467419227 0.5382486917135056
1.8684455641498763 12.766253372734427 73.31969468079315 121.46774306364068 0.5500646590498522
1.887121269115753 12.732413837801142 66.9478519423047 127.56897893268295 0.5623784500810914
1.905039507332388 12.696575858758205 61.20165641245718 134.02382804144455 0.5752207580548091
1.922175943445387 12.658734930808546 56.02474457711516 140.85783992326398 0.588627324702423
1.9384842801675084 12.618831118262392 51.34693060119965 148.098719004474 0.6026364361349139
1.9539745794786207 12.576955866382708 47.12512215641544 155.7747684921227 0.6172831110758552
1.9685835523629918 12.533000864864645 43.303086393692205 163.9198958172976 0.6326157678289336
1.982292468535207 12.486978010156518 39.8442687012713 172.56817599029426 0.6486768866496926
1.9874475220069505 12.44940759662262 37.991382634116476 184.1438595043471 2.2572521462616266
