M[M_sun], R[km], Lambda[1], P_c[MeV/fm^3], rho_c[fm^-3]
0.24162668629717493 15.618656898711224 2160425.4255784233 3.5677272577965504 0.1711233750220791
0.25364137806273557 15.277355663512216 1723310.7623105359 3.7847897739641225 0.17388780121115177
0.2660371096085103 14.981289131724784 1383124.1140168933 4.011338773667557 0.17666590329893161
0.27880966327311607 14.723611026001622 1116493.6163365883 4.247631276299521 0.17945638988025667
0.29196141126931774 14.498550144487272 906039.3176719727 4.4942919895639 0.1822658185290952
0.3054956920287019 14.30133745477557 738760.1261149236 4.751473955799595 0.18508984533549677
0.31940957604920966 14.128276428059511 605194.493211723 5.019863646379749 0.1879351811269162
0.3337052528622539 13.97611154222666 497737.8555651621 5.299679337735074 0.19079833601199878
0.34838392976844157 13.842169322816142 411090.2656418272 5.591656284692201 0.1936857412164532
0.3634434369828445 13.724148071970339 340732.0677261456 5.895953363082618 0.19659230469437988
0.3788954951521694 13.620155418628515 283373.3862896031 6.213438064221387 0.19952577919318842
0.3947234926848477 13.528605045320038 236469.23270010733 6.544373828903325 0.20248245055704267
0.4109461166878616 13.448022244447248 197928.5434578169 6.889450954415124 0.20546582589155576
0.4275506337444332 13.377215138499414 166140.65234291676 7.249379724118287 0.20847907531711377
0.4445439235243882 13.31505212252083 139853.9653381333 7.624427781494941 0.21151788485892
0.46192112305191596 13.260676160416455 118024.76222688625 8.015526710999495 0.2145881481612211
0.4796822019097756 13.213265008501404 99847.83878187466 8.423389188131926 0.21769164045150532
0.4978356476452052 13.172084851734702 84677.99681746506 8.848467874378922 0.22082600143168715
0.5163702923385478 13.136496530169316 71967.2643943814 9.291612364738336 0.22399430542432788
0.5352844973384956 13.105926885969504 61304.78631713107 9.7537180970113 0.2271996318485442
0.5545866751231943 13.07990851856514 52321.64579743436 10.235594176582326 0.23044333086611063
0.5742657925194106 13.057919483844607 44752.26719947514 10.737728255202674 0.23372231100382646
0.5943197777735607 13.039575035968284 38012.91700506846 11.261331881833918 0.2370423461646598
0.6147519614109419 13.024546739499778 32918.50745075205 11.807357683869514 0.24040525122305798
0.6355497115708462 13.0124634010867 28308.35500597223 12.376784047594711 0.24381265801850535
0.6567178258559155 13.003059017996772 24384.829814012606 12.97032256062664 0.2472627746665407
0.678245760858752 12.996001759990909 21039.70549503137 13.589254495845037 0.25075988045193637
0.7001290945541134 12.991079765920542 18182.56403472982 14.234798315368407 0.2543068570587057
0.7223586836388072 12.98800261912268 15739.05026334359 14.90814289916304 0.25790568756345006
0.7449410800992954 12.986653155076548 13642.056680488566 15.610346673350861 0.26155656074791755
0.7678574635029247 12.98675657272474 11842.700712977236 16.342617697371274 0.2652607952436451
0.7910969163802867 12.988129857703058 10295.413012541138 17.10659858786997 0.2690233606492712
0.8146674177515761 12.990643088927149 8961.950327276543 17.903743325345392 0.27284668744508667
0.8385445826684688 12.994114169299198 7812.037544731508 18.735451509792597 0.2767321686405551
0.8627211660214353 12.998379011191151 6819.139398425701 19.602997965784827 0.2806796679006087
0.887191553504308 13.003318995255714 5959.641829160395 20.50850024705123 0.28469584398921866
0.9119469227640363 13.008810789120817 5214.828179656995 21.45375105690658 0.28878370742469994
0.9369609730096707 13.014703023208025 4568.367509761799 22.44027800748789 0.29294353505298604
0.9622343359817246 13.020902466391455 4007.1027005356586 23.470017790940886 0.29717842118644905
0.9877555837013134 13.027300886029513 3519.2939733291064 24.545433109244055 0.30149480665862727
1.0134911998522187 13.03376419939645 3094.0941680249566 25.668517358702523 0.3058947089275206
1.0394508757524445 13.04020375480899 2723.5669339250485 26.841127122376488 0.31037861985815585
1.0656001326666038 13.046540477158773 2399.9833473348203 28.06640666057626 0.3149556449216139
1.091923836144589 13.052666012961767 2117.30233919546 29.346470057666522 0.3196266434466986
1.1184177703448397 13.058502450349879 1870.0545954550134 30.683951370823056 0.3243954747089517
1.1450441216945766 13.063957517946154 1653.2738575804374 32.08237373819665 0.32927103589213363
1.1718023604848784 13.068973353074306 1463.3294767746186 33.54354179709791 0.33425014472885395
1.1986524247301646 13.073435773200442 1296.473117003049 35.072059325578685 0.3393467906071235
1.2255952555295728 13.077306331770982 1149.9443722068952 36.67002674398521 0.34455821360423594
1.2525858293615744 13.08047221725648 1021.0123078371278 38.34234537915326 0.3498979459559101
1.279625512000644 13.082917468490054 907.4990246472703 40.091388668256634 0.35536337926107514
1.3066639975171814 13.084518024811375 807.4348817350141 41.92257250970144 0.3609687524430652
1.3336965231140843 13.08523048513926 719.2023233302433 43.83926452924519 0.36671537186230985
1.360700986773228 13.08503619857905 641.1721064436674 45.84634772298516 0.37261208578593935
1.3876283460823904 13.08378862242864 572.3104401994318 47.94905233285941 0.3786682951915663
1.4144819364933943 13.081511189690895 511.2683550701745 50.15201162315437 0.3848890399290788
1.441210557617351 13.078083608674206 457.28010741506114 52.46067016775063 0.39128247458957904
1.467796023330155 13.07347683124866 409.3991032677436 54.88132400272639 0.39785968634123337
1.4942007775739876 13.067623252181626 366.87766452023277 57.420155497966626 0.4046297236329519
1.5204103056756202 13.060493523423961 329.1364646893465 60.08378446120538 0.4116023439685239
1.5463932722559723 13.052018937933882 295.56975793021513 62.87930751028116 0.41878807227105314
1.572107171992469 13.042152703545892 265.71207323754754 65.81434121399619 0.4261982640098458
1.5975302354325551 13.030842575885357 239.14387684419606 68.89706938400846 0.43384517364717895
1.622618185110285 13.018040731664414 215.44107736565857 72.13629494772084 0.4417420290306387
1.6473696698970846 13.00371358016206 194.27748654259784 75.5414968860301 0.4499031124323295
1.6717176505172158 12.987800376221239 175.39948826449466 79.1227663836459 0.4583433211403006
1.695657434061797 12.970272585719334 158.51646565682725 82.88995401410854 0.46707452710760383
1.7191295978376657 12.951072112779919 143.42448484394598 86.85594057378486 0.4761189337378714
1.7421264463372932 12.930161747157076 129.91330963964546 91.03248147406609 0.4854916289638965
1.7646112783192682 12.907541107852465 117.78841591052839 95.43326546050918 0.4952129784625514
1.786537139784302 12.883119719229919 106.92523248249411 100.0723380998022 0.5053020367330963
1.8078778079035602 12.856886309208008 97.17504316086045 104.96600699117758 0.5157836967411907
1.828592104029471 12.828776401648604 88.41700311726646 110.13067175831961 0.5266800242223567
1.8486757656507506 12.798837133118676 80.5430666384418 115.58406277660461 0.538014834999512
1.8680671342412696 12.766955572467092 73.45524997713783 121.34645407993548 0.5498177591264823
1.8867422491258945 12.733136866371341 67.07192370804896 127.43913351984935 0.5621181669522066
1.9046726821065578 12.697345383393785 61.31741213426382 133.8847558538821 0.5749461863750299
1.9218201830564403 12.65956257290262 56.12976656185176 140.70846596866403 0.5883362874348181
1.938147599719835 12.619731566583475 51.44217059853708 147.93814875848977 0.6023275712778954
1.9536410283939862 12.577865194967728 47.210012202019776 155.60254834339307 0.6169567366545327
1.9682712925803971 12.533995806298032 43.381092831176666 163.7348562143081 0.632269921339938
1.9819979362477789 12.488032392669778 39.91645842631999 172.36886613777955 0.6483088827991126
1.9947968472925675 12.439986782632324 36.77972047124276 181.54402046563618 0.6651274294952575
2.006637438247759 12.389846844838933 33.93882131449058 191.30208346936803 0.6827793197879299
2.0175010938631996 12.337625711061923 31.357138482805095 201.68900942306738 0.7013236826235717
2.027349762635702 12.283279191318274 29.01954193782144 212.75499523571858 0.7208241799580938
2.0361727283052007 12.226847318933824 26.89562933469174 224.5547646405861 0.7413488349963222
2.04393080757619 12.168291958150702 24.966132284830568 237.15005181909157 0.7629768697804565
2.050603567479949 12.107624883942849 23.208716664436203 250.6069880815947 0.7857887288303238
2.0561851822615793 12.044895613326705 21.613303290149915 264.999012225756 0.8098739536329161
2.0606539988122123 11.98010759527319 20.160225844412338 280.4078955529786 0.8353326532732651
2.063980647791217 11.913264046420526 18.837793134927594 296.9225666415023 0.8622695398354104
2.066152187747743 11.844389738734515 17.633672195952357 314.64340893986633 0.8908055188942811
2.067162686269521 11.773537922013974 16.537798482445528 333.68006241830346 0.9210676875526248
