M[M_sun], R[km], Lambda[1], P_c[MeV/fm^3], rho_c[fm^-3]
0.24162668629717493 15.618656898711224 2160425.4255784233 3.5677272577965504 0.1711233750220791
0.2536438464498751 15.277285217937441 1723204.18453346 3.78481730717708 0.17388814439936884
0.2660396994490192 14.981263881105686 1383066.1242870502 4.011396653691792 0.17666660274486604
0.2788145658316585 14.723509075509986 1116415.8608442738 4.247721461013498 0.17945743588703333
0.29196821930275185 14.498446730376822 905880.9892397888 4.494416845180045 0.18226720882535846
0.30550480302414407 14.301204218912636 738642.8798923261 4.7516377213908 0.18509161431643312
0.31942001714573565 14.128160238933981 605112.0338928163 5.020067527962107 0.18793729647702426
0.33371936763691973 13.975976235379346 489732.02532570163 5.299928702527066 0.1908008467016831
0.34839867523874646 13.842046285685754 411017.3173012818 5.5919517549634845 0.19368859997260895
0.36345986899870636 13.724029467400479 340665.7396991184 5.896301576469259 0.19659557518819704
0.37891428480656425 13.620013716969924 283315.20348634373 6.21384323409687 0.19952947385459655
0.39474565404709305 13.528486651168443 236413.33383851373 6.544835534266748 0.2024864990893465
0.41097014767295265 13.44789485300756 197879.04749707502 6.8899781077649305 0.20547031535069402
0.42757851084825954 13.377065847339535 166083.3084573107 7.249977271577919 0.208484018674109
0.4445729676499932 13.314940320082071 139804.20037856992 7.625094071201075 0.21152318895340372
0.46195423273883024 13.260579770884773 117982.81474851818 8.016273363700977 0.21459392412350983
0.4797182248599287 13.213164872562883 99812.6172901412 8.424222025360471 0.2176979022231789
0.49787542351685515 13.17199134649146 83771.91943944531 8.849383825085642 0.22083263330615943
0.5164129046526774 13.13641017581667 71943.78149493164 9.292626250616648 0.2240014432441196
0.5353296088461802 13.105883326363053 61279.59397918971 9.754836791559539 0.22720729102358098
0.5546363384903792 13.079838216568083 52303.584199771234 10.236824970920884 0.230451527476271
0.5743188770948728 13.057845287805215 44732.814392963526 10.739065801409371 0.23373089846479342
0.5943754123432684 13.039526623420025 38331.053875360754 11.26279629286296 0.23705149583126967
0.6148110410699824 13.024510994806281 32903.533386620715 11.80895760958192 0.2404149814408065
0.6356148217150945 13.012437130272176 28293.965328872007 12.378528677444164 0.24382298810130068
0.6567839117157874 13.003035856486 24371.75284832264 12.972203883074549 0.2472735275341804
0.6783163501773455 12.995975237597948 21029.73920027512 13.591299223504487 0.25077126494772883
0.7002033666786401 12.991069825522889 18173.87962122746 14.237017410205945 0.2543188957565023
0.722437219875493 12.987991272915876 15731.085021473598 14.910548027408362 0.257918404383103
0.7450235219329281 12.986656868814027 13635.270140348539 15.612926786144428 0.2615697485730618
0.7679422574103829 12.986762016834268 11837.087573998606 16.345407731155078 0.2652747028622927
0.7911874291074948 12.988136400811124 10289.602441218443 17.109612543245113 0.26903801649364956
0.8147621122199478 12.990667770760119 8898.851547110655 17.906996131052228 0.27286212177557884
0.8386417087255957 12.994125556221743 7808.058858904471 18.738928739151355 0.2767481447102918
0.8628236646118498 12.99839251716583 6815.244319959839 19.606744826037218 0.2806964776995401
0.8872938356924414 13.003354679592926 5955.6372295049405 20.512534769080254 0.28471352389031235
0.9120582223015173 13.00884732696148 5211.73297948746 21.458092506195115 0.28880229625332626
0.9370772339360045 13.014736392024524 4565.666511296023 22.444908300489605 0.2929627666540261
0.9623545369645449 13.020941530060808 4005.0424664508655 23.474995027259574 0.2971986352220202
0.9878791968666307 13.027328226317552 3516.8322188359093 24.550780712648752 0.3015160501483276
1.0136205562541807 13.033785248540521 3092.176251382604 25.67421463114984 0.30591669579912756
1.039584793201047 13.04023693483262 2721.7365757046423 26.847243704857572 0.3104017272053592
1.0657346085849257 13.04656681078346 2398.6023150999 28.07297118000519 0.3149799299334533
1.0920654498669375 13.052704262737983 2115.9047755449983 29.353459250548344 0.31965180024968687
1.1185618204330745 13.058536008891494 1868.7558075753368 30.691448669099287 0.3244219219144339
1.1451934002864916 13.063990349847808 1652.2527626556555 32.09035467489913 0.3292984576045527
1.171955173085705 13.069003085109673 1462.2471334366076 33.5520999736411 0.3342789866661894
1.1988101230579034 13.07345958329804 1295.557810126583 35.08123512767633 0.3393771324970949
1.2257560749207312 13.077326215994725 1149.2217874494531 36.679793547377216 0.34458971980010983
1.2527510178028884 13.080488548235891 1020.2653206236403 38.35281553813691 0.34993111312428327
1.2797920869635264 13.082937265714055 906.8022229664846 40.10253489270195 0.3553978619557959
1.3068344134872112 13.084524835677504 806.8629921270991 41.934440866115146 0.3610046322825519
1.3338718846226632 13.08523329899792 718.6770808206478 43.85198805902264 0.36675319277293345
1.360880818590182 13.08502948050075 640.7112175299881 45.85989976986719 0.3726514932973659
1.3878095699107462 13.083775290696156 571.8774093240271 47.96349077180959 0.378709391649648
1.4146658578184623 13.081486269331807 510.87901325943375 50.16749474784533 0.38493242535073846
1.4413891370150576 13.078035629163463 456.9412719104816 52.47717340293136 0.39132778629015746
1.4679832852754335 13.073439580537276 409.07308591278644 54.89892040991163 0.3979070527047312
1.4943917042974129 13.067577866276004 366.5830668482174 57.438924056111546 0.40467928296702077
1.5206031014780856 13.060433956968943 328.88435926723326 60.103810596446465 0.4116542453192975
1.5465860795772062 13.051950887908339 295.32882361325204 62.900683678529475 0.41884247631872584
1.5723020759332884 13.04207282933753 265.501667026907 65.83716754226768 0.4262553440536598
1.5977263145459273 13.030747429202771 238.95332923998112 68.92145437709138 0.43390511668949916
1.6228131728627018 13.01792908605522 215.26672148744638 72.16235626759413 0.44180503697095336
1.6475654139211373 13.003592344106023 194.12749568434776 75.56936221236245 0.4499694033833128
1.6719144874078704 12.987661454853425 175.25924523413735 79.15242889509844 0.45841252344015815
1.6958524791208565 12.970117995590929 158.38602614443417 82.92170305396075 0.467147486308716
1.7193320581461216 12.950910959996495 143.29999121597965 86.88993954277976 0.47619592467483385
1.7423179806351292 12.929972672330761 129.79500151507318 91.06874452533074 0.485572300905011
1.7647979138134808 12.907329716978488 117.69529211962178 95.47214185109468 0.4952982819441722
1.7867254739809109 12.882895768891341 106.83861499124241 100.11386167807977 0.5053916428135699
1.8080646808480807 12.856646253099454 97.10130321451453 105.01039303314548 0.5158779505943464
1.828775563045673 12.828516583384458 88.34018608673189 110.17827246273548 0.5267797361227121
1.848856115024738 12.798557039404042 80.4757789019178 115.63509364500096 0.5381202471642199
1.8682420978040024 12.766654716232475 73.38974908783273 121.40112533191163 0.5499290497607271
1.8869131256425578 12.732808833261196 67.01773740543098 127.49775203157778 0.5622358138375203
1.9048371402060535 12.696999796986226 61.26444740895975 133.94744200422937 0.5750699482996924
1.9219807390715278 12.659189090205588 56.08320547570246 140.77579504148 0.588467470072616
1.9382962785506952 12.619306508325018 51.4000467534655 148.01052385468083 0.6024667883763045
1.9537943118126795 12.577469609623455 47.16805216413938 155.6801738867104 0.6171038448295455
1.9684124903120868 12.533548636696368 43.34388816445712 163.81832840396626 0.6324260390567467
1.9821292854376775 12.48755487701505 39.884784440379526 172.45870037558643 0.6484747518969507
1.9949200998283898 12.439487517669692 36.74995563357425 181.64066824283768 0.6653034747615273
2.0067604042954676 12.389332769189645 33.90864454019013 191.40617224398827 0.6829664414264218
2.017608806766356 12.33706809189792 31.331311897669053 201.80123134432043 0.7015228654640161
2.0274475872226865 12.282689821130285 28.99576419330184 212.87583174820367 0.7210355762072675
2.036261417990777 12.226231488014275 26.87311452007487 224.6853338734676 0.7415745270237705
2.0440089312756897 12.167645571777705 24.945381851906777 237.29098972589452 0.7632171818583322
2.0506716323312397 12.106948191384983 23.191041914238998 250.75958792782214 0.786045929628452
2.056248387796778 12.044210547685587 21.59718351806422 265.16416618633093 0.8101487794185556
2.060697711000376 11.979369606528742 20.144525363808135 280.5865645208765 0.8356258061303545
2.064006154401504 11.91248067595197 18.823836449183897 297.11634417182285 0.8625834941558036
2.066170113231866 11.84359158291826 17.621153373593504 314.8539085647258 0.8911424873915914
2.0671677369451014 11.772709267675056 16.52593510633608 333.9086721139374 0.9214287583056651
