M[M_sun], R[km], Lambda[1], P_c[MeV/fm^3], rho_c[fm^-3]
0.24162668629717493 15.618656898711224 2160425.4255784233 3.5677272577965504 0.1711233750220791
0.2536447132678361 15.277273413893733 1723171.8829018476 3.784848354383713 0.17388853138782184
0.2660426530774756 14.981205149257832 1382945.4481178946 4.0114619215123986 0.17666739146795962
0.278819614523065 14.723459621513364 1116342.1661541658 4.247823157967523 0.179458615418446
0.29197647326666454 14.49829367318172 905809.780741108 4.494557640294253 0.182268776611632
0.30551346506948374 14.301124836544377 738559.3986679075 4.751822395797107 0.18509360915247763
0.31943161244531915 14.128029004035351 605014.0920522464 5.020297442457861 0.18793968192865654
0.3337322248762983 13.97581883904298 497576.8949485061 5.300209910694927 0.19080367800132475
0.34841513016556497 13.841861897362621 410911.8900610299 5.592284959360843 0.19369182381681477
0.3634810298063106 13.723839840163253 340600.3088217019 5.896694263657778 0.19659926338937309
0.3789350204322919 13.619902383119815 283242.53354042716 6.214300156783379 0.19953364043932678
0.3947699974395481 13.528348910741817 233244.63516333458 6.545356218496579 0.20249106478663217
0.41099826900987 13.447784061589074 197817.6794471168 6.890572606171374 0.20547537834859486
0.427609128581786 13.376947243283626 166035.82941361907 7.250651163612429 0.20848959361020677
0.44460741424546246 13.314837140069669 139763.12112291914 7.625845494709105 0.21152917076769134
0.46198943649983176 13.260462692854668 117937.69446802385 8.017115426420027 0.21460043815942018
0.47975854905997267 13.213068870602081 99775.85303380407 8.42516129446238 0.21770496421375113
0.4979187640448426 13.171904247104855 84615.6642195429 8.850416837679738 0.22084011275871301
0.5164606401133369 13.136325608461892 71916.748116775 9.29376972552798 0.22400949337878273
0.535381916256027 13.105776611704156 61254.70125622673 9.756098482913838 0.22721592923044467
0.5546911407584751 13.079768370839494 52284.71975647907 10.238208093006618 0.23046070746949304
0.574377410945554 13.05779585936437 44713.154907570424 10.740574345077816 0.23374058378243318
0.5944376005544978 13.039477870887335 38313.88076533246 11.264447935461677 0.23706181532411508
0.6148777481449997 13.024466104553845 32887.55630202714 11.810762109596492 0.2404259558116369
0.6356854394551906 13.012405538546854 28279.096696683595 12.380496402225683 0.24383463914574308
0.6568595718762462 13.002990199860504 24359.945805061434 12.974325796429127 0.24728565552078363
0.6783949519536211 12.995974515604308 21018.046508806805 13.593605460034276 0.25078410545484897
0.7002870692417659 12.991043625341842 18163.46101378165 14.239520337349168 0.25433247425840966
0.7225243252041612 12.988005967416623 15721.849490711063 14.91326080730864 0.2579327478730259
0.7451164816427023 12.986651826394315 13627.498000203535 15.615836955759027 0.2615846234297398
0.7680401941227764 12.986765939909155 11829.799753279694 16.348554704379726 0.26529038973452945
0.7912892262098298 12.988148110907868 10284.639515577435 17.113012116405255 0.2690545474667353
0.8148668885315627 12.990684602732108 8951.51076805728 17.910665147846778 0.2728795309979217
0.8387549743174634 12.994150675187392 7803.525398470637 18.74285092515383 0.2767661651255796
0.8629388649155023 12.998427143379425 6810.365055506819 19.610971184857622 0.28071543870614224
0.8874238658966328 13.003372168211259 5952.02446882772 20.517085645123665 0.28473346653475906
0.9121834914428689 13.008875719994359 5208.302179633649 21.46298963713138 0.28882326434984995
0.9372077234425384 13.014770470700794 4563.052614098493 22.45013128523209 0.29298445995912986
0.9624948116441845 13.020982674583554 4002.065128186186 23.480609418264486 0.2972214369320893
0.9880193961219099 13.027358979563463 3514.7825848029534 24.55681294034564 0.3015400133253344
1.0137661698731297 13.03381654706588 3090.341661786626 25.680641343712594 0.3059414977206222
1.039733537512704 13.040277707556612 2719.721427528137 26.854143479803117 0.3104277933126641
1.0658897062616912 13.046605577114324 2396.7541109126028 28.0803763198968 0.315007324765914
1.0922254697167244 13.052735690368323 2114.441876616947 29.361343507879564 0.3196801787351206
1.1187264768420053 13.058571805112033 1867.1334747109715 30.69990618594443 0.3244517563531386
1.1453617956150208 13.064027750190357 1650.9091923981794 32.09935784500602 0.32932939161026337
1.1721293217420374 13.069032624833913 1461.0701691657118 33.56175441697246 0.33431152313563084
1.1989883671321395 13.073491069501047 1294.5600598676585 35.09158641817015 0.33941136140851674
1.2259387220120228 13.077351209458854 1148.2765988173253 36.69081164321586 0.34462526247172076
1.2529366507906452 13.080515872334036 1019.4806568838869 38.36454767488583 0.34996806333311775
1.2799820837177656 13.082950855962002 906.0433817132688 40.115109377653326 0.35543676321137146
1.3070357018305905 13.084552942780814 806.194781021909 41.94783013342885 0.36104511006610635
1.3340693204082046 13.08524297211404 718.0417317907912 43.86634224602079 0.3667958608401308
1.3610796361263025 13.085032259993108 640.1648242339234 45.875188796127595 0.37269595170887393
1.3880215249795187 13.083776985741485 571.3751001213236 47.97977995048109 0.3787557559104084
1.4148657096208561 13.08145161367748 510.4526407575281 50.18496272169776 0.38498137253848347
1.4415985625531045 13.078005519944526 456.5418665326956 52.49579243845218 0.39137890718574786
1.4681941968552454 13.073399796081596 408.703756404328 54.918772962268186 0.3979604922052714
1.4946055931062756 13.067525865790847 366.2523888687821 57.46009926004604 0.4047351971719194
1.5208191269615587 13.060369902582242 328.6020522937177 60.12640486437632 0.41171280245032577
1.5468043410164667 13.051872861532244 295.0634960790216 62.924801358333625 0.418903857731268
1.572522022556905 13.041981466378319 265.2596141200732 65.86292164140484 0.4263197453489384
1.597935658029567 13.030636360574878 238.72737122642806 68.94896736050782 0.433972748938714
1.623044986547325 13.017820083115952 215.0561797823234 72.19176093779305 0.4418761280635716
1.647785892344739 13.00345622391499 193.93531462705258 75.60080268104504 0.45004419951322255
1.6721345908532028 12.987510469059867 175.10242597124787 79.18589745610383 0.45849060521007856
1.6960708625103282 12.969948656010004 158.2368836685078 82.95752630016577 0.4672298080241609
1.7195507896931206 12.950720747563516 143.1637043566012 86.92830191364591 0.47628279657020006
1.7425321729050602 12.92977166909573 129.67287861166716 91.10966198774952 0.48566332719771627
1.7650129105223995 12.907100810761971 117.57950870385343 95.51600864682054 0.4953945354889743
1.7869239398832728 12.882621248789944 106.73767860431921 100.16071600532162 0.5054927524190403
1.8082740523645866 12.856376943263244 97.0083253323458 105.06047789480569 0.5159843059030638
1.8289770747608791 12.828217092699932 88.26020241429325 110.23185291847119 0.5268917586028383
1.849057308709701 12.798238711637595 80.40190418377198 115.69267800654642 0.5382391965843373
1.8684295817761478 12.766281641409302 73.32587573834972 121.46281838351865 0.5500546342058178
1.88710598167134 12.73244053435037 66.95454613920339 127.56371731197433 0.5623679193638254
1.9050246569171108 12.696606744914634 61.207505355486745 134.01818116815386 0.5752096093735948
1.9221613702391196 12.658769860012548 56.029674687072465 140.85177467124413 0.5886155072849895
1.9277251048380992 12.628358963390653 53.6722943213472 150.50918268652595 2.4316756028485647
