M[M_sun], R[km], Lambda[1], P_c[MeV/fm^3], rho_c[fm^-3]
0.24162668629717493 15.618656898711224 2160425.4255784233 3.5677272577965504 0.1711233750220791
0.25364503464786764 15.277268487509277 1723272.3913914538 3.784839294521689 0.17388841846101233
0.2660418861458271 14.981233041127746 1383011.1672579248 4.011442875680255 0.17666716131031826
0.2788179159462403 14.723461765275166 1116471.28242332 4.2477934816154095 0.17945827121748278
0.2919737590696024 14.498346702295404 905860.4010898579 4.494516554485582 0.18226831911161692
0.3055105962925307 14.301161627189137 738622.6886698381 4.751768505239788 0.1850930270316069
0.31942830954069074 14.128069933958951 605036.4435278845 5.020230349964377 0.1879389858181413
0.3337262427062741 13.97595031894807 497647.96342371864 5.3001278496249435 0.19080285178251394
0.3484105213235944 13.841947131942645 410957.17129521293 5.592187724606411 0.1936908830438173
0.3634747729024351 13.723898483148684 335687.99263712 5.896579670375879 0.19659818710501895
0.3789282249328262 13.61996370372758 283267.7869208692 6.214166817915887 0.1995324245494057
0.3947639175505855 13.528372769249694 233258.66983140714 6.54520427226271 0.20248973242343044
0.4109902365988452 13.447796265791201 197834.63876291388 6.890399118828862 0.2054739008575849
0.4276009029946173 13.377001487288418 166054.06477972295 7.25045450679933 0.20848796671879083
0.44459691988863353 13.314880025877569 139778.0139606813 7.62562621176105 0.21152742513442638
0.46198025836542855 13.260532898364897 117960.02382242653 8.01686969195494 0.21459853720466493
0.479747190758531 13.213091608797331 99790.8347591112 8.424887191828155 0.2177029033451302
0.49790646235242575 13.171956911596194 84625.27327979678 8.850115377367993 0.22083793005725189
0.516445967050542 13.136355620995742 71924.048555039 9.293436028231014 0.2240071441290085
0.5353679621345201 13.105786518027497 61263.57213941681 9.755730285535748 0.22721340835629603
0.5546748832298678 13.079786321397094 52291.94882664002 10.237806934663976 0.23045806033126814
0.5743602757457208 13.057806245526333 44718.22378622293 10.740134106333556 0.23373775731332613
0.5944178690588687 13.03950485275769 38318.845094177515 11.263965934451337 0.23705880377308003
0.6148583704821329 13.024486566509069 32892.80738480465 11.810235498192732 0.2404227531356703
0.6356648841652514 13.012412893512948 28283.48874310387 12.37992215458396 0.24383123898284556
0.6568376825126714 13.002997683410948 24363.635504890866 12.973706549631363 0.24728211616002171
0.6783714785678117 12.995971864288515 21021.300389196786 13.592932419130623 0.25078035814341587
0.7002624962380556 12.99105849512847 18167.063720425416 14.23878989270301 0.2543285115605549
0.7224993149307496 12.988002317472375 15724.361437740177 14.912469117319702 0.2579285619096246
0.7450894095094222 12.98665196803987 13629.989167577249 15.614987657701553 0.26158028238143166
0.7680126791964151 12.986755598123324 11832.348859792579 16.34763629487623 0.26528581169349963
0.7912582687207691 12.988154453663402 10286.373275260332 17.112019984970736 0.2690497230675331
0.814837334642967 12.990663263869438 8953.252159445117 17.909594378277784 0.27287445027288054
0.8387219113803467 12.994133164082873 7804.945253750666 18.741706267191333 0.27676090601450387
0.8629051287273213 12.998414382265148 6811.703004150824 19.60973775225303 0.28070990507193067
0.8873876762383038 13.003367716712503 5953.115075730817 20.51575749984528 0.284727646396217
0.9121490287219605 13.008857971563277 5209.217224318785 21.461560434459834 0.28881714491788885
0.9371695589511249 13.014758539805456 4563.475465622013 22.448606979442996 0.2929781288606901
0.96245496363431 13.020968931285449 4002.9643036771763 23.47897087640915 0.2972147823267565
0.9879788973111628 13.027355116027993 3515.122805056711 24.555052447901637 0.3015330197245994
1.013723294671369 13.03380618026873 3090.5611109400074 25.678765716289266 0.3059342593131701
1.0396905552183313 13.04026690970233 2720.265991478595 26.852129782448735 0.3104201859266648
1.0658443497349661 13.046594076740515 2397.2014556424538 28.07821512400649 0.3149993295625557
1.0921787101507836 13.052727373477683 2114.780179517719 29.35904247435641 0.31967189642727906
1.1186794072733854 13.058557905674492 1867.6204367690611 30.697437836475242 0.32444304909044097
1.145312710397571 13.06401759011934 1651.3636166370384 32.09673023717223 0.32932036340855547
1.1720784026848416 13.069021081358308 1461.415545687314 33.558936721955014 0.33430202721290553
1.1989367245322573 13.07348093196938 1294.8273415435858 35.088565333357884 0.33940137150006056
1.2258842762285531 13.077348259925355 1148.5235908718219 36.68759593723329 0.34461488910200155
1.252882704317791 13.080507699395682 1019.6922392965017 38.36112429440945 0.3499572834361853
1.2799271540237733 13.082946502215226 906.271109395318 40.11143940256177 0.3554254095344977
1.306971257783079 13.084526411642889 806.4215297251586 41.943922343999816 0.3610332962266349
1.3340120702082483 13.085242800965057 718.2585028856963 43.86215281806308 0.36678340769362794
1.3610209111690492 13.08503147603618 640.3036068812638 45.870726509807064 0.3726829759864096
1.3879545489750158 13.083769625943134 571.5237280470715 47.97502574114605 0.3787422238959487
1.4148059517230174 13.081456873818102 510.59330501054956 50.17986444368459 0.38496708660164874
1.4415374812060986 13.078014129372955 456.66787829654896 52.49035818704308 0.39136398676741657
1.468133193212663 13.07341077878859 408.8098384662111 54.91297866872191 0.3979448950091258
1.4945442544377319 13.067540558334388 366.34755014774584 57.45391890570231 0.40471887763137615
1.5207562015057188 13.060390688938275 328.6950883414448 60.11981030604305 0.41169571145992084
1.5467402242832327 13.051895002288889 295.1447851113592 62.91776213624664 0.41888594235141363
1.5724573354010636 13.042008483585954 265.32751736892084 65.8554047678207 0.42630094848119765
1.5978719976083067 13.030668616214475 238.79464750185758 68.94093708675214 0.4339530089683994
1.6229690111582993 13.017844457448703 215.12424340326947 72.18317849731893 0.44185537846609246
1.6477219872570883 13.0034963117623 193.98484534394464 75.59162600575505 0.45002236842017945
1.6720705627773331 12.987555090342116 175.14591968330024 79.17612879628619 0.4584678150384847
1.6960069460211378 12.969994642012116 158.28610054089415 82.94707031777031 0.4672057802070689
1.7194857507137262 12.950776643877084 143.20363397061703 86.9171047673338 0.476257440542904
1.7424676971459354 12.929822406140659 129.71505379917178 91.09771901741831 0.4856367584847787
1.7649503299562141 12.907167475775735 117.61144311934808 95.50320476415573 0.4953664409114396
1.7868759818587134 12.882727605940927 106.76221720003254 100.14704006045967 0.5054632403233423
1.8082128990221962 12.856455441426691 97.03381034882867 105.04585894965794 0.5159532625424
1.8289261564974915 12.828321029817372 88.28616808636508 110.21621359550777 0.5268590609387032
1.8489995999849342 12.79832811863862 80.42329190038767 115.67586991345603 0.5382044768640396
1.868372241467286 12.766381353239534 73.34535831346835 121.44481093188381 0.5500179776332841
1.8870479634016566 12.732552422690484 66.9709422329344 127.5444778567617 0.5623294131174771
1.9049694381908557 12.696721493007558 61.22263304437691 133.9975330684445 0.5751688436135904
1.922108379364129 12.65889140116314 56.04565314165052 140.8295968094649 0.5885722963764289
1.934669842800864 12.622505044483582 52.17255664734752 148.76381377016853 1.3326595619612134
