e[MeV/fm^3], P[MeV/fm^3], rho[fm^-3], v2[1], mu_q[MeV], mu_e[MeV]
70.21755168181654 0.006206087273093519 0.07407856508846018 0.017597877650005332 316.5185077347417 89.2771661002368
71.43578994790998 0.027644495228360377 0.07535555647246353 0.0175978776500052 316.5894798429086 89.8124074562691
72.67502861766434 0.04945246571785267 0.07665456106626496 0.017597877650005228 316.6616753923034 90.35687548400062
73.93562970314778 0.07163636938565421 0.07797595834102777 0.01759787765000538 316.7351154730202 90.91072923592193
75.21796145691394 0.09420268669514797 0.07932013430936638 0.01759787765000533 316.8098215387112 91.47413050632369
76.5223984795798 0.11715800982215896 0.0806874816381126 0.01759787765000522 316.8858154128541 92.04724387856187
77.84932182925448 0.14050904458066893 0.08207839976302188 0.017597877650005325 316.96311929512683 92.630236773136
79.19911913285509 0.16426261238173973 0.08349329500545777 0.017597877650005436 317.0417557678931 93.22327949659658
80.57218469934486 0.18842565222626206 0.08493258069109116 0.017597877650005332 317.12174780279906 93.82654529129692
81.96891963491473 0.21300522273190858 0.08639667727063695 0.017597877650005284 317.20311876748366 94.44021038599915
83.38973196016327 0.23800850419525207 0.0878860124426853 0.017597877650005242 317.2858924324053 95.06445404735784
84.83503672928572 0.26344280068923775 0.08940102127863886 0.01759787765000527 317.37009297778565 95.69945863228664
86.3052561513196 0.28931554219685157 0.0909421463498059 0.01759787765000538 317.45574500067295 96.34540964122833
87.80081971348744 0.3156342867816875 0.09250983785669148 0.017597877650005325 317.54287352212793 97.00249577234631
89.32216430665855 0.3424067227958098 0.09410455376051008 0.01759787765000531 317.63150399453286 97.67090897664707
90.86973435297011 0.3696406711256137 0.09572675991696154 0.017597877650005242 317.7216623090265 98.3508445140514
92.44398193566516 0.39734408747669764 0.0973769302123309 0.017597877650005228 317.8133748030682 99.04250101043964
94.04536693114535 0.4255250646977123 0.09905554670190979 0.01759787765000531 317.90666826813106 99.74608051566989
95.67435714332068 0.45419183514462985 0.10076309975082554 0.017892055534992374 318.00156995752883 100.46178856260559
97.33169327479138 0.4843410207312542 0.10250008817728433 0.018775745774211428 318.10048622561175 101.18570399772256
99.01814146064449 0.5170082040359527 0.10426701939828847 0.020025246310001077 318.2058447860128 101.91428658825437
100.73429318912723 0.5525181669555139 0.1060644095778678 0.02129999675038627 318.31828524079526 102.64750316311726
102.48063871606901 0.5907964457966746 0.10789278377786223 0.022549781036994038 318.43751805132047 103.38670836290729
104.25774423592242 0.6320103592916358 0.10975267611130558 0.023887708108000116 318.5638120290785 104.13237516689382
106.06623539667063 0.676492214395437 0.11164462989845152 0.025339806313660923 318.697770868173 104.88465247088972
107.90674784282342 0.7245234535359056 0.11356919782549418 0.026726883379044414 318.8398212612412 105.64215664334085
109.77980899298537 0.7757858510810522 0.11552694210601787 0.028008654354195556 318.9889635986241 106.39548846211913
111.68603200563659 0.8304189676497289 0.11751843464523576 0.02941848660514751 319.1453310518051 107.14305877628786
113.62612253642692 0.8889903796251314 0.1195442572070575 0.0310000273545607 319.31003653378224 107.89037199216354
115.60075117782822 0.9518318179215621 0.1216050015840337 0.03259969837934959 319.4836179784206 108.6399435927219
117.61049319554543 1.0189345897359714 0.12370126977023699 0.03419210470702347 319.6659546827271 109.3941654142798
119.65602415051524 1.0905481505064962 0.12583367413711752 0.03592218882239359 319.8573917239201 110.15411877028433
121.73815641876267 1.1672766767204164 0.12800283761239192 0.03778190969818496 320.0588603075681 110.92020174565145
123.85759205422588 1.2493614886182018 0.1302093938620144 0.0396255479711905 320.27062777688235 111.69348487044105
126.01496433860267 1.3368161240061027 0.13245398747528928 0.041461386350795104 320.4925793312381 112.47517112638602
128.2110155783424 1.429932568241939 0.13473727415316794 0.04346252473119688 320.7250671173629 113.26594974297757
130.4466887956552 1.52951487508801 0.1370599208997976 0.045590760196347446 320.969220213987 114.06610244230104
132.72270298041246 1.6357091714792171 0.13942260621736857 0.04767926014436641 321.22510082538804 114.87651716166351
135.03976205186157 1.748593799706529 0.14182602030432198 0.04977029748745049 321.49267975935425 115.69799950047124
137.3986835249372 1.8685229353243933 0.14427086525697244 0.05206400529136951 321.77234677231564 116.53110782929468
139.80057355445675 1.9965668028217445 0.14675785527460983 0.05448295484632937 322.0654823434704 117.37614392238619
142.24614757531495 2.1327305435734982 0.1492877168681315 0.05683638595368079 322.37191652081754 118.23384218287305
144.73619757503982 2.2771938463603174 0.15186118907227755 0.059208520968313694 322.69174413674494 119.10477732777403
147.27162660197732 2.430390920319256 0.15447902366151722 0.0618292055008095 323.0254080857181 119.98940983187808
149.85374556019306 2.5937403356179334 0.15714198536966398 0.06457197399617759 323.3745941649684 120.88804723823948
152.4832372283129 2.7670401807274834 0.15985085211327107 0.06721882453614525 323.7388555425644 121.80124809303793
155.16100474728017 2.9506159576823916 0.1626064152188807 0.06990575565196155 324.1184454344821 122.72942464238325
157.8880490867394 3.1450019316856195 0.16540947965419006 0.07289593855263288 324.5138717435153 123.67293532678868
160.66593902373984 3.3520690822739376 0.16826086426320178 0.07600220080988451 324.92718571735776 124.63202719571277
163.4952840125817 3.5713158744339593 0.17116140200542868 0.07897532922519734 325.3576004812541 125.6070903482084
166.37712853614147 3.8032695276021222 0.17411194019922174 0.08202037368123771 325.8055622707938 126.59840218489457
169.31260061973967 4.048620249866702 0.17711334076929286 0.08542133552471287 326.2716886567447 127.60620334892384
172.303551331823 4.309718566586897 0.18016648049850292 0.0889270452590527 326.7583492276527 128.63058410314463
175.35050383107742 4.585737524453315 0.1832722512839939 0.09226446929582366 327.26444376458807 129.67181814230588
178.45466868853612 4.877441713994387 0.18643156039773165 0.09572802473872655 327.7906096931573 130.73004905217363
181.61738960046912 5.18586172672753 0.18964533075154347 0.09956214286511778 328.3377308078966 131.80536363429957
184.84067158507494 5.5134958934314255 0.19291450116672415 0.10348029397253222 328.90808973361146 132.89762523650757
188.12508868773136 5.859506730761704 0.19624002664828616 0.10723125726635341 329.50063467169656 134.00704679883177
191.47199658539387 6.224818666062787 0.19962287866394354 0.11114950466071183 330.116072530961 135.1336328978941
194.88301649425165 6.610906017540677 0.2030640454278977 0.11544544815415358 330.7555888744374 136.2772622126371
198.3602890613904 7.020342674256472 0.2065645321895225 0.11979382346787826 331.42129567013734 137.43754067535426
201.9044613376726 7.452308308070558 0.2101253615270204 0.12397650239191993 332.11220306471756 138.61467605675114
205.5170562570145 7.907903230714149 0.21374757364614289 0.1283699626450635 332.8290718474655 139.80852765902867
209.2000509218192 8.389163756231573 0.21743222668406043 0.1331367755092301 333.57341318817043 141.01869117551004
212.95568685700158 8.89862029273525 0.22118039701847075 0.1379109881763032 334.34705688852574 142.2445530860434
216.7847142491265 9.435507109353031 0.224993179582034 0.1425209986125906 335.149090910276 143.4863497980139
220.6888478651131 10.001107919216421 0.22887168818223044 0.1473848211915132 335.9803024130194 144.74379875149575
224.67051841244387 10.598148441577159 0.23281705582673115 0.15260238957125072 336.84253077264475 146.0161250814302
228.73201076449018 11.228941923303356 0.23683043505437643 0.1577674592771845 337.73719306437926 147.30260528428684
232.87421847820065 11.892825884399452 0.2409129982718618 0.16276966708385543 338.6634726746745 148.60351662363965
237.09907459677976 12.591262929879372 0.2450659380962259 0.1680647442175771 339.6221443059857 149.91845083271977
241.4095830266287 13.327795359770137 0.24929046770324403 0.17367604335428166 340.61534675451054 151.2461733723472
245.80798450797525 14.104290408314728 0.25358782118182577 0.17916063314688135 341.6439533067965 152.5860269646372
250.29536865638684 14.920249387540146 0.2579592538945237 0.18448376658109078 342.70726027181 153.9383214680799
254.87391430339358 15.777295306389933 0.26240604284425445 0.19013115054428797 343.8059831368225 155.30255316107613
259.54734193097937 16.679902122692877 0.2669294870473437 0.19603884001981875 344.9424917462097 156.67695034502995
264.3177234138911 17.62921742422393 0.2715309079130002 0.20173455319505607 346.11701155796936 158.06114921462316
269.1864120746621 18.624978432827973 0.2762116496293318 0.20727097595137622 347.328966229596 159.45546560193614
274.15586021544175 19.66893704821644 0.28097307955601647 0.2131521958171756 348.57896372915343 160.8593430130801
279.2306731431928 20.76658998854091 0.28581658862374093 0.21922189252154145 349.86949367684684 162.27041922778363
284.412585417037 21.918069468750467 0.29074359174052566 0.2249894143101847 351.2000887836266 163.68887481305947
289.7032992122702 23.123430865940225 0.29575552820505524 0.2306016920899494 352.5703075794808 165.1149897852477
295.1055673860831 24.38451504681977 0.300853862127132 0.23656661428271297 353.98060905644974 166.5482047162215
300.6250734626658 25.70790002720107 0.3060400828553784 0.24263779812409947 355.4334521442952 167.985546141962
306.2629978571605 27.092417065261266 0.3113157054123131 0.24831998114039466 356.9277197298895 169.42797804232237
312.0214966673664 28.538529352055203 0.3166822709369256 0.2538541104542591 358.4631014669581 170.8756920374787
317.9036494111742 30.048126085066315 0.3221413471348811 0.2597359108053192 360.03988091456415 172.3281747479247
323.9164360611114 31.628890065835524 0.32769452873648597 0.2656390932017807 361.66030746350987 173.78185544558517
330.06021547034334 33.278110584552124 0.3333434379625472 0.2710787578055842 363.3227610243933 175.23867305073648
336.3377248306841 34.996751726455315 0.3390897249982634 0.27638164452897485 365.0270429856405 176.69867300893014
342.75239563416363 36.78671837750218 0.3449350684752844 0.2820159576097043 366.7732551876847 178.16142771359964
349.3127469329602 38.65679115669434 0.35088117596208035 0.28759239956345484 368.5632457970251 179.62281308437977
356.0179982424811 40.60254779373834 0.3569297844627652 0.2926507180164095 370.39513942729127 181.08586093941702
362.87161894726887 42.62554485678177 0.3630826609245175 0.2976058496429581 372.26881070045994 182.55041400308298
369.8776838050342 44.72802159039085 0.3693416027537498 0.3028324596598386 374.18425749083553 184.01597196044224
377.04571989459646 46.91882012835673 0.3757084383411748 0.30793255850782497 376.1425479489815 185.47847044374714
384.37423920137996 49.19272886637786 0.3821850275959231 0.3125215544923945 378.1420680020603 186.9415202760738
391.8673537720589 51.551645656583794 0.38877326248886857 0.31704011341831206 380.18264288681297 188.40489537630313
399.53022857376277 53.998550771733285 0.3954750676053199 0.32173794710659864 382.2641765278808 189.86781153455445
407.3724291860139 56.54109433027862 0.4022924007072386 0.3262560177033471 384.38684656688184 191.32699317636136
415.3926093188036 59.174483419942426 0.40922725330514964 0.33032373141907057 386.54960838431725 192.78593445174437
423.5953061809909 61.90062597545923 0.41628165123991057 0.3343330679737635 388.75217980057613 194.2445223409546
431.9870027817532 64.72329723895402 0.4234576552745099 0.33844367777413575 390.99427615507426 195.70167441052624
440.5770251421459 67.64881573370899 0.43075736169606577 0.34234063934627335 393.27543963785325 197.1549973649513
449.3643086509324 70.67296114055506 0.4381829029282034 0.34585294088734964 395.59516773161965 198.60775365438798
458.3538473549931 73.79767867736162 0.4457364481539887 0.3493186232354084 397.95311125729603 200.05992813734576
467.5536981515388 77.027587172091 0.45342020394959914 0.35282403402270646 400.3486982341418 201.51013545137317
476.9726258790827 80.36760327959247 0.4612364149289199 0.35610018974828783 402.78113502043635 202.95689176523837
486.6100156532322 83.81420550185936 0.4691873643992499 0.3590573204431635 405.2503908250171 204.40314259136073
496.47135452575156 87.36941208352289 0.4772753750283123 0.36197834849888366 407.7560864453435 205.84894995866304
506.56655900314644 91.03873246762508 0.4855028095227629 0.36489385448832223 410.2972643916196 207.29262843749711
516.9034684719422 94.82566064673001 0.4938720713183944 0.36757989436499905 412.8731075256692 208.73358290625708
527.4821139822687 98.72747146381049 0.5023856052822402 0.3700084324005575 415.48395412590855 210.17438737708488
538.3085169951437 102.74629564781578 0.5110458984267782 0.3724093515593818 418.12942481666244 211.61515947844745
549.3947716703991 106.88858307175066 0.5198554806364498 0.37477404613277354 420.80808286670407 213.0539215761969
560.7473841545874 111.15641113021425 0.5288169254067018 0.37709307950156656 423.519388423576 214.4909179400455
575.2317279179692 116.63274098073336 0.5401683684338516 0.004176190521400891 426.263926491692 224.05624515589682
1806.3309334537112 124.18800630873913 3.773859879190947 0.008097824917863268 429.04133904117657 155.02968625849687
3387.2008747145996 140.97010250417992 8.036501305159593 0.06620746857467391 431.84962364736657 82.19051571672593
3710.8717033917733 166.08354207608372 8.918579954470014 0.6841035868982717 434.68879187402194 15.512224337719392
3745.21904426137 191.7913496147156 8.997655311699612 0.754913526026098 437.55954505588323 0.0
3779.6806691893503 218.02983728108774 9.076127504554801 0.7604804514180725 440.4615602408136 0.0
3814.83867117103 244.73444550029018 9.155712173694493 0.7584462796220954 443.39219174670734 0.0
3850.7997405110896 271.9680232948692 9.236522594251058 0.7563683152944236 446.35224304333093 0.0
3887.513972849018 299.70231187243724 9.318521642467669 0.7543216289984471 449.3424024244641 0.0
3925.0536110835646 327.9775074520987 9.401772509894753 0.7522086511194717 452.3623894048231 0.0
3963.3526059351684 356.7472530700151 9.48615888262436 0.7501507369943505 455.4088468583903 0.0
4002.463117647455 386.04460449086326 9.57175772336872 0.7480117264852302 458.48357591050296 0.0
4042.4253419833776 415.8927275588513 9.65861470555772 0.7459149662183098 461.5871295346198 0.0
4083.21148302117 446.2743647474219 9.746699160114117 0.7437788169982422 464.7192724425523 0.0
4124.841523630682 477.1902240344251 9.835963130111095 0.7415938235606863 467.87587687666405 0.0
4167.330401673455 508.6546311623668 9.926466942704556 0.7395099771604654 471.0599151315838 0.0
4210.689085676366 540.6735551836596 10.018224813261739 0.737317473192757 474.2716930347005 0.0
4254.993328145531 573.2878424752129 10.111303080108938 0.73509610181498 477.5110201023164 0.0
4300.1395398360355 606.426454553206 10.205524994561573 0.7329816608414728 480.77294680996494 0.0
4346.202386396474 640.1404706070689 10.301027584959943 0.7307882266130257 484.06176219100337 0.0
4393.239350433114 674.4604846960686 10.397862110163663 0.728544361420588 487.37742484726095 0.0
4441.244283933624 709.3805677537514 10.496013357388671 0.7263587742649884 490.71942709513365 0.0
4490.150590580919 744.8508705474284 10.595342276458922 0.7241967692386098 494.0830324628434 0.0
4540.046102591581 780.9303798029912 10.696003464208024 0.7219551118972598 497.47289006040484 0.0
4590.98913465712 817.6493464171649 10.798046944502488 0.7196857961313885 500.8888825459008 0.0
4642.955725928757 854.9907014718339 10.90143271038015 0.7174753211321905 504.3299917615031 0.0
4695.89731037908 892.9162293951077 11.006050011992048 0.7152723168474298 507.7922253856572 0.0
4749.904589339052 931.4859092034362 11.11205390572385 0.7130585262503057 511.2801267663313 0.0
4804.999357079652 970.7099606746847 11.219461232676425 0.7107859697220569 514.7936148893198 0.0
4861.210878143683 1010.5982587809905 11.328270486496509 0.7085001148561023 518.3310928584808 0.0
4918.482884797654 1051.1106753091287 11.438378313733189 0.7062623391616913 521.8894715714698 0.0
4976.902993893515 1092.3046775172563 11.549933078759434 0.7040239739376783 525.4730848306887 0.0
5036.494660436711 1134.1911676894483 11.662953158032519 0.7017784256297599 529.0818842067226 0.0
5097.244816458557 1176.7553676953555 11.777387923547172 0.6995279744429848 532.7136335653959 0.0
5159.141946341655 1219.983792129114 11.89319113552016 0.6972743874356322 536.3662857953279 0.0
5222.278349978603 1263.9352518551948 12.010509885008474 0.6950155553638169 540.0438741161018 0.0
5286.679333153906 1308.621400271543 12.129364131049046 0.6927388251326665 543.7463790946406 0.0
5352.329267887366 1354.0237096415176 12.249688789531376 0.6904556703467399 547.4708712870953 0.0
5419.2295437418015 1400.138601509078 12.371467918511456 0.6881889642260717 551.216467733508 0.0
5487.4648160034985 1447.0194850415435 12.494834953853232 0.6859275125376243 554.9868210458568 0.0
5557.062271919985 1494.678779765317 12.619811380947692 0.6836638445490486 558.781937487146 0.0
5627.980870060044 1543.0822402164254 12.746296735036507 0.6814007599132825 562.5981454122898 0.0
5700.253158192957 1592.2460955463034 12.87432337605184 0.6791388740374096 566.4358348263322 0.0
5773.966374505734 1642.2234118799292 13.00401881882247 0.676876790771777 570.2982070044372 0.0
5849.149794261649 1693.027446940425 13.135406133208578 0.6746146899091894 574.1852909518561 0.0
5925.74479420003 1744.6121721648294 13.268355593644333 0.6723557178791797 578.0926279967849 0.0
6003.812645208779 1797.0125739327732 13.40294720475492 0.6700996620429489 582.021979385741 0.0
6083.435586318017 1850.2772116313733 13.539294731052912 0.6678454445936737 585.9760320290837 0.0
6164.645107332567 1904.420226187173 13.677422836403366 0.6655817475519612 589.9548350790684 0.0
6247.373834698912 1959.3880643116147 13.81717925739247 0.6633126367390769 593.9531011119569 0.0
6331.716200497501 2015.2369369539024 13.958696845396668 0.6610560458479817 597.9740527294582 0.0
6417.740412955828 2072.0061410196395 14.102066829574929 0.658810531407374 602.019805726412 0.0
6505.480421367904 2129.710786171228 14.247315546539777 0.6565691573228545 606.0904271513187 0.0
6594.833798573068 2188.276586184667 14.394245229884834 0.654335519219357 610.1797613821134 0.0
6685.935084024483 2247.7847818422515 14.543048985936531 0.652107343885552 614.2925763096104 0.0
6778.850751834534 2308.271354699019 14.693804991034625 0.6498844834775319 618.4303648993331 0.0
6873.61724008299 2369.752393957885 14.84654121444459 0.6476546311668834 622.5932101621104 0.0
6970.1209687326955 2432.1445083956482 15.00103367660532 0.6454044392615703 626.7740504200112 0.0
7068.563226206757 2495.5670090299345 15.157558740740477 0.6431698362302782 630.9792782513232 0.0
7168.966957469461 2560.031927448699 15.316145871710695 0.6409694224929492 635.2097160524316 0.0
7271.371361900015 2625.5564275130973 15.476824766479245 0.6387509260362734 639.4654611461091 0.0
