e[MeV/fm^3], P[MeV/fm^3], rho[fm^-3], v2[1], mu_q[MeV], mu_e[MeV]
70.21755168181654 0.006206087273093519 0.07407856508846018 0.017597877650005332 316.5185077347417 89.2771661002368
71.43578994790998 0.027644495228360377 0.07535555647246353 0.0175978776500052 316.5894798429086 89.8124074562691
72.67502861766434 0.04945246571785267 0.07665456106626496 0.017597877650005228 316.6616753923034 90.35687548400062
73.93562970314778 0.07163636938565421 0.07797595834102777 0.01759787765000538 316.7351154730202 90.91072923592193
75.21796145691394 0.09420268669514797 0.07932013430936638 0.01759787765000533 316.8098215387112 91.47413050632369
76.5223984795798 0.11715800982215896 0.0806874816381126 0.01759787765000522 316.8858154128541 92.04724387856187
77.84932182925448 0.14050904458066893 0.08207839976302188 0.017597877650005325 316.96311929512683 92.630236773136
79.19911913285509 0.16426261238173973 0.08349329500545777 0.017597877650005436 317.0417557678931 93.22327949659658
80.57218469934486 0.18842565222626206 0.08493258069109116 0.017597877650005332 317.12174780279906 93.82654529129692
81.96891963491473 0.21300522273190858 0.08639667727063695 0.017597877650005284 317.20311876748366 94.44021038599915
83.38973196016327 0.23800850419525207 0.0878860124426853 0.017597877650005242 317.2858924324053 95.06445404735784
84.83503672928572 0.26344280068923775 0.08940102127863886 0.01759787765000527 317.37009297778565 95.69945863228664
86.3052561513196 0.28931554219685157 0.0909421463498059 0.01759787765000538 317.45574500067295 96.34540964122833
87.80081971348744 0.3156342867816875 0.09250983785669148 0.017597877650005325 317.54287352212793 97.00249577234631
89.32216430665855 0.3424067227958098 0.09410455376051008 0.01759787765000531 317.63150399453286 97.67090897664707
90.86973435297011 0.3696406711256137 0.09572675991696154 0.017597877650005242 317.7216623090265 98.3508445140514
92.44398193566516 0.39734408747669764 0.0973769302123309 0.017597877650005228 317.8133748030682 99.04250101043964
94.04536693114535 0.4255250646977123 0.09905554670190979 0.01759787765000531 317.90666826813106 99.74608051566989
95.67435714332068 0.45419183514462985 0.10076309975082554 0.017892055534992374 318.00156995752883 100.46178856260559
97.33169327479138 0.4843410207312542 0.10250008817728433 0.018775745774211428 318.10048622561175 101.18570399772256
99.01814146064449 0.5170082040359527 0.10426701939828847 0.020025246310001077 318.2058447860128 101.91428658825437
100.73429318912723 0.5525181669555139 0.1060644095778678 0.02129999675038627 318.31828524079526 102.64750316311726
102.48063871606901 0.5907964457966746 0.10789278377786223 0.022549781036994038 318.43751805132047 103.38670836290729
104.25774423592242 0.6320103592916358 0.10975267611130558 0.023887708108000116 318.5638120290785 104.13237516689382
106.06623539667063 0.676492214395437 0.11164462989845152 0.025339806313660923 318.697770868173 104.88465247088972
107.90674784282342 0.7245234535359056 0.11356919782549418 0.026726883379044414 318.8398212612412 105.64215664334085
109.77980899298537 0.7757858510810522 0.11552694210601787 0.028008654354195556 318.9889635986241 106.39548846211913
111.68603200563659 0.8304189676497289 0.11751843464523576 0.02941848660514751 319.1453310518051 107.14305877628786
113.62612253642692 0.8889903796251314 0.1195442572070575 0.0310000273545607 319.31003653378224 107.89037199216354
115.60075117782822 0.9518318179215621 0.1216050015840337 0.03259969837934959 319.4836179784206 108.6399435927219
117.61049319554543 1.0189345897359714 0.12370126977023699 0.03419210470702347 319.6659546827271 109.3941654142798
119.65602415051524 1.0905481505064962 0.12583367413711752 0.03592218882239359 319.8573917239201 110.15411877028433
121.73815641876267 1.1672766767204164 0.12800283761239192 0.03778190969818496 320.0588603075681 110.92020174565145
123.85759205422588 1.2493614886182018 0.1302093938620144 0.0396255479711905 320.27062777688235 111.69348487044105
126.01496433860267 1.3368161240061027 0.13245398747528928 0.041461386350795104 320.4925793312381 112.47517112638602
128.2110155783424 1.429932568241939 0.13473727415316794 0.04346252473119688 320.7250671173629 113.26594974297757
130.4466887956552 1.52951487508801 0.1370599208997976 0.045590760196347446 320.969220213987 114.06610244230104
132.72270298041246 1.6357091714792171 0.13942260621736857 0.04767926014436641 321.22510082538804 114.87651716166351
135.03976205186157 1.748593799706529 0.14182602030432198 0.04977029748745049 321.49267975935425 115.69799950047124
137.3986835249372 1.8685229353243933 0.14427086525697244 0.05206400529136951 321.77234677231564 116.53110782929468
139.80057355445675 1.9965668028217445 0.14675785527460983 0.05448295484632937 322.0654823434704 117.37614392238619
142.24614757531495 2.1327305435734982 0.1492877168681315 0.05683638595368079 322.37191652081754 118.23384218287305
144.73619757503982 2.2771938463603174 0.15186118907227755 0.05919606544511136 322.69174413674494 119.10477732777403
146.55256566043357 2.3866011412712815 0.15379544297071895 0.00924525212470291 323.0254080857181 119.88946227374824
170.89797495075476 2.6156207606191226 0.23201586736815735 0.009568941271412265 323.3745941649684 116.27729276760907
191.15287438326266 2.8121660560701414 0.2982646706921436 0.012784892386853222 323.7388555425644 112.5301754234759
209.42436338878156 3.096551978818051 0.36108789588702406 0.015564463446958846 324.1184454344821 108.9968817902259
228.4581353933313 3.392802427440614 0.4265320939263115 0.015564463446958846 324.5138717435153 105.31617982772605
248.35292682399103 3.7024541814479877 0.4949367522371911 0.015564463446958846 324.92718571735776 101.46897613920595
269.0708616104374 4.024917720128109 0.5661716407713784 0.017849999258605573 325.3576004812541 97.46259510190085
287.6585012322399 4.394821558629966 0.6313462600385713 0.0275143358111285 325.8055622707938 93.60375281653117
301.2810275354942 4.845650217460885 0.6819310557199859 0.033094350401307066 326.2716886567447 90.18603690747351
315.50366463085385 5.316339153125344 0.7347442546453427 0.033094350401306954 326.7583492276527 86.61776095134987
330.2942586609939 5.8058242546022765 0.7896664592618716 0.037095372718699726 327.26444376458807 82.90699193568301
343.51778345980966 6.34365787066921 0.8399230809633903 0.05021582686043957 327.7906096931573 79.31378764181693
353.96813028409804 6.947246724270209 0.8816952487443093 0.05775778199036957 328.3377308078966 75.98310013218139
364.86233346411774 7.5764717365005785 0.9252416009110656 0.05775778199036968 328.90808973361146 72.5109487223554
376.18030300531586 8.230172553834745 0.9704818336577385 0.07352028916980913 329.50063467169656 68.90373640499087
384.7879560747014 8.966197005281712 1.0074860088648034 0.08572029865062408 330.116072530961 65.66243046079649
393.69527417579224 9.731690476442182 1.045820255914512 0.08593983761135943 330.7555888744374 62.30026703847193
402.9673784024384 10.52853360799575 1.0857244257286978 0.09973197342855034 331.42129567013734 58.80041115311933
410.8305058973288 11.404708336718572 1.1225178366296882 0.11179154203552366 332.11220306471756 55.55629951810654
418.94610902912154 12.315006921838936 1.160580912067308 0.11420866896268211 332.8290718474655 52.1997704550736
427.1884747745641 13.273451980655487 1.2004986420256691 0.12216075076871002 333.57341318817043 48.79610793720267
435.25679440055023 14.305508012859924 1.2430591486473719 0.12791461915817426 334.34705688852574 45.478961919562856
443.6211963021289 15.37543729658627 1.2871814936982735 0.12434886238329657 335.149090910276 42.04008694386189
453.22620610356125 16.530480379801826 1.3458847772366895 0.11954542749633335 335.9803024130194 38.62723898128913
463.3989748356974 17.73895163745431 1.4096797728276989 0.17268100499628725 336.84253077264475 35.12083031924445
469.6218124419236 19.01864125092348 1.443972100004046 0.36064664360271603 337.73719306437926 31.61954704718956
472.6976238396321 20.363573620269133 1.4546843515436565 0.4484365232272465 338.6634726746745 28.101012461883712
475.74485540662414 21.763801528244656 1.4645796775581768 0.47246551543295023 339.6221443059857 24.651758949346398
478.75295641611353 23.223501904489574 1.4735283117666211 0.48555200401244525 340.61534675451054 21.28860002867866
481.88409334527176 24.74479503072789 1.4827826308756982 0.48610645581979695 341.6439533067965 17.98813349562974
485.1346137828876 26.325726799195834 1.4923375747084957 0.4862735905962583 342.70726027181 14.73517331553333
488.52274342634576 27.972970209762856 1.502233206132768 0.48614642521887586 343.8059831368225 11.582765284655432
492.0392057471496 29.68236052343147 1.51247818735517 0.48567583637385203 344.9424917462097 8.406042116728353
495.7220222441711 31.469337831640466 1.5231316833437663 0.48499917408178383 346.11701155796936 5.379619226868629
499.5423059293218 33.32129598639976 1.5341573784146383 0.48440839415403225 347.328966229596 2.6207385755112647
503.5168575625334 35.24510773310222 1.545585039272811 0.48351280645081296 348.57896372915343 0.39985923612174545
507.66840018433624 37.25017860489949 1.5574667092649235 0.48264007744333837 349.86949367684684 0.0
511.980606554356 39.32994411127046 1.569772393003031 0.48189278184335294 351.2000887836266 0.0
516.4618631886849 41.487545504098996 1.582515056093551 0.48089500629804505 352.5703075794808 0.0
521.134968515581 43.732004776973085 1.595735452499918 0.4798968211164212 353.98060905644974 0.0
525.992612827806 46.061172891353266 1.6094296210879306 0.4790637444071173 355.4334521442952 0.0
531.0371640561691 48.47562710815816 1.6235973479862071 0.4781827128546219 356.9277197298895 0.0
536.2736863425183 50.9772310154506 1.6382459305685437 0.47712973048056906 358.4631014669581 0.0
541.7257969724229 53.575230852309666 1.6534162880631493 0.4760453022899158 360.03988091456415 0.0
547.3901780178032 56.268982372748376 1.6691106820920327 0.4750789864632017 361.66030746350987 0.0
553.2673135256041 59.05815443633203 1.68532348240853 0.47408480036103917 363.3227610243933 0.0
559.363133029702 61.944957662396966 1.702063542821974 0.47306277603568425 365.0270429856405 0.0
565.6847463984774 64.932145952607 1.71934275059683 0.4720161430512011 366.7732551876847 0.0
572.2458721713704 68.02556488600091 1.7371906564490007 0.4709470784757581 368.5632457970251 0.0
579.0467514783683 71.22468453545987 1.7555998704796099 0.4698598792369397 370.39513942729127 0.0
586.0940308409351 74.53198908388904 1.7745803373267501 0.46875725090225906 372.26881070045994 0.0
593.3949322398445 77.9502168469114 1.7941433364213473 0.46764156175890204 374.18425749083553 0.0
600.9609854132443 81.48409743295579 1.8143113541092293 0.4665146263607074 376.1425479489815 0.0
608.7934520131689 85.13355012160514 1.8350793078949343 0.46537957019064446 378.1420680020603 0.0
616.8991592197376 88.90108678481283 1.856456844915226 0.46423819192267235 380.18264288681297 0.0
625.2853451261687 92.78939588051009 1.878454496039294 0.46309222303908015 382.2641765278808 0.0
633.9604834448114 96.80172166758327 1.9010857986891916 0.46194311337825944 384.38684656688184 0.0
642.9281149171326 100.93901552771956 1.9243512578557556 0.46079276333921815 386.54960838431725 0.0
652.1949061578061 105.20366750204393 1.9482594220305358 0.4596424710256457 388.75217980057613 0.0
661.7675796733669 109.5980819462298 1.9728188180026573 0.45847411335027477 390.99427615507426 0.0
671.6572174055169 114.12625698438576 1.9980440121167728 0.45724486913714024 393.27543963785325 0.0
681.8818292441499 118.7947930056435 2.023960020061978 0.45602993749529297 395.59516773161965 0.0
692.4333874804994 123.60043521838723 2.0505514018272235 0.45487857078356164 397.95311125729603 0.0
703.3175282881091 128.54505122671134 2.0778233094630436 0.45373323029690393 400.3486982341418 0.0
714.5388573304826 133.63003641716298 2.105778235657479 0.4525044168371375 402.78113502043635 0.0
726.1344444460636 138.86931257066954 2.1344718335238118 0.4512639045016549 405.2503908250171 0.0
738.087814255127 144.2564167047057 2.1638754149877375 0.45012078546372525 407.7560864453435 0.0
750.399687617249 149.79119838290254 2.1939844170290437 0.44893014784319174 410.2972643916196 0.0
763.098577669483 155.4840164352897 2.224836935599769 0.4476990762630333 412.8731075256692 0.0
776.1890093254594 161.3365819696345 2.256439514084122 0.44654179808600336 415.48395412590855 0.0
789.6621145841955 167.34532238445343 2.2887753671777626 0.44534463098041943 418.12942481666244 0.0
803.5579303815733 173.52463812259217 2.3218959371908365 0.44412884668521 420.80808286670407 0.0
817.8553805572834 179.86630866978757 2.3557652797641686 0.4429792326312887 423.519388423576 0.0
832.5752285588077 186.3782071078541 2.3904149462332076 0.441780083523188 426.263926491692 0.0
847.7446836685399 193.07025161094853 2.42588118159228 0.44061884357356984 429.04133904117657 0.0
863.3312476975899 199.92943730617523 2.462104664850217 0.4394379552820702 431.84962364736657 0.0
879.3958541942404 206.9783633112811 2.4991718854597487 0.4382723710250538 434.68879187402194 0.0
895.8976667976194 214.20194369882628 2.5370247601591567 0.43711174709323863 437.55954505588323 0.0
912.9109173837791 221.62753370982819 2.5757661153090474 0.4359501293179546 440.4615602408136 0.0
930.3684633225563 229.22903362520634 2.6152841779222165 0.43480791002656716 443.39219174670734 0.0
948.3518070541802 237.03685124196613 2.655696364893631 0.433653268710148 446.35224304333093 0.0
966.8210432890309 245.03630573276735 2.696946912457711 0.4325329117248451 449.3424024244641 0.0
985.8350630654578 253.24894047371237 2.7391145590118997 0.4313894165433494 452.3623894048231 0.0
1005.3550951524836 261.65893841805837 2.7821247302252847 0.4302908567201804 455.4088468583903 0.0
1025.417334826456 270.2802270450004 2.826034405051214 0.4291636596930086 458.48357591050296 0.0
1046.0532951731104 279.124471090879 2.870886768720001 0.4280720503654383 461.5871295346198 0.0
1067.243130344621 288.18410627992915 2.9166503541942497 0.42697556055594 464.7192724425523 0.0
1089.0194607034236 297.4692949908591 2.9633442476261562 0.42586707595013973 467.87587687666405 0.0
1111.385033071506 306.98206586623223 3.010984768743225 0.4248237506394883 471.0599151315838 0.0
1134.3490011693634 316.7257452143993 3.059582930404875 0.42374082146168757 474.2716930347005 0.0
1157.975163919673 326.72345097633485 3.1092195051865037 0.4226563680847084 477.5110201023164 0.0
1182.2000982726317 336.9497023466258 3.159778410609506 0.4216378046554743 480.77294680996494 0.0
1207.0697182013002 347.42291829835654 3.2113414378288128 0.42059486338622865 484.06176219100337 0.0
1232.6330662405874 358.16080397414703 3.2639690780072073 0.41954090332329397 487.37742484726095 0.0
1258.8890678596474 369.1625401805715 3.317652824622186 0.41852735714553013 490.71942709513365 0.0
1285.803505568551 380.41343326379155 3.372316659582814 0.4175373445168775 494.0830324628434 0.0
1313.4321151320553 391.9355943122352 3.4280563084935345 0.41652401964495667 497.47289006040484 0.0
1341.8258832472193 403.74730282854375 3.4849322031335563 0.4155104937744438 500.8888825459008 0.0
1370.971141481252 415.84292341849266 3.542916213410797 0.4145358049485788 504.3299917615031 0.0
1400.8458590458827 428.2124931541995 3.6019517864206905 0.41357638906841654 507.7922253856572 0.0
1431.5090588967166 440.87922303356765 3.662137104564833 0.4126240229655993 511.2801267663313 0.0
1462.981502325016 453.8503844523477 3.7234932677077035 0.4116586528204573 514.7936148893198 0.0
1495.2971027066633 467.1372947431469 3.7860475280599877 0.41069918330035904 518.3310928584808 0.0
1528.4238287702249 480.7267361090459 3.8497355464593426 0.4097715967779436 521.8894715714698 0.0
1562.419437402632 494.64132116639223 3.9146515125647583 0.40885498018829924 525.4730848306887 0.0
1597.3064232329564 508.88891444835923 3.9808177238390927 0.40794644769290755 529.0818842067226 0.0
1633.0859129046967 523.4686519129577 4.048215795700047 0.4070468111083887 532.7136335653959 0.0
1669.7596257033847 538.3799593118238 4.11682902429628 0.4061566475320104 536.3662857953279 0.0
1707.3911168469197 553.6473559484654 4.186755575350479 0.4052749922192129 540.0438741161018 0.0
1746.0048275221873 569.279371186994 4.25801906413818 0.4043969368577125 543.7463790946406 0.0
1785.6034459549317 585.2753169486627 4.330596852144812 0.4035267195850869 547.4708712870953 0.0
1826.1949353685495 601.637367029018 4.4044863996900405 0.4026729286393529 551.216467733508 0.0
1867.838420477475 618.3882246932689 4.479776871778135 0.4018310512101335 554.9868210458568 0.0
1910.5603172399126 635.5370941016661 4.556493195888438 0.40099807608632165 558.781937487146 0.0
1954.3450706233389 653.0763448524676 4.634584981104299 0.40017487540769014 562.5981454122898 0.0
1999.2221694919888 671.0164459792992 4.714082858078026 0.39936150310968355 566.4358348263322 0.0
2045.2556378458132 689.3815904590975 4.795077289666021 0.39855729182120125 570.2982070044372 0.0
2092.474102087459 708.1817361851258 4.877594636938585 0.39776214639532537 574.1852909518561 0.0
2140.850812349603 727.4048171049113 4.961564703178744 0.3969770012904581 578.0926279967849 0.0
2190.434320235843 747.0687482738285 5.047048738323386 0.39620160333840193 582.021979385741 0.0
2241.287281368988 767.1969287787427 5.1341305233359975 0.39543540948530254 585.9760320290837 0.0
2293.440675599043 787.8001182457882 5.222837911124816 0.39467451331673864 589.9548350790684 0.0
2346.864787145592 808.8647140281472 5.313089492479201 0.39392013496623157 593.9531011119569 0.0
2401.6308519200793 830.4174018089992 5.404981562509659 0.39317809044448726 597.9740527294582 0.0
2457.792370905301 852.4779840497182 5.498582012545292 0.3924476922340343 602.019805726412 0.0
2515.382956778853 875.0581156950627 5.593920319989984 0.39172644521317057 606.0904271513187 0.0
2574.3462435596703 898.1342353316678 5.69087781459727 0.39101532409268636 610.1797613821134 0.0
2634.7819081100292 921.743895160953 5.78959294592363 0.39031341932094143 614.2925763096104 0.0
2696.745726267953 945.907330311545 5.890129706608857 0.38962051169066303 618.4303648993331 0.0
2760.2739760358404 970.6371019987675 5.992519186942187 0.3889326963646651 622.5932101621104 0.0
2825.3057488874256 995.9074940420116 6.096628625017798 0.3882458497796737 626.7740504200112 0.0
2891.9936820110147 1021.7755924370656 6.202663990719443 0.3875707015160321 630.9792782513232 0.0
2960.3576386681934 1048.2485396889535 6.310644686120986 0.38691275087703403 635.2097160524316 0.0
3030.4368730757224 1075.3399074204806 6.420603555151251 0.3862511673810829 639.4654611461091 0.0
