e[MeV/fm^3], P[MeV/fm^3], rho[fm^-3], v2[1], mu_q[MeV], mu_e[MeV]
70.21755168181654 0.006206087273093519 0.07407856508846018 0.017597877650005332 316.5185077347417 89.2771661002368
71.43578994790998 0.027644495228360377 0.07535555647246353 0.0175978776500052 316.5894798429086 89.8124074562691
72.67502861766434 0.04945246571785267 0.07665456106626496 0.017597877650005228 316.6616753923034 90.35687548400062
73.93562970314778 0.07163636938565421 0.07797595834102777 0.01759787765000538 316.7351154730202 90.91072923592193
75.21796145691394 0.09420268669514797 0.07932013430936638 0.01759787765000533 316.8098215387112 91.47413050632369
76.5223984795798 0.11715800982215896 0.0806874816381126 0.01759787765000522 316.8858154128541 92.04724387856187
77.84932182925448 0.14050904458066893 0.08207839976302188 0.017597877650005325 316.96311929512683 92.630236773136
79.19911913285509 0.16426261238173973 0.08349329500545777 0.017597877650005436 317.0417557678931 93.22327949659658
80.57218469934486 0.18842565222626206 0.08493258069109116 0.017597877650005332 317.12174780279906 93.82654529129692
81.96891963491473 0.21300522273190858 0.08639667727063695 0.017597877650005284 317.20311876748366 94.44021038599915
83.38973196016327 0.23800850419525207 0.0878860124426853 0.017597877650005242 317.2858924324053 95.06445404735784
84.83503672928572 0.26344280068923775 0.08940102127863886 0.01759787765000527 317.37009297778565 95.69945863228664
86.3052561513196 0.28931554219685157 0.0909421463498059 0.01759787765000538 317.45574500067295 96.34540964122833
87.80081971348744 0.3156342867816875 0.09250983785669148 0.017597877650005325 317.54287352212793 97.00249577234631
89.32216430665855 0.3424067227958098 0.09410455376051008 0.01759787765000531 317.63150399453286 97.67090897664707
90.86973435297011 0.3696406711256137 0.09572675991696154 0.017597877650005242 317.7216623090265 98.3508445140514
92.44398193566516 0.39734408747669764 0.0973769302123309 0.017597877650005228 317.8133748030682 99.04250101043964
94.04536693114535 0.4255250646977123 0.09905554670190979 0.01759787765000531 317.90666826813106 99.74608051566989
95.67435714332068 0.45419183514462985 0.10076309975082554 0.017892055534992374 318.00156995752883 100.46178856260559
97.33169327479138 0.4843410207312542 0.10250008817728433 0.018775745774211428 318.10048622561175 101.18570399772256
99.01814146064449 0.5170082040359527 0.10426701939828847 0.020025246310001077 318.2058447860128 101.91428658825437
100.73429318912723 0.5525181669555139 0.1060644095778678 0.02129999675038627 318.31828524079526 102.64750316311726
102.48063871606901 0.5907964457966746 0.10789278377786223 0.022549781036994038 318.43751805132047 103.38670836290729
104.25774423592242 0.6320103592916358 0.10975267611130558 0.023887708108000116 318.5638120290785 104.13237516689382
106.06623539667063 0.676492214395437 0.11164462989845152 0.025339806313660923 318.697770868173 104.88465247088972
107.90674784282342 0.7245234535359056 0.11356919782549418 0.026726883379044414 318.8398212612412 105.64215664334085
109.77980899298537 0.7757858510810522 0.11552694210601787 0.028008654354195556 318.9889635986241 106.39548846211913
111.68603200563659 0.8304189676497289 0.11751843464523576 0.02941848660514751 319.1453310518051 107.14305877628786
113.62612253642692 0.8889903796251314 0.1195442572070575 0.0310000273545607 319.31003653378224 107.89037199216354
115.60075117782822 0.9518318179215621 0.1216050015840337 0.03259969837934959 319.4836179784206 108.6399435927219
117.61049319554543 1.0189345897359714 0.12370126977023699 0.03419210470702347 319.6659546827271 109.3941654142798
119.65602415051524 1.0905481505064962 0.12583367413711752 0.03592218882239359 319.8573917239201 110.15411877028433
121.73815641876267 1.1672766767204164 0.12800283761239192 0.03778190969818496 320.0588603075681 110.92020174565145
123.85759205422588 1.2493614886182018 0.1302093938620144 0.0396255479711905 320.27062777688235 111.69348487044105
126.01496433860267 1.3368161240061027 0.13245398747528928 0.041461386350795104 320.4925793312381 112.47517112638602
128.2110155783424 1.429932568241939 0.13473727415316794 0.04346252473119688 320.7250671173629 113.26594974297757
130.4466887956552 1.52951487508801 0.1370599208997976 0.045590760196347446 320.969220213987 114.06610244230104
132.72270298041246 1.6357091714792171 0.13942260621736857 0.04767926014436641 321.22510082538804 114.87651716166351
135.03976205186157 1.748593799706529 0.14182602030432198 0.04977029748745049 321.49267975935425 115.69799950047124
137.3986835249372 1.8685229353243933 0.14427086525697244 0.05206400529136951 321.77234677231564 116.53110782929468
139.80057355445675 1.9965668028217445 0.14675785527460983 0.05448295484632937 322.0654823434704 117.37614392238619
142.24614757531495 2.1327305435734982 0.1492877168681315 0.05683638595368079 322.37191652081754 118.23384218287305
144.73619757503982 2.2771938463603174 0.15186118907227755 0.059208520968313694 322.69174413674494 119.10477732777403
147.27162660197732 2.430390920319256 0.15447902366151722 0.0618292055008095 323.0254080857181 119.98940983187808
149.85374556019306 2.5937403356179334 0.15714198536966398 0.06457197399617759 323.3745941649684 120.88804723823948
152.4832372283129 2.7670401807274834 0.15985085211327107 0.06721882453614525 323.7388555425644 121.80124809303793
155.16100474728017 2.9506159576823916 0.1626064152188807 0.06990575565196155 324.1184454344821 122.72942464238325
157.8880490867394 3.1450019316856195 0.16540947965419006 0.07289593855263288 324.5138717435153 123.67293532678868
160.66593902373984 3.3520690822739376 0.16826086426320178 0.07600220080988451 324.92718571735776 124.63202719571277
163.4952840125817 3.5713158744339593 0.17116140200542868 0.07897532922519734 325.3576004812541 125.6070903482084
166.37712853614147 3.8032695276021222 0.17411194019922174 0.08202037368123771 325.8055622707938 126.59840218489457
169.31260061973967 4.048620249866702 0.17711334076929286 0.08542133552471287 326.2716886567447 127.60620334892384
172.303551331823 4.309718566586897 0.18016648049850292 0.0889270452590527 326.7583492276527 128.63058410314463
175.35050383107742 4.585737524453315 0.1832722512839939 0.09226446929582366 327.26444376458807 247.8455014594004
178.45466868853612 4.877441713994387 0.18643156039773165 0.09572802473872655 327.7906096931573 242.05954121418227
181.61738960046912 5.18586172672753 0.18964533075154347 0.09956214286511778 328.3377308078966 236.0431481957118
184.84067158507494 5.5134958934314255 0.19291450116672415 0.10348029397253222 328.90808973361146 229.77122162177895
188.12508868773136 5.859506730761704 0.19624002664828616 0.10723125726635341 329.50063467169656 223.25532754899416
191.47199658539387 6.224818666062787 0.19962287866394354 0.11114950466071183 330.116072530961 216.48769248606067
194.88301649425165 6.610906017540677 0.2030640454278977 0.11544544815415358 330.7555888744374 209.45527944178855
198.3602890613904 7.020342674256472 0.2065645321895225 0.11979382346787826 331.42129567013734 202.13486425381728
201.9044613376726 7.452308308070558 0.2101253615270204 0.12397650239191993 332.11220306471756 194.53733180043582
205.5170562570145 7.907903230714149 0.21374757364614289 0.1283699626450635 332.8290718474655 186.65431609606236
209.2000509218192 8.389163756231573 0.21743222668406043 0.1331367755092301 333.57341318817043 178.4691996292817
212.95568685700158 8.89862029273525 0.22118039701847075 0.1379109881763032 334.34705688852574 169.96186106710758
216.7847142491265 9.435507109353031 0.224993179582034 0.1425188764530203 335.149090910276 161.14232959767526
223.96990155294876 10.491682249856987 0.23215028549578554 0.008468642314518 335.9803024130194 152.00194925545344
242.00138902392783 10.665611326125312 0.2952622248925828 0.010823063547048477 336.84253077264475 142.52049342524097
294.40149981399617 11.412002555012494 0.48278409821102636 0.01644768734963903 337.73719306437926 133.28139550847803
343.6253231234151 12.323515693264202 0.6587140450915958 0.02147979814731274 338.6634726746745 124.18129519545133
387.6580015334317 13.386001880231962 0.8181342423821896 0.02853606047313484 339.6221443059857 115.26962762822765
425.7168787491757 14.617008672447595 0.9585124268876561 0.03656180161518688 340.61534675451054 106.59107741751305
459.7840411642101 15.991159197310985 1.08640225059814 0.045063092867880516 341.6439533067965 98.12539622926718
490.3471828467708 17.498029506265723 1.2033874923960004 0.055059512298456015 342.70726027181 89.82848035118751
518.0724787507305 19.16933957890839 1.3131845960782196 0.06288164654510064 343.8059831368225 81.7545561295373
545.1990001979668 20.944121390756393 1.422295285719344 0.07146870689475648 344.9424917462097 73.60398728470219
570.8806345599963 22.92647339520001 1.5326520198134985 0.07658814112204754 346.11701155796936 65.71231770540986
598.5939547500981 25.03100158968753 1.656803046377207 0.07504129509860019 347.328966229596 57.678083692640456
629.269690178407 27.30245928997819 1.802518216681645 0.08994090906653851 348.57896372915343 49.57709524129154
653.6667905317315 29.805147823283576 1.9212641649773199 0.13168697080208402 349.86949367684684 41.23845807542709
670.9686636476465 32.44070737944047 2.002115212752699 0.3898036188284717 351.2000887836266 32.94320430238804
676.8255058250487 35.19454355543002 2.0192080976816777 0.4747103848379344 352.5703075794808 24.967224011088515
682.8014097372445 38.05892186983707 2.036292140859411 0.48046480721730855 353.98060905644974 17.54113076251763
688.9724550749087 41.031178744301954 2.053779357973105 0.4822124432997854 355.4334521442952 10.337188480464423
695.3536665995036 44.112018637353245 2.071729250995233 0.48271606800902545 356.9277197298895 4.068141395301313
701.9669415844179 47.3037871833388 2.0902304114847587 0.48204315922617624 358.4631014669581 0.0
708.8513587635537 50.6181637474273 2.1093855600969103 0.48095073603759886 360.03988091456415 0.0
716.0034238907972 54.05438122537424 2.129201325618743 0.4799563538730003 361.66030746350987 0.0
723.4237076013419 57.61198479230425 2.1496704960788056 0.4789332309276957 363.3227610243933 0.0
731.1196527119018 61.293759229761655 2.170804139639112 0.4778813966373745 365.0270429856405 0.0
739.1001910154106 65.10318135729962 2.192617153091302 0.4768041706111905 366.7732551876847 0.0
747.3825949268954 69.04766890785343 2.215146727321484 0.47570378945428216 368.5632457970251 0.0
755.9671221317823 73.12650888350366 2.2383834207380597 0.4745846719607898 370.39513942729127 0.0
764.8621156435589 77.34283136087215 2.2623396742890693 0.47344959945380616 372.26881070045994 0.0
774.0766436052934 81.70008952134265 2.2870296126537832 0.4723010064990727 374.18425749083553 0.0
783.6252091122112 86.20427342788645 2.312481501644856 0.47114075808314926 376.1425479489815 0.0
793.5093555559117 90.85524124349938 2.3386888147426372 0.46997206929242186 378.1420680020603 0.0
803.7376496202492 95.65615522513045 2.36566361489092 0.46879678977093153 380.18264288681297 0.0
814.3191754077359 100.61040185381923 2.3934190794693926 0.46761670043958325 382.2641765278808 0.0
825.2645748085564 105.72207482012456 2.42197217817727 0.4664332926546759 384.38684656688184 0.0
836.5782649216237 110.99234608665363 2.451323438062487 0.46524852223347857 386.54960838431725 0.0
848.2686061859692 116.42422008854439 2.481483535058279 0.46406372517975836 388.75217980057613 0.0
860.3440286714743 122.02071886459653 2.5124631175692795 0.4628602304620477 390.99427615507426 0.0
872.8184319864815 127.78687004012751 2.5442803799084404 0.46159391991851617 393.27543963785325 0.0
885.7144128276555 133.73098115579072 2.576966597255994 0.4603422686146761 395.59516773161965 0.0
899.0218752362362 139.8489333145123 2.610502397607328 0.4591560069905043 397.95311125729603 0.0
912.7478759488974 146.14306292006845 2.644894174077872 0.4579758647382368 400.3486982341418 0.0
926.8981717846212 152.61510507741727 2.68014496725453 0.4567096045997685 402.78113502043635 0.0
941.5192980677843 159.28260731544725 2.7163244650156337 0.4554312066425501 405.2503908250171 0.0
956.590551358283 166.13740459794235 2.753396702326005 0.4542530762192598 407.7560864453435 0.0
972.1128051622906 173.1792775498694 2.7913558674503283 0.4530258674341514 410.2972643916196 0.0
988.1218271570879 180.42125812445306 2.8302495823223452 0.4517568904042859 412.8731075256692 0.0
1004.6232976777493 187.8655047103178 2.8700860728773883 0.4505638852212108 415.48395412590855 0.0
1021.6060658447849 195.5074975729318 2.910844279933278 0.44932964556654476 418.12942481666244 0.0
1039.120344204515 203.36534271991022 2.9525884749301343 0.44807612901116034 420.80808286670407 0.0
1057.1396518379502 211.42865748070273 2.995273590864217 0.44689073034089866 423.519388423576 0.0
1075.690058439754 219.70737178523743 3.0389391941388615 0.44565415160540933 426.263926491692 0.0
1094.8056976523421 228.21396649044348 3.0836306333345775 0.44445657965501084 429.04133904117657 0.0
1114.445714054211 236.9319926681573 3.1292734218982425 0.44323862526256086 431.84962364736657 0.0
1134.6865769968906 245.88991670073196 3.1759758618120473 0.44203638131500966 434.68879187402194 0.0
1155.4770412942185 255.06874167403495 3.22366528973196 0.4408391284818727 437.55954505588323 0.0
1176.91025193928 264.50291244676424 3.2724704300089065 0.43964077997437645 440.4615602408136 0.0
1198.901857911611 274.1594677110686 3.3222510515149346 0.4384623199298199 443.39219174670734 0.0
1221.554154224018 284.07672363229364 3.373154261656999 0.43727097079274024 446.35224304333093 0.0
1244.8170690117379 294.236197461523 3.425110301385654 0.4361148811902984 449.3424024244641 0.0
1268.7644851644134 304.66500530993665 3.478217734922393 0.4349348337668779 452.3623894048231 0.0
1293.3476393227877 315.34312056195216 3.5323828395270773 0.433801058055697 455.4088468583903 0.0
1318.611991092077 326.2881241602306 3.5876771433339787 0.43263763214071016 458.48357591050296 0.0
1344.5970850340423 337.5147090468759 3.6441547752882126 0.43151085375508025 461.5871295346198 0.0
1371.2779995866179 349.01333302807313 3.7017763076062087 0.43037893344418254 464.7192724425523 0.0
1398.6955272347625 360.7966588929013 3.7605652175957722 0.42923455029738555 467.87587687666405 0.0
1426.853188704462 372.86731583101704 3.820542239961135 0.42815734658527127 471.0599151315838 0.0
1455.762465340288 385.22948987901685 3.8817211936729867 0.4270391557401396 474.2716930347005 0.0
1485.5033793869682 397.91226437630166 3.9442031962282527 0.4259193136438686 477.5110201023164 0.0
1515.9961926142641 410.8834017259771 4.00784238936046 0.42486742291469604 480.77294680996494 0.0
1547.2986261918677 424.166205009783 4.072741622141806 0.4237902678090659 484.06176219100337 0.0
1579.472188110339 437.78294378320885 4.138976631375097 0.422701652146257 487.37742484726095 0.0
1612.515497483628 451.7325570370043 4.206536711687337 0.42165469693113167 490.71942709513365 0.0
1646.3854639173148 465.99639241818323 4.275326193144107 0.4206319700119776 494.0830324628434 0.0
1681.1521376753658 480.6024077532555 4.345465409042176 0.41958507660937894 497.47289006040484 0.0
1716.8794550942216 495.573586110464 4.417030013224077 0.41853790020794435 500.8888825459008 0.0
1753.5502200443048 510.9027890335732 4.489984677136109 0.417530771402828 504.3299917615031 0.0
1791.136651091657 526.5773387731291 4.564258179636145 0.4165393481110371 507.7922253856572 0.0
1829.7129145604456 542.6265704237977 4.6399739191442695 0.4155551358544658 511.2801267663313 0.0
1869.305031110307 559.0596144536818 4.717158304747084 0.41455740795406637 514.7936148893198 0.0
1909.9554639501957 575.8906389289926 4.795845293473296 0.4135657081889832 518.3310928584808 0.0
1951.623915572043 593.1028983874269 4.87595400724515 0.412606889832591 521.8894715714698 0.0
1994.3829536785393 610.724965107633 4.957602823466286 0.41165934112811353 525.4730848306887 0.0
2038.2607701958937 628.7667134086718 5.04081965385965 0.4107200811426557 529.0818842067226 0.0
2083.2586820504707 647.2269645187762 5.125581247733267 0.40978995092614046 532.7136335653959 0.0
2129.3787550640845 666.1049097658815 5.211866478182924 0.408869548980082 536.3662857953279 0.0
2176.7008149182507 685.4315061929738 5.299798670032578 0.4079578796238126 540.0438741161018 0.0
2225.25549181446 705.2174617705592 5.389407387801425 0.40704986828106193 543.7463790946406 0.0
2275.0460319108174 725.461790933694 5.480663983011296 0.40614990014819163 547.4708712870953 0.0
2326.082368743852 746.1671778306101 5.573565183004692 0.4052668585133947 551.216467733508 0.0
2378.4387550253186 767.3622795780091 5.668223003657946 0.4043960784674212 554.9868210458568 0.0
2432.148294612461 789.0586503043407 5.764668654977789 0.40353444771753466 558.781937487146 0.0
2487.191326776683 811.2465463078264 5.862838663664843 0.4026828702330896 562.5981454122898 0.0
2543.6048208708203 833.9391241425362 5.962771419989043 0.4018414036703417 566.4358348263322 0.0
2601.4691530246077 857.1668945399688 6.064580518286355 0.40100935941630933 570.2982070044372 0.0
2660.820195849841 880.9423566398603 6.168298965732691 0.40018664078389854 574.1852909518561 0.0
2721.624218778167 905.2501588029864 6.273838409457357 0.39937421643619864 578.0926279967849 0.0
2783.9421410326295 930.1128647822369 6.381275718559424 0.3985718262230442 582.021979385741 0.0
2847.8525998992386 955.5599650291529 6.49071606801812 0.3977789099402811 585.9760320290837 0.0
2913.3944158177287 981.6049638094622 6.60219433485744 0.3969914260004552 589.9548350790684 0.0
2980.530103295416 1008.2305429604793 6.71560804172293 0.39621063894007325 593.9531011119569 0.0
3049.3490746830707 1035.470340883679 6.831078087320153 0.3954425698617987 597.9740527294582 0.0
3119.9184638644983 1063.3493029076676 6.948689692697766 0.39468650890837864 602.019805726412 0.0
3192.2803889325296 1091.8820556252822 7.068479770590877 0.39393987532834807 606.0904271513187 0.0
3266.3639154796565 1121.0387296681763 7.190299100705995 0.3932036798140208 610.1797613821134 0.0
3342.2941700466185 1150.8666756871698 7.314321521360078 0.3924769824191383 614.2925763096104 0.0
3420.1411101306244 1181.3913551601074 7.440627307776436 0.3917595577746802 618.4303648993331 0.0
3499.950192180374 1212.6285307216265 7.569255393686421 0.39104736384529737 622.5932101621104 0.0
3581.6447457849154 1244.545585395766 7.7000388213782776 0.390336131667957 626.7740504200112 0.0
3665.416348490098 1277.2144712151635 7.83323613628457 0.38963697387927887 630.9792782513232 0.0
3751.289908459456 1310.6441715552091 7.968871714365215 0.3889555861744842 635.2097160524316 0.0
3839.314609774752 1344.8517155087095 8.106986686404959 0.3882704297587516 639.4654611461091 0.0
