e[MeV/fm^3], P[MeV/fm^3], rho[fm^-3], v2[1], mu_q[MeV], mu_e[MeV]
70.21755168181654 0.006206087273093519 0.07407856508846018 0.017597877650005332 316.5185077347417 89.2771661002368
71.43578994790998 0.027644495228360377 0.07535555647246353 0.0175978776500052 316.5894798429086 89.8124074562691
72.67502861766434 0.04945246571785267 0.07665456106626496 0.017597877650005228 316.6616753923034 90.35687548400062
73.93562970314778 0.07163636938565421 0.07797595834102777 0.01759787765000538 316.7351154730202 90.91072923592193
75.21796145691394 0.09420268669514797 0.07932013430936638 0.01759787765000533 316.8098215387112 91.47413050632369
76.5223984795798 0.11715800982215896 0.0806874816381126 0.01759787765000522 316.8858154128541 92.04724387856187
77.84932182925448 0.14050904458066893 0.08207839976302188 0.017597877650005325 316.96311929512683 92.630236773136
79.19911913285509 0.16426261238173973 0.08349329500545777 0.017597877650005436 317.0417557678931 93.22327949659658
80.57218469934486 0.18842565222626206 0.08493258069109116 0.017597877650005332 317.12174780279906 93.82654529129692
81.96891963491473 0.21300522273190858 0.08639667727063695 0.017597877650005284 317.20311876748366 94.44021038599915
83.38973196016327 0.23800850419525207 0.0878860124426853 0.017597877650005242 317.2858924324053 95.06445404735784
84.83503672928572 0.26344280068923775 0.08940102127863886 0.01759787765000527 317.37009297778565 95.69945863228664
86.3052561513196 0.28931554219685157 0.0909421463498059 0.01759787765000538 317.45574500067295 96.34540964122833
87.80081971348744 0.3156342867816875 0.09250983785669148 0.017597877650005325 317.54287352212793 97.00249577234631
89.32216430665855 0.3424067227958098 0.09410455376051008 0.01759787765000531 317.63150399453286 97.67090897664707
90.86973435297011 0.3696406711256137 0.09572675991696154 0.017597877650005242 317.7216623090265 98.3508445140514
92.44398193566516 0.39734408747669764 0.0973769302123309 0.017597877650005228 317.8133748030682 99.04250101043964
94.04536693114535 0.4255250646977123 0.09905554670190979 0.01759787765000531 317.90666826813106 99.74608051566989
95.67435714332068 0.45419183514462985 0.10076309975082554 0.017892055534992374 318.00156995752883 100.46178856260559
97.33169327479138 0.4843410207312542 0.10250008817728433 0.018775745774211428 318.10048622561175 101.18570399772256
99.01814146064449 0.5170082040359527 0.10426701939828847 0.020025246310001077 318.2058447860128 101.91428658825437
100.73429318912723 0.5525181669555139 0.1060644095778678 0.02129999675038627 318.31828524079526 102.64750316311726
102.48063871606901 0.5907964457966746 0.10789278377786223 0.022549781036994038 318.43751805132047 103.38670836290729
104.25774423592242 0.6320103592916358 0.10975267611130558 0.023887708108000116 318.5638120290785 104.13237516689382
106.06623539667063 0.676492214395437 0.11164462989845152 0.025339806313660923 318.697770868173 104.88465247088972
107.90674784282342 0.7245234535359056 0.11356919782549418 0.026726883379044414 318.8398212612412 105.64215664334085
109.77980899298537 0.7757858510810522 0.11552694210601787 0.028008654354195556 318.9889635986241 106.39548846211913
111.68603200563659 0.8304189676497289 0.11751843464523576 0.02941848660514751 319.1453310518051 107.14305877628786
113.62612253642692 0.8889903796251314 0.1195442572070575 0.0310000273545607 319.31003653378224 107.89037199216354
115.60075117782822 0.9518318179215621 0.1216050015840337 0.03259969837934959 319.4836179784206 108.6399435927219
117.61049319554543 1.0189345897359714 0.12370126977023699 0.03419210470702347 319.6659546827271 109.3941654142798
119.65602415051524 1.0905481505064962 0.12583367413711752 0.03592218882239359 319.8573917239201 110.15411877028433
121.73815641876267 1.1672766767204164 0.12800283761239192 0.03778190969818496 320.0588603075681 110.92020174565145
123.85759205422588 1.2493614886182018 0.1302093938620144 0.0396255479711905 320.27062777688235 111.69348487044105
126.01496433860267 1.3368161240061027 0.13245398747528928 0.041461386350795104 320.4925793312381 112.47517112638602
128.2110155783424 1.429932568241939 0.13473727415316794 0.04346252473119688 320.7250671173629 113.26594974297757
130.4466887956552 1.52951487508801 0.1370599208997976 0.045590760196347446 320.969220213987 114.06610244230104
132.72270298041246 1.6357091714792171 0.13942260621736857 0.04767926014436641 321.22510082538804 114.87651716166351
135.03976205186157 1.748593799706529 0.14182602030432198 0.04977029748745049 321.49267975935425 115.69799950047124
137.3986835249372 1.8685229353243933 0.14427086525697244 0.05206400529136951 321.77234677231564 116.53110782929468
139.80057355445675 1.9965668028217445 0.14675785527460983 0.05448295484632937 322.0654823434704 117.37614392238619
142.24614757531495 2.1327305435734982 0.1492877168681315 0.05683638595368079 322.37191652081754 118.23384218287305
144.73619757503982 2.2771938463603174 0.15186118907227755 0.059208520968313694 322.69174413674494 119.10477732777403
147.27162660197732 2.430390920319256 0.15447902366151722 0.0618292055008095 323.0254080857181 119.98940983187808
149.85374556019306 2.5937403356179334 0.15714198536966398 0.06457197399617759 323.3745941649684 120.88804723823948
152.4832372283129 2.7670401807274834 0.15985085211327107 0.06721882453614525 323.7388555425644 121.80124809303793
155.16100474728017 2.9506159576823916 0.1626064152188807 0.06990575565196155 324.1184454344821 122.72942464238325
157.8880490867394 3.1450019316856195 0.16540947965419006 0.07289593855263288 324.5138717435153 123.67293532678868
160.66593902373984 3.3520690822739376 0.16826086426320178 0.07600220080988451 324.92718571735776 124.63202719571277
163.4952840125817 3.5713158744339593 0.17116140200542868 0.07897532922519734 325.3576004812541 125.6070903482084
166.37712853614147 3.8032695276021222 0.17411194019922174 0.08202037368123771 325.8055622707938 126.59840218489457
169.31260061973967 4.048620249866702 0.17711334076929286 0.08542133552471287 326.2716886567447 127.60620334892384
172.303551331823 4.309718566586897 0.18016648049850292 0.0889270452590527 326.7583492276527 128.63058410314463
175.35050383107742 4.585737524453315 0.1832722512839939 0.09226446929582366 327.26444376458807 129.67181814230588
178.45466868853612 4.877441713994387 0.18643156039773165 0.09572802473872655 327.7906096931573 130.73004905217363
181.61738960046912 5.18586172672753 0.18964533075154347 0.09956214286511778 328.3377308078966 131.80536363429957
184.84067158507494 5.5134958934314255 0.19291450116672415 0.10348029397253222 328.90808973361146 132.89762523650757
188.12508868773136 5.859506730761704 0.19624002664828616 0.10723125726635341 329.50063467169656 134.00704679883177
191.47199658539387 6.224818666062787 0.19962287866394354 0.11114950466071183 330.116072530961 135.1336328978941
194.88301649425165 6.610906017540677 0.2030640454278977 0.11544544815415358 330.7555888744374 136.2772622126371
198.3602890613904 7.020342674256472 0.2065645321895225 0.11979382346787826 331.42129567013734 137.43754067535426
201.9044613376726 7.452308308070558 0.2101253615270204 0.12397650239191993 332.11220306471756 138.61467605675114
205.5170562570145 7.907903230714149 0.21374757364614289 0.12824935343505173 332.8290718474655 150.09398844264857
212.5873665356088 8.847641399206477 0.22079535306653952 0.025239042391563174 333.57341318817043 145.6818164041949
216.11934671184528 8.936785196600672 0.233941212772454 0.02523904239156359 334.34705688852574 141.09595113544492
237.49880653740541 9.476382289446718 0.3113491730580793 0.03013820917312776 335.149090910276 136.34179885189207
256.493686305412 10.131533592375058 0.38071673361729547 0.035697259155339806 335.9803024130194 131.87266124673639
275.49031237156976 10.832579132281788 0.4502454287097029 0.04110603160138088 336.84253077264475 127.33915110385112
292.92696967833973 11.616588565089613 0.5148066394860585 0.048883144355872765 337.73719306437926 122.92562492180615
309.2122388853961 12.47228440405298 0.575756621779486 0.05666419941019585 338.6634726746745 118.5818922445218
324.5189313207875 13.398900503333884 0.6334476436287162 0.06593851551054936 339.6221443059857 114.3010850268668
338.6839178952506 14.403728529468218 0.6873214915461349 0.07621520309748475 340.61534675451054 110.10102907585531
351.9794398545312 15.482912766664853 0.7380160497056483 0.08652292441056975 341.6439533067965 105.97943653282029
364.52771536158366 16.632032914624308 0.7859838775747681 0.09855574144392298 342.70726027181 101.91732602608268
376.2671319474111 17.865676841256242 0.8311535728367924 0.10812406026054044 343.8059831368225 97.96856211871773
387.9163897179592 19.160365570537994 0.8761070296133737 0.12087469894577352 344.9424917462097 93.98409635564418
398.69110017111353 20.55977805903988 0.9180200463789661 0.1330788508982339 346.11701155796936 90.15169673813269
409.4462466076504 22.025409109257165 0.9599296443450622 0.1421426909485778 347.328966229596 86.28996041177197
419.91954760606177 23.573981104382725 1.000868793615666 0.15479692094730813 348.57896372915343 82.4655209815692
430.10362257624877 25.219149473493317 1.0407532458121584 0.16571580098469307 349.86949367684684 78.69947205262278
440.2600745325781 26.944497611135173 1.0805522411813004 0.17503242324260548 351.2000887836266 74.92429632439809
450.32432815505746 28.75748225255426 1.1200007215480616 0.1867678659907266 352.5703075794808 71.16657027930806
460.2413209183355 30.674414879548504 1.1588351842600109 0.19741571877843622 353.98060905644974 67.46430159818624
470.21184118975253 32.6840319693946 1.1978312222894372 0.20582815560459156 355.4334521442952 63.7538806896613
480.22894756257165 34.78883019295237 1.2369467502107747 0.21437374064942083 356.9277197298895 60.04473050645909
490.30540707780654 36.992071247947244 1.2762143892680664 0.2237715277721819 358.4631014669581 56.340792773964296
500.4288817653775 39.30948281608769 1.3155423309658583 0.23252426245915103 360.03988091456415 52.667661641798965
510.69802399256264 41.73490863102838 1.35533221133384 0.2396502270238441 361.66030746350987 48.98702505660434
521.121248953136 44.269488929224046 1.395610472287594 0.24646110515458375 363.3227610243933 45.30279583612203
531.7183205396013 46.91674917432332 1.4364514128955799 0.25290091072142573 365.0270429856405 41.615083168900036
542.5129911246053 49.68071269860691 1.477952358652982 0.25891179060299896 366.7732551876847 37.922458307350716
553.5414064150746 52.56835627643144 1.52027132605311 0.26444688262898675 368.5632457970251 34.219318589811174
564.8190442487384 55.5807946574239 1.563512062360761 0.2694238399647748 370.39513942729127 30.507263627371703
576.3766969055475 58.72203638733868 1.6078897754361636 0.2736806612109297 372.26881070045994 26.783617153278293
588.2569351952693 61.996529690291624 1.6537899513535912 0.27678095406150227 374.18425749083553 23.044718473148787
600.5404717026421 65.41105706251533 1.7020935329955145 0.2773282051044945 376.1425479489815 19.283427443852734
613.400345752723 68.96874248937524 1.755240600646787 0.2731369832327659 378.1420680020603 15.493861357796476
627.1713477710271 72.67830563185149 1.8181616663854971 0.2759448936484006 380.18264288681297 11.654820698862698
640.8663870099383 76.54686093541292 1.8767056998171645 0.3079605915545889 382.2641765278808 7.7548627516597115
653.020923108668 80.56486158047848 1.9084196575548065 0.33059747956470176 384.38684656688184 3.855640888655221
665.6120350499098 84.72772870048274 1.9410854638271282 0.33063372720165685 386.54960838431725 0.8341956208615333
678.6514261894258 89.03918332775379 1.9747250659528615 0.3306608174339636 388.75217980057613 0.0
692.1505370971784 93.50298304112376 2.0093561519599383 0.33068631089251976 390.99427615507426 0.0
706.127901197728 98.12528984987297 2.045005887601167 0.3307130741240938 393.27543963785325 0.0
720.6133567602052 102.9160237124233 2.0817197862496815 0.33073953498912045 395.59516773161965 0.0
735.5944378838425 107.87105094805375 2.119472177473139 0.3307646098289463 397.95311125729603 0.0
751.0810103051858 112.99365789106197 2.1582741556067973 0.3307895512142194 400.3486982341418 0.0
767.0814843627951 118.28664970030059 2.1981329873441453 0.33081630567764186 402.78113502043635 0.0
783.6563809178958 123.77013816471597 2.2391459323435026 0.33084332489183765 405.2503908250171 0.0
800.7795373328972 129.43543940182855 2.2812643048148384 0.330868217859253 407.7560864453435 0.0
818.4532531857434 135.2833308050176 2.3244836569465415 0.33089413906720555 410.2972643916196 0.0
836.7250109963708 141.3296023140822 2.368873489761831 0.33092094248501613 412.8731075256692 0.0
855.6021679087942 147.57670056231035 2.4144439805048545 0.3309461364818649 415.48395412590855 0.0
875.0708919597737 154.0200377218094 2.46116722178641 0.3309721884742616 418.12942481666244 0.0
895.1982426743947 160.68191859406238 2.509138287618322 0.3309986499058901 420.80808286670407 0.0
915.9506248677733 167.55118957806698 2.558296416823605 0.3310236619856961 423.519388423576 0.0
937.3617380440745 174.6390499089101 2.6086945329473306 0.33104974444285595 426.263926491692 0.0
959.4768064295095 181.9605397898612 2.660397217532068 0.331075001417811 429.04133904117657 0.0
982.244904758055 189.4987597592437 2.713308278850236 0.3311006707459532 431.84962364736657 0.0
1005.7662755584846 197.28703509752853 2.767578644082653 0.33112601123468277 434.68879187402194 0.0
1029.9735815276326 205.30298164420188 2.8231043477228424 0.3311512248051369 437.55954505588323 0.0
1054.9894116940802 213.58735949776042 2.8800660620050618 0.3311764645098809 440.4615602408136 0.0
1080.7065019141573 222.10454656218627 2.9382784023640194 0.33120126275296435 443.39219174670734 0.0
1107.2584539855045 230.8989551164145 2.99794336971467 0.33122633331035267 446.35224304333093 0.0
1134.5793024826423 239.94865422000743 3.0589610961919234 0.33125064157797546 449.3424024244641 0.0
1162.7667257821042 249.2861282840588 3.1214700502491177 0.33127544923976426 452.3623894048231 0.0
1191.760772391341 258.8914903497761 3.1853523931788805 0.3312992691516623 455.4088468583903 0.0
1221.6196478295874 268.7840791967678 3.250700963669133 0.3313236997071094 458.48357591050296 0.0
1252.3952573480494 278.9811549442913 3.3175891084992846 0.331347352848292 461.5871295346198 0.0
1284.0554962383198 289.47205217525925 3.3859627643865027 0.33137109508746754 464.7192724425523 0.0
1316.6591895987278 300.2763881870768 3.4558704090191292 0.33139509301314796 467.87587687666405 0.0
1350.2081662419182 311.3947440513955 3.5273296070381166 0.33141766809001005 471.0599151315838 0.0
1384.7176692858268 322.83219217747114 3.600358456213567 0.33144108480305423 474.2716930347005 0.0
1420.2941077345429 334.62413083815915 3.6750986424513856 0.3314645305003445 477.5110201023164 0.0
1456.838362225957 346.73766524403817 3.7513657254467976 0.3314865384800054 480.77294680996494 0.0
1494.4222635273152 359.1966393434609 3.829286713011517 0.3315090590723244 484.06176219100337 0.0
1533.1277846026824 372.02832590057557 3.908967341785915 0.3315318097848552 487.37742484726095 0.0
1572.9542802027383 385.2325259255252 3.9903946267706174 0.33155367752998544 490.71942709513365 0.0
1613.850797221426 398.79236052455195 4.073453277253091 0.33157502459819543 494.0830324628434 0.0
1655.9051933429002 412.7370016285004 4.158293300392759 0.3315968613371556 497.47289006040484 0.0
1699.2030315427473 427.0949214172002 4.245020607405002 0.33161869451594406 500.8888825459008 0.0
1743.7233351019952 441.8591650824624 4.333589836080073 0.33163967958273677 504.3299917615031 0.0
1789.4346379121725 457.01932714096546 4.423916938122984 0.3316603236857194 507.7922253856572 0.0
1836.4305237037588 472.60648767466364 4.516156597213054 0.3316808043180153 511.2801267663313 0.0
1884.7462918141398 488.63240009054186 4.610345938233116 0.3317015525768561 514.7936148893198 0.0
1934.4410967022939 505.116776023486 4.706538392560823 0.3317221652582436 518.3310928584808 0.0
1985.4658094802705 522.0433232790011 4.804633003487025 0.33174208160970586 521.8894715714698 0.0
2037.9122745845686 539.4425480533304 4.904778255009659 0.33176175102833216 525.4730848306887 0.0
2091.818775756377 557.3271981809103 5.007013242483167 0.33178123582243835 529.0818842067226 0.0
2147.190584962644 575.6990693223526 5.111314087995056 0.3318005188625843 532.7136335653959 0.0
2204.033762630209 594.5602172615311 5.217659152954934 0.33181958803923894 536.3662857953279 0.0
2262.4503425680996 613.9445444592933 5.326204965266555 0.3318384642827015 540.0438741161018 0.0
2322.4819634048617 633.8659166299057 5.436992813771354 0.3318572527746282 543.7463790946406 0.0
2384.1375413100627 654.327354452898 5.549993941734238 0.33187586364680133 547.4708712870953 0.0
2447.432256865201 675.3339333748901 5.665207157457836 0.33189411301784677 551.216467733508 0.0
2512.4613158852035 696.9172911573768 5.782774676369908 0.33191209741665606 554.9868210458568 0.0
2579.2697596167363 719.0924272509734 5.9027399831764855 0.33192988150900415 558.781937487146 0.0
2647.8369608126104 741.852544021717 6.025028606770662 0.3319474469372903 562.5981454122898 0.0
2718.212682532062 765.2142073493143 6.149692576968961 0.33196479280689584 566.4358348263322 0.0
2790.5010636698253 789.2120363444744 6.276878032031113 0.3319819336006855 570.2982070044372 0.0
2864.750958409691 813.8623009403168 6.406630875249216 0.3319988715977429 574.1852909518561 0.0
2940.9240784741496 839.1523398818355 6.538844956131672 0.3320155871525792 578.0926279967849 0.0
3019.1005463144816 865.1088032621028 6.673620712295951 0.33203208591030187 582.021979385741 0.0
3099.3830133068946 891.7658250717765 6.81109450813554 0.33204837967804934 585.9760320290837 0.0
3181.8243952705925 919.1410285961928 6.9513147767408 0.33206455166122595 589.9548350790684 0.0
3266.3826887060923 947.2205315853889 7.094158840435255 0.33208057645404754 593.9531011119569 0.0
3353.174383155723 976.0430668789567 7.239782938729128 0.3320963306681861 597.9740527294582 0.0
3442.2876058718134 1005.6379453343848 7.388297799136773 0.33211182899200153 602.019805726412 0.0
3533.7798207012406 1036.0243056934778 7.539754624355755 0.33212712469063277 606.0904271513187 0.0
3627.565378830015 1067.173754151737 7.693968888741983 0.3321421973458776 610.1797613821134 0.0
3723.8067119870016 1099.1402916820928 7.851164734207992 0.33215706649870924 614.2925763096104 0.0
3822.596786103024 1131.954851906889 8.011448370573175 0.3321717370443924 618.4303648993331 0.0
3923.997669445796 1165.6381078011023 8.174873756998963 0.3321862917944429 622.5932101621104 0.0
4027.91749331481 1200.1596128587812 8.341235099139633 0.3322008182999383 626.7740504200112 0.0
4134.606108149461 1235.602443732386 8.51086842353981 0.33221509027841734 630.9792782513232 0.0
4244.096792403104 1271.977677439796 8.683804573436287 0.3322289911066747 635.2097160524316 0.0
4356.456760025589 1309.3077015852557 8.860100516185774 0.3322429722688156 639.4654611461091 0.0
