e[MeV/fm^3], P[MeV/fm^3], rho[fm^-3], v2[1], mu_q[MeV], mu_e[MeV]
70.21755168181654 0.006206087273093519 0.07407856508846018 0.017597877650005332 316.5185077347417 89.2771661002368
71.43578994790998 0.027644495228360377 0.07535555647246353 0.0175978776500052 316.5894798429086 89.8124074562691
72.67502861766434 0.04945246571785267 0.07665456106626496 0.017597877650005228 316.6616753923034 90.35687548400062
73.93562970314778 0.07163636938565421 0.07797595834102777 0.01759787765000538 316.7351154730202 90.91072923592193
75.21796145691394 0.09420268669514797 0.07932013430936638 0.01759787765000533 316.8098215387112 91.47413050632369
76.5223984795798 0.11715800982215896 0.0806874816381126 0.01759787765000522 316.8858154128541 92.04724387856187
77.84932182925448 0.14050904458066893 0.08207839976302188 0.017597877650005325 316.96311929512683 92.630236773136
79.19911913285509 0.16426261238173973 0.08349329500545777 0.017597877650005436 317.0417557678931 93.22327949659658
80.57218469934486 0.18842565222626206 0.08493258069109116 0.017597877650005332 317.12174780279906 93.82654529129692
81.96891963491473 0.21300522273190858 0.08639667727063695 0.017597877650005284 317.20311876748366 94.44021038599915
83.38973196016327 0.23800850419525207 0.0878860124426853 0.017597877650005242 317.2858924324053 95.06445404735784
84.83503672928572 0.26344280068923775 0.08940102127863886 0.01759787765000527 317.37009297778565 95.69945863228664
86.3052561513196 0.28931554219685157 0.0909421463498059 0.01759787765000538 317.45574500067295 96.34540964122833
87.80081971348744 0.3156342867816875 0.09250983785669148 0.017597877650005325 317.54287352212793 97.00249577234631
89.32216430665855 0.3424067227958098 0.09410455376051008 0.01759787765000531 317.63150399453286 97.67090897664707
90.86973435297011 0.3696406711256137 0.09572675991696154 0.017597877650005242 317.7216623090265 98.3508445140514
92.44398193566516 0.39734408747669764 0.0973769302123309 0.017597877650005228 317.8133748030682 99.04250101043964
94.04536693114535 0.4255250646977123 0.09905554670190979 0.01759787765000531 317.90666826813106 99.74608051566989
95.67435714332068 0.45419183514462985 0.10076309975082554 0.017892055534992374 318.00156995752883 100.46178856260559
97.33169327479138 0.4843410207312542 0.10250008817728433 0.018775745774211428 318.10048622561175 101.18570399772256
99.01814146064449 0.5170082040359527 0.10426701939828847 0.020025246310001077 318.2058447860128 101.91428658825437
100.73429318912723 0.5525181669555139 0.1060644095778678 0.02129999675038627 318.31828524079526 102.64750316311726
102.48063871606901 0.5907964457966746 0.10789278377786223 0.022549781036994038 318.43751805132047 103.38670836290729
104.25774423592242 0.6320103592916358 0.10975267611130558 0.023887708108000116 318.5638120290785 104.13237516689382
106.06623539667063 0.676492214395437 0.11164462989845152 0.025339806313660923 318.697770868173 104.88465247088972
107.90674784282342 0.7245234535359056 0.11356919782549418 0.026726883379044414 318.8398212612412 105.64215664334085
109.77980899298537 0.7757858510810522 0.11552694210601787 0.028008654354195556 318.9889635986241 106.39548846211913
111.68603200563659 0.8304189676497289 0.11751843464523576 0.02941848660514751 319.1453310518051 107.14305877628786
113.62612253642692 0.8889903796251314 0.1195442572070575 0.0310000273545607 319.31003653378224 107.89037199216354
115.60075117782822 0.9518318179215621 0.1216050015840337 0.03259969837934959 319.4836179784206 108.6399435927219
117.61049319554543 1.0189345897359714 0.12370126977023699 0.03419210470702347 319.6659546827271 109.3941654142798
119.65602415051524 1.0905481505064962 0.12583367413711752 0.03592218882239359 319.8573917239201 110.15411877028433
121.73815641876267 1.1672766767204164 0.12800283761239192 0.03778190969818496 320.0588603075681 110.92020174565145
123.85759205422588 1.2493614886182018 0.1302093938620144 0.0396255479711905 320.27062777688235 111.69348487044105
126.01496433860267 1.3368161240061027 0.13245398747528928 0.041461386350795104 320.4925793312381 112.47517112638602
128.2110155783424 1.429932568241939 0.13473727415316794 0.04346252473119688 320.7250671173629 113.26594974297757
130.4466887956552 1.52951487508801 0.1370599208997976 0.045590760196347446 320.969220213987 114.06610244230104
132.72270298041246 1.6357091714792171 0.13942260621736857 0.04767926014436641 321.22510082538804 114.87651716166351
135.03976205186157 1.748593799706529 0.14182602030432198 0.04977029748745049 321.49267975935425 115.69799950047124
137.3986835249372 1.8685229353243933 0.14427086525697244 0.05206400529136951 321.77234677231564 116.53110782929468
139.80057355445675 1.9965668028217445 0.14675785527460983 0.05448295484632937 322.0654823434704 117.37614392238619
142.24614757531495 2.1327305435734982 0.1492877168681315 0.05683638595368079 322.37191652081754 118.23384218287305
144.73619757503982 2.2771938463603174 0.15186118907227755 0.059208520968313694 322.69174413674494 119.10477732777403
147.27162660197732 2.430390920319256 0.15447902366151722 0.0618292055008095 323.0254080857181 119.98940983187808
149.85374556019306 2.5937403356179334 0.15714198536966398 0.06457197399617759 323.3745941649684 120.88804723823948
152.4832372283129 2.7670401807274834 0.15985085211327107 0.06721882453614525 323.7388555425644 121.80124809303793
155.16100474728017 2.9506159576823916 0.1626064152188807 0.06990575565196155 324.1184454344821 122.72942464238325
157.8880490867394 3.1450019316856195 0.16540947965419006 0.07289593855263288 324.5138717435153 123.67293532678868
160.66593902373984 3.3520690822739376 0.16826086426320178 0.07600220080988451 324.92718571735776 124.63202719571277
163.4952840125817 3.5713158744339593 0.17116140200542868 0.07897532922519734 325.3576004812541 125.6070903482084
166.37712853614147 3.8032695276021222 0.17411194019922174 0.08202037368123771 325.8055622707938 126.59840218489457
169.31260061973967 4.048620249866702 0.17711334076929286 0.08542133552471287 326.2716886567447 127.60620334892384
172.303551331823 4.309718566586897 0.18016648049850292 0.0889270452590527 326.7583492276527 128.63058410314463
175.35050383107742 4.585737524453315 0.1832722512839939 0.09226446929582366 327.26444376458807 129.67181814230588
178.45466868853612 4.877441713994387 0.18643156039773165 0.09572802473872655 327.7906096931573 130.73004905217363
181.61738960046912 5.18586172672753 0.18964533075154347 0.09956214286511778 328.3377308078966 131.80536363429957
184.84067158507494 5.5134958934314255 0.19291450116672415 0.10348029397253222 328.90808973361146 132.89762523650757
188.12508868773136 5.859506730761704 0.19624002664828616 0.10723125726635341 329.50063467169656 134.00704679883177
191.47199658539387 6.224818666062787 0.19962287866394354 0.11114950466071183 330.116072530961 135.1336328978941
194.88301649425165 6.610906017540677 0.2030640454278977 0.11544544815415358 330.7555888744374 136.2772622126371
198.3602890613904 7.020342674256472 0.2065645321895225 0.11979382346787826 331.42129567013734 137.43754067535426
201.9044613376726 7.452308308070558 0.2101253615270204 0.12397650239191993 332.11220306471756 138.61467605675114
205.5170562570145 7.907903230714149 0.21374757364614289 0.1283699626450635 332.8290718474655 139.80852765902867
209.2000509218192 8.389163756231573 0.21743222668406043 0.1331367755092301 333.57341318817043 141.01869117551004
212.95568685700158 8.89862029273525 0.22118039701847075 0.1379109881763032 334.34705688852574 142.2445530860434
216.7847142491265 9.435507109353031 0.224993179582034 0.1425209986125906 335.149090910276 143.4863497980139
220.6888478651131 10.001107919216421 0.22887168818223044 0.1473848211915132 335.9803024130194 144.74379875149575
224.67051841244387 10.598148441577159 0.23281705582673115 0.15260238957125072 336.84253077264475 146.0161250814302
228.73201076449018 11.228941923303356 0.23683043505437643 0.1577674592771845 337.73719306437926 147.30260528428684
232.87421847820065 11.892825884399452 0.2409129982718618 0.16276966708385543 338.6634726746745 148.60351662363965
237.09907459677976 12.591262929879372 0.2450659380962259 0.1680647442175771 339.6221443059857 149.91845083271977
241.4095830266287 13.327795359770137 0.24929046770324403 0.17367604335428166 340.61534675451054 151.2461733723472
245.80798450797525 14.104290408314728 0.25358782118182577 0.17916063314688135 341.6439533067965 152.5860269646372
250.29536865638684 14.920249387540146 0.2579592538945237 0.18448376658109078 342.70726027181 153.9383214680799
254.87391430339358 15.777295306389933 0.26240604284425445 0.19013115054428797 343.8059831368225 155.30255316107613
259.54734193097937 16.679902122692877 0.2669294870473437 0.19603884001981875 344.9424917462097 156.67695034502995
264.3177234138911 17.62921742422393 0.2715309079130002 0.20173455319505607 346.11701155796936 158.06114921462316
269.1864120746621 18.624978432827973 0.2762116496293318 0.20727097595137622 347.328966229596 159.45546560193614
274.15586021544175 19.66893704821644 0.28097307955601647 0.2131521958171756 348.57896372915343 160.8593430130801
279.2306731431928 20.76658998854091 0.28581658862374093 0.21922189252154145 349.86949367684684 162.27041922778363
284.412585417037 21.918069468750467 0.29074359174052566 0.2249894143101847 351.2000887836266 163.68887481305947
289.7032992122702 23.123430865940225 0.29575552820505524 0.2306016920899494 352.5703075794808 165.1149897852477
295.1055673860831 24.38451504681977 0.300853862127132 0.23656661428271297 353.98060905644974 166.5482047162215
300.6250734626658 25.70790002720107 0.3060400828553784 0.24263779812409947 355.4334521442952 167.985546141962
306.2629978571605 27.092417065261266 0.3113157054123131 0.24831998114039466 356.9277197298895 367.446076686113
312.0214966673664 28.538529352055203 0.3166822709369256 0.2538541104542591 358.4631014669581 355.2813133454662
317.9036494111742 30.048126085066315 0.3221413471348811 0.2597359108053192 360.03988091456415 342.78855772812756
323.9164360611114 31.628890065835524 0.32769452873648597 0.2656390932017807 361.66030746350987 329.94998800770077
330.06021547034334 33.278110584552124 0.3333434379625472 0.2710787578055842 363.3227610243933 316.77844008270523
336.3377248306841 34.996751726455315 0.3390897249982634 0.27638164452897485 365.0270429856405 303.27548754408264
342.75239563416363 36.78671837750218 0.3449350684752844 0.2820159576097043 366.7732551876847 289.4403235144691
349.3127469329602 38.65679115669434 0.35088117596208035 0.28759239956345484 368.5632457970251 275.25830505033207
356.0179982424811 40.60254779373834 0.3569297844627652 0.2926507180164095 370.39513942729127 260.7442907570709
362.87161894726887 42.62554485678177 0.3630826609245175 0.2976058496429581 372.26881070045994 245.89927399936124
369.8776838050342 44.72802159039085 0.3693416027537498 0.3028324596598386 374.18425749083553 230.72327161899747
377.04571989459646 46.91882012835673 0.3757084383411748 0.30843637620889197 376.1425479489815 215.20782070509404
389.69257170969587 50.86395164822859 0.38686647110641453 0.02563989025135474 378.1420680020603 199.36570948718918
417.9977816273886 51.615120103726944 0.4833490957349152 0.027436448534518293 380.18264288681297 183.33184336282636
511.207201854253 54.448173202163794 0.8012667004026125 0.03571205014156359 382.2641765278808 167.5666796539483
594.4643840894527 57.816911667258715 1.0872705602018031 0.04660835378175143 384.38684656688184 152.10083142821063
668.6357285687291 61.68005963664287 1.344747797011691 0.0589976298303973 386.54960838431725 136.95260362217593
734.9494613854094 66.00230563161838 1.5779876542739046 0.07279848915951548 388.75217980057613 122.11963056768619
794.6061605809385 70.75415911896688 1.791134542721794 0.08777828599541393 390.99427615507426 107.58651018929721
848.7357014896786 75.90461139170816 1.988509606259407 0.10030747842974175 393.27543963785325 93.45006775928256
901.6184190998255 81.47557732796453 2.189264290714521 0.10528232669143334 395.59516773161965 79.59080345619995
958.4685157735265 87.45701583023843 2.4183208409167536 0.09648413625941943 397.95311125729603 65.80937189350249
1034.7273748780135 93.92175249988757 2.756469224683576 0.15245800685406818 400.3486982341418 51.770431348899095
1072.2771041363615 100.8979552155121 2.9111746721726846 0.4404214431303721 402.78113502043635 37.44018636358861
1085.8715777653097 108.13850185978639 2.9460518084834537 0.5406950215356185 405.2503908250171 24.165354555937164
1099.405915312067 115.56539805353212 2.979580140460336 0.5496750364286012 407.7560864453435 11.843675739188061
1113.230564693017 123.17759995612016 3.0134298897133607 0.5500058106369585 410.2972643916196 1.0253344199170895
1127.4441637100874 130.98610890235753 3.0479635040599815 0.5484599382351485 412.8731075256692 0.0
1142.06769017425 138.99285207165568 3.0832672373600207 0.5466790670493964 415.48395412590855 0.0
1157.0923474042634 147.19346251217385 3.1193268563391294 0.5448206641773625 418.12942481666244 0.0
1172.556673040522 155.60299714341454 3.1561859631879394 0.5429272389346993 420.80808286670407 0.0
1188.4392454942 164.2118055264832 3.1938103234820225 0.5411297013167555 423.519388423576 0.0
1204.760764872552 173.0287877025233 3.232230252421654 0.5392476435058846 426.263926491692 0.0
1221.547652232981 182.06453117763533 3.271478063763237 0.537418958217704 429.04133904117657 0.0
1238.7662965859486 191.30326779409504 3.3114945521427575 0.5355513917690686 431.84962364736657 0.0
1256.4765540903234 200.76975307846556 3.3523589401104354 0.5337024884736392 434.68879187402194 0.0
1274.6384116491372 210.44755715998204 3.3940197485100856 0.5318532224145045 437.55954505588323 0.0
1293.324476472488 220.36636409435326 3.4365703421227813 0.5299970149073472 440.4615602408136 0.0
1312.4666707947154 230.4956680713141 3.479901919332964 0.52816369403922 443.39219174670734 0.0
1332.1453722509584 240.86906662150682 3.5241239500859973 0.5263049474017665 446.35224304333093 0.0
1352.3215893944803 251.47066914713818 3.5691870491546966 0.5244937677319816 449.3424024244641 0.0
1373.0526410671432 262.3235979648456 3.615162625743146 0.5226392599283605 452.3623894048231 0.0
1394.297895908723 273.4082275368218 3.6619742056464233 0.5208508108334984 455.4088468583903 0.0
1416.093796185751 284.740619718772 3.7096783502946695 0.5190091497747868 458.48357591050296 0.0
1438.4712530986549 296.3335160623476 3.758315946221071 0.5172196444529824 461.5871295346198 0.0
1461.4104090897163 308.1783046539231 3.8078576045210832 0.5154151207903235 464.7192724425523 0.0
1484.9398769943834 320.28302141737794 3.8583107287436937 0.5135849930769538 467.87587687666405 0.0
1509.0641391876318 332.6515042096184 3.909697508024725 0.5118562349186417 471.0599151315838 0.0
1533.792062840078 345.28728722903276 3.962028768754964 0.5100552285471975 474.2716930347005 0.0
1559.185348418303 358.21482503696956 4.015377997473891 0.508245993782177 477.5110201023164 0.0
1585.178229009243 371.40307289990506 4.069626832132412 0.5065405655312452 480.77294680996494 0.0
1611.8182617338866 384.8744317073502 4.124860620002681 0.504788214639527 484.06176219100337 0.0
1639.1527579709718 398.64752281205153 4.181134640924474 0.5030115723956987 487.37742484726095 0.0
1667.1799141663003 412.7207762821106 4.238439864290015 0.5012972448470263 490.71942709513365 0.0
1695.8625714454738 427.07489261527246 4.296695130689413 0.4996171133316576 494.0830324628434 0.0
1725.258020967132 441.7363962592819 4.3559994234490205 0.49789156917232624 497.47289006040484 0.0
1755.415222471964 456.72430324759404 4.4164077813999265 0.49616022255465886 500.8888825459008 0.0
1786.319745027096 472.03153528670384 4.477891962026265 0.4944896488014807 504.3299917615031 0.0
1817.9467728502325 487.6443124770717 4.540390443106042 0.4928399439802451 507.7922253856572 0.0
1850.356613961542 503.5901734881403 4.604004198786037 0.4911971619654567 511.2801267663313 0.0
1883.568897718652 519.8763985729224 4.668752345905351 0.4895265241446767 514.7936148893198 0.0
1917.614697107622 536.5133695994388 4.734655934136461 0.4878610011171256 518.3310928584808 0.0
1952.4601779772195 553.4844674686902 4.8016485166816 0.48624566373244793 521.8894715714698 0.0
1988.164176071848 570.8163693712146 4.869826900485097 0.48464449137807275 525.4730848306887 0.0
2024.7479345290262 588.5169258359 4.939211378001233 0.4830525915092192 529.0818842067226 0.0
2062.210285474353 606.5831404539746 5.009779656846662 0.4814715001814376 532.7136335653959 0.0
2100.550766999977 625.0124462259631 5.081511444666483 0.4799023523024992 536.3662857953279 0.0
2139.8334773049573 643.8332191518251 5.154506454645925 0.4783435677937975 540.0438741161018 0.0
2180.081469608131 663.0539467636655 5.228786256166523 0.4767865175733368 543.7463790946406 0.0
2221.294394585061 682.6711806362347 5.3043229695974174 0.47523886039691465 547.4708712870953 0.0
2263.4786884355813 702.6860555266163 5.381112111353404 0.47371598570044604 551.216467733508 0.0
2306.6937911202886 723.1246816498711 5.4592442251634 0.47221003225539704 554.9868210458568 0.0
2350.9645928010104 743.9961936572156 5.53874214422893 0.47071577089352523 558.781937487146 0.0
2396.2725136940335 765.2892562793596 5.619550769702136 0.4692348900714549 562.5981454122898 0.0
2442.645683683766 787.014590016007 5.701699092698844 0.46776761460295013 566.4358348263322 0.0
2490.1477738868534 809.1994135360234 5.785277743113851 0.4663128650570183 570.2982070044372 0.0
2538.805727826015 831.8535815393856 5.8703109218845775 0.4648705897360692 574.1852909518561 0.0
2588.5894674515093 854.9604460147835 5.95672347665576 0.46344260809167537 578.0926279967849 0.0
2639.546511074267 878.5394856538927 6.044575777561691 0.46202858617352405 582.021979385741 0.0
2691.738677704704 902.6165914945392 6.133951081359504 0.4606276559622646 585.9760320290837 0.0
2745.195095738363 927.2023828123191 6.2248750037363125 0.4592327474687501 589.9548350790684 0.0
2799.881999563784 952.2778301575141 6.317260103832707 0.4578462067887923 593.9531011119569 0.0
2855.869819753881 977.8725917892283 6.41120240253934 0.45647883087475805 597.9740527294582 0.0
2913.2110268584424 1004.0082968237793 6.506769215510745 0.4551294878477581 602.019805726412 0.0
2971.937190710419 1030.696415593523 6.603987689130096 0.4537937132210583 606.0904271513187 0.0
3031.988239025648 1057.9068897336315 6.702734151349617 0.4524734311516223 610.1797613821134 0.0
3093.463099069923 1085.681790443306 6.803146987153563 0.45116707215724894 614.2925763096104 0.0
3156.415746271016 1114.0425635280549 6.905288422097998 0.4498743405491137 618.4303648993331 0.0
3220.880221877843 1143.0015406130942 7.009187117944755 0.4485880183097972 622.5932101621104 0.0
3286.79115815433 1172.525551262265 7.114704289530181 0.44730043413288634 626.7740504200112 0.0
3354.2993030419425 1202.6778923251363 7.2220441006885165 0.4460318389268938 630.9792782513232 0.0
3423.423763466071 1233.4660295857402 7.331226318936853 0.44479265135021073 635.2097160524316 0.0
3494.201337580011 1264.9032521873453 7.44228124623184 0.44354586533859575 639.4654611461091 0.0
