e[MeV/fm^3], P[MeV/fm^3], rho[fm^-3], v2[1], mu_q[MeV], mu_e[MeV]
70.21755168181654 0.006206087273093519 0.07407856508846018 0.017597877650005332 316.5185077347417 89.2771661002368
71.43578994790998 0.027644495228360377 0.07535555647246353 0.0175978776500052 316.5894798429086 89.8124074562691
72.67502861766434 0.04945246571785267 0.07665456106626496 0.017597877650005228 316.6616753923034 90.35687548400062
73.93562970314778 0.07163636938565421 0.07797595834102777 0.01759787765000538 316.7351154730202 90.91072923592193
75.21796145691394 0.09420268669514797 0.07932013430936638 0.01759787765000533 316.8098215387112 91.47413050632369
76.5223984795798 0.11715800982215896 0.0806874816381126 0.01759787765000522 316.8858154128541 92.04724387856187
77.84932182925448 0.14050904458066893 0.08207839976302188 0.017597877650005325 316.96311929512683 92.630236773136
79.19911913285509 0.16426261238173973 0.08349329500545777 0.017597877650005436 317.0417557678931 93.22327949659658
80.57218469934486 0.18842565222626206 0.08493258069109116 0.017597877650005332 317.12174780279906 93.82654529129692
81.96891963491473 0.21300522273190858 0.08639667727063695 0.017597877650005284 317.20311876748366 94.44021038599915
83.38973196016327 0.23800850419525207 0.0878860124426853 0.017597877650005242 317.2858924324053 95.06445404735784
84.83503672928572 0.26344280068923775 0.08940102127863886 0.01759787765000527 317.37009297778565 95.69945863228664
86.3052561513196 0.28931554219685157 0.0909421463498059 0.01759787765000538 317.45574500067295 96.34540964122833
87.80081971348744 0.3156342867816875 0.09250983785669148 0.017597877650005325 317.54287352212793 97.00249577234631
89.32216430665855 0.3424067227958098 0.09410455376051008 0.01759787765000531 317.63150399453286 97.67090897664707
90.86973435297011 0.3696406711256137 0.09572675991696154 0.017597877650005242 317.7216623090265 98.3508445140514
92.44398193566516 0.39734408747669764 0.0973769302123309 0.017597877650005228 317.8133748030682 99.04250101043964
94.04536693114535 0.4255250646977123 0.09905554670190979 0.01759787765000531 317.90666826813106 99.74608051566989
95.67435714332068 0.45419183514462985 0.10076309975082554 0.017892055534992374 318.00156995752883 100.46178856260559
97.33169327479138 0.4843410207312542 0.10250008817728433 0.018775745774211428 318.10048622561175 101.18570399772256
99.01814146064449 0.5170082040359527 0.10426701939828847 0.020025246310001077 318.2058447860128 101.91428658825437
100.73429318912723 0.5525181669555139 0.1060644095778678 0.02129999675038627 318.31828524079526 102.64750316311726
102.48063871606901 0.5907964457966746 0.10789278377786223 0.022549781036994038 318.43751805132047 103.38670836290729
104.25774423592242 0.6320103592916358 0.10975267611130558 0.023887708108000116 318.5638120290785 104.13237516689382
106.06623539667063 0.676492214395437 0.11164462989845152 0.025339806313660923 318.697770868173 104.88465247088972
107.90674784282342 0.7245234535359056 0.11356919782549418 0.026726883379044414 318.8398212612412 105.64215664334085
109.77980899298537 0.7757858510810522 0.11552694210601787 0.028008654354195556 318.9889635986241 106.39548846211913
111.68603200563659 0.8304189676497289 0.11751843464523576 0.02941848660514751 319.1453310518051 107.14305877628786
113.62612253642692 0.8889903796251314 0.1195442572070575 0.0310000273545607 319.31003653378224 107.89037199216354
115.60075117782822 0.9518318179215621 0.1216050015840337 0.03259969837934959 319.4836179784206 108.6399435927219
117.61049319554543 1.0189345897359714 0.12370126977023699 0.03419210470702347 319.6659546827271 109.3941654142798
119.65602415051524 1.0905481505064962 0.12583367413711752 0.03592218882239359 319.8573917239201 110.15411877028433
121.73815641876267 1.1672766767204164 0.12800283761239192 0.03778190969818496 320.0588603075681 110.92020174565145
123.85759205422588 1.2493614886182018 0.1302093938620144 0.0396255479711905 320.27062777688235 111.69348487044105
126.01496433860267 1.3368161240061027 0.13245398747528928 0.041461386350795104 320.4925793312381 112.47517112638602
128.2110155783424 1.429932568241939 0.13473727415316794 0.04346252473119688 320.7250671173629 113.26594974297757
130.4466887956552 1.52951487508801 0.1370599208997976 0.045590760196347446 320.969220213987 114.06610244230104
132.72270298041246 1.6357091714792171 0.13942260621736857 0.04767926014436641 321.22510082538804 114.87651716166351
135.03976205186157 1.748593799706529 0.14182602030432198 0.04977029748745049 321.49267975935425 115.69799950047124
137.3986835249372 1.8685229353243933 0.14427086525697244 0.05206400529136951 321.77234677231564 116.53110782929468
139.80057355445675 1.9965668028217445 0.14675785527460983 0.05448295484632937 322.0654823434704 117.37614392238619
142.24614757531495 2.1327305435734982 0.1492877168681315 0.05683638595368079 322.37191652081754 118.23384218287305
144.73619757503982 2.2771938463603174 0.15186118907227755 0.059208520968313694 322.69174413674494 119.10477732777403
147.27162660197732 2.430390920319256 0.15447902366151722 0.0618292055008095 323.0254080857181 119.98940983187808
149.85374556019306 2.5937403356179334 0.15714198536966398 0.06457197399617759 323.3745941649684 120.88804723823948
152.4832372283129 2.7670401807274834 0.15985085211327107 0.06721882453614525 323.7388555425644 121.80124809303793
155.16100474728017 2.9506159576823916 0.1626064152188807 0.06990575565196155 324.1184454344821 122.72942464238325
157.8880490867394 3.1450019316856195 0.16540947965419006 0.07289593855263288 324.5138717435153 123.67293532678868
160.66593902373984 3.3520690822739376 0.16826086426320178 0.07600220080988451 324.92718571735776 124.63202719571277
163.4952840125817 3.5713158744339593 0.17116140200542868 0.07897532922519734 325.3576004812541 125.6070903482084
166.37712853614147 3.8032695276021222 0.17411194019922174 0.08202037368123771 325.8055622707938 126.59840218489457
169.31260061973967 4.048620249866702 0.17711334076929286 0.08542133552471287 326.2716886567447 127.60620334892384
172.303551331823 4.309718566586897 0.18016648049850292 0.0889270452590527 326.7583492276527 128.63058410314463
175.35050383107742 4.585737524453315 0.1832722512839939 0.09226446929582366 327.26444376458807 129.67181814230588
178.45466868853612 4.877441713994387 0.18643156039773165 0.09572802473872655 327.7906096931573 130.73004905217363
181.61738960046912 5.18586172672753 0.18964533075154347 0.09956214286511778 328.3377308078966 131.80536363429957
184.84067158507494 5.5134958934314255 0.19291450116672415 0.10348029397253222 328.90808973361146 132.89762523650757
188.12508868773136 5.859506730761704 0.19624002664828616 0.10723125726635341 329.50063467169656 134.00704679883177
191.47199658539387 6.224818666062787 0.19962287866394354 0.11114950466071183 330.116072530961 135.1336328978941
194.88301649425165 6.610906017540677 0.2030640454278977 0.11544544815415358 330.7555888744374 136.2772622126371
198.3602890613904 7.020342674256472 0.2065645321895225 0.11979382346787826 331.42129567013734 137.43754067535426
201.9044613376726 7.452308308070558 0.2101253615270204 0.12397650239191993 332.11220306471756 138.61467605675114
205.5170562570145 7.907903230714149 0.21374757364614289 0.1283699626450635 332.8290718474655 139.80852765902867
209.2000509218192 8.389163756231573 0.21743222668406043 0.1331367755092301 333.57341318817043 141.01869117551004
212.95568685700158 8.89862029273525 0.22118039701847075 0.1379109881763032 334.34705688852574 142.2445530860434
216.7847142491265 9.435507109353031 0.224993179582034 0.1425209986125906 335.149090910276 143.4863497980139
220.6888478651131 10.001107919216421 0.22887168818223044 0.1473848211915132 335.9803024130194 144.74379875149575
224.67051841244387 10.598148441577159 0.23281705582673115 0.15260238957125072 336.84253077264475 146.0161250814302
228.73201076449018 11.228941923303356 0.23683043505437643 0.1577674592771845 337.73719306437926 812.1336763132141
232.87421847820065 11.892825884399452 0.2409129982718618 0.16276966708385543 338.6634726746745 799.4685656106528
237.09907459677976 12.591262929879372 0.2450659380962259 0.1680647442175771 339.6221443059857 786.3605556717405
241.4095830266287 13.327795359770137 0.24929046770324403 0.17367604335428166 340.61534675451054 772.7804025292005
245.80798450797525 14.104290408314728 0.25358782118182577 0.17916063314688135 341.6439533067965 758.7161656516022
250.29536865638684 14.920249387540146 0.2579592538945237 0.18448376658109078 342.70726027181 744.1774666745102
254.87391430339358 15.777295306389933 0.26240604284425445 0.19013115054428797 343.8059831368225 729.1545226712597
259.54734193097937 16.679902122692877 0.2669294870473437 0.19603884001981875 344.9424917462097 713.6149305304851
264.3177234138911 17.62921742422393 0.2715309079130002 0.20173455319505607 346.11701155796936 697.5556075431791
269.1864120746621 18.624978432827973 0.2762116496293318 0.20727097595137622 347.328966229596 680.9844340961621
274.15586021544175 19.66893704821644 0.28097307955601647 0.2131521958171756 348.57896372915343 663.8930973832946
279.2306731431928 20.76658998854091 0.28581658862374093 0.21922189252154145 349.86949367684684 646.2475565867115
284.412585417037 21.918069468750467 0.29074359174052566 0.2249894143101847 351.2000887836266 628.0542009947854
289.7032992122702 23.123430865940225 0.29575552820505524 0.2306016920899494 352.5703075794808 609.3190668696885
295.1055673860831 24.38451504681977 0.300853862127132 0.23656661428271297 353.98060905644974 590.0358783688599
300.6250734626658 25.70790002720107 0.3060400828553784 0.24263779812409947 355.4334521442952 570.1710143078354
306.2629978571605 27.092417065261266 0.3113157054123131 0.24831998114039466 356.9277197298895 549.7397490824587
312.0214966673664 28.538529352055203 0.3166822709369256 0.2538541104542591 358.4631014669581 528.7463260873579
317.9036494111742 30.048126085066315 0.3221413471348811 0.2597359108053192 360.03988091456415 507.18686819203754
323.9164360611114 31.628890065835524 0.32769452873648597 0.2656390932017807 361.66030746350987 485.0306192584942
330.06021547034334 33.278110584552124 0.3333434379625472 0.2710787578055842 363.3227610243933 462.29973092581815
336.3377248306841 34.996751726455315 0.3390897249982634 0.27638164452897485 365.0270429856405 438.9969188292697
342.75239563416363 36.78671837750218 0.3449350684752844 0.2820159576097043 366.7732551876847 415.12079049475517
349.3127469329602 38.65679115669434 0.35088117596208035 0.28759239956345484 368.5632457970251 390.646075762974
356.0179982424811 40.60254779373834 0.3569297844627652 0.2926507180164095 370.39513942729127 365.59841697315915
362.87161894726887 42.62554485678177 0.3630826609245175 0.2976058496429581 372.26881070045994 339.97952843114916
369.8776838050342 44.72802159039085 0.3693416027537498 0.3028324596598386 374.18425749083553 313.78943920178534
377.04571989459646 46.91882012835673 0.3757084383411748 0.30793255850782497 376.1425479489815 287.01354435910116
384.37423920137996 49.19272886637786 0.3821850275959231 0.3125215544923945 378.1420680020603 259.6739132771187
391.8673537720589 51.551645656583794 0.38877326248886857 0.3171009523985404 380.18264288681297 231.77293551078137
403.3128121547542 55.22184592408854 0.39877771331576467 0.009315598342807596 382.2641765278808 203.31192470776173
551.8327030535352 56.91737782678876 0.8633908243784263 0.01351678986377608 384.38684656688184 174.5794018751312
794.85177276147 61.03750800419343 1.6254484301715266 0.022205481907187824 386.54960838431725 146.19583929623175
999.3532291095592 66.48229301511546 2.2742512296450137 0.03275821465491155 388.75217980057613 118.3255369400746
1172.8652096683227 73.06920637646456 2.835212314892373 0.040763382985085 390.99427615507426 91.12294216359517
1349.3252421691816 80.76499201380771 3.4289536182215477 0.043947765133367095 393.27543963785325 64.29692348503805
1554.8298621839408 89.87680488681366 4.156386853374288 0.41564086848455295 395.59516773161965 36.64395019217065
1576.5374912969808 99.75077683476924 4.212149414393778 0.4656951138916252 397.95311125729603 10.706222781895747
1597.8526674866375 109.9038888599034 4.265630298190511 0.4765019710962606 400.3486982341418 0.09079684847935923
1619.7433425179042 120.33864775132373 4.320162003290872 0.47593284852759465 402.78113502043635 0.0
1642.3533525497755 131.08213998211292 4.376108018698325 0.47451252241579134 405.2503908250171 0.0
1665.6512627737648 142.12161903519612 4.4334144353735025 0.47320249999951214 407.7560864453435 0.0
1689.6381434444218 153.45652998313042 4.492071809213727 0.4718367760797406 410.2972643916196 0.0
1714.3678148632068 165.10680958685745 4.552150448630241 0.4704235096650633 412.8731075256692 0.0
1739.8488651277128 177.07579374905916 4.613662894184934 0.46909381716697585 415.48395412590855 0.0
1766.0643080751277 189.3563804644132 4.6765774512327924 0.46771696247365746 418.12942481666244 0.0
1793.0896137371733 201.9761916641199 4.74098873669618 0.4663176306955523 420.80808286670407 0.0
1820.8846025263852 214.91904306207815 4.806829142872916 0.464993221742906 423.519388423576 0.0
1849.4886985655016 228.20029875969104 4.874158123112427 0.4636105311149725 426.263926491692 0.0
1878.9532840086986 241.83906808175215 4.943042976684095 0.46227050147367654 429.04133904117657 0.0
1909.216172751046 255.8095507962314 5.013371048958288 0.46090644752321186 431.84962364736657 0.0
1940.3927053442558 270.15553759678227 5.085303771533971 0.4595591283712399 434.68879187402194 0.0
1972.4056244265357 284.8478327511865 5.158733420619004 0.45821615602506327 437.55954505588323 0.0
2005.3953188361265 299.9393319203558 5.233851594221391 0.4568711295816188 440.4615602408136 0.0
2039.233851231753 315.37870589749906 5.310447119905947 0.4555472102035738 443.39219174670734 0.0
2074.075623321826 331.2249892785419 5.388739918879712 0.4542079755992656 446.35224304333093 0.0
2109.8451824038957 347.4498092669652 5.468626583491553 0.45290724435010077 449.3424024244641 0.0
2146.65379241916 364.0947221719797 5.550253796464014 0.45157867032133225 452.3623894048231 0.0
2184.4270512877615 381.1281728528621 5.633479121662667 0.4503011850328571 455.4088468583903 0.0
2223.233826649718 398.5774650774743 5.718410648542367 0.44898932024452787 458.48357591050296 0.0
2263.133752709958 416.4651863927039 5.8051295127958955 0.4477178967861679 461.5871295346198 0.0
2304.08911970001 434.7765504936826 5.893576757826412 0.44643965258154417 464.7192724425523 0.0
2346.1603107288047 453.53002824722347 5.983784005047902 0.44514647685071296 467.87587687666405 0.0
2389.3532359272326 472.73018619451796 6.075784594222341 0.44392831903530094 471.0599151315838 0.0
2433.6851735634305 492.38342576806224 6.169599376128255 0.4426628616531705 474.2716930347005 0.0
2479.27650410332 512.5341984262664 6.2653789177789 0.44139471387656304 477.5110201023164 0.0
2526.005795786009 533.1318957178399 6.362901770128741 0.44020264627494665 480.77294680996494 0.0
2573.960937017078 554.2130831509512 6.462324742675581 0.4389810844133635 484.06176219100337 0.0
2623.234418336288 575.8117615840332 6.563760694476071 0.4377457065628043 487.37742484726095 0.0
2673.8239091360483 597.9260777482383 6.667193257615046 0.4365567882603152 490.71942709513365 0.0
2725.663228893233 620.5262970082275 6.772475964327122 0.4353946007400875 494.0830324628434 0.0
2778.858892185145 643.6561699167106 6.8797919799469085 0.434204138083242 497.47289006040484 0.0
2833.5069661230045 667.3507174200084 6.989253979247512 0.4330125932322284 500.8888825459008 0.0
2889.581179002657 691.5986624833099 7.100808474727186 0.4318658481868427 504.3299917615031 0.0
2947.0385667259056 716.3795698486357 7.214346049044421 0.43073625748927213 507.7922253856572 0.0
3005.9917820527694 741.739245968372 7.330054350377797 0.4296141721859694 511.2801267663313 0.0
3066.4798212813635 767.6915091972486 7.447972680782063 0.42847593935319406 514.7936148893198 0.0
3128.565989951716 794.2574927132591 7.568150355922693 0.4273438897706221 518.3310928584808 0.0
3192.1887140946146 821.4107407733173 7.6904643017105405 0.42624867821557366 521.8894715714698 0.0
3257.4581591581177 849.1958190217958 7.815094511343404 0.4251656756453004 525.4730848306887 0.0
3324.416567332679 877.627663601024 7.9420825536532424 0.42409149746024966 529.0818842067226 0.0
3393.0651678882414 906.7037911039314 8.071391949550076 0.42302712317712654 532.7136335653959 0.0
3463.4063611760475 936.422323749789 8.202989539995885 0.4219732561892453 536.3662857953279 0.0
3535.5611163496956 966.8313677371068 8.337062447761406 0.4209287747980248 540.0438741161018 0.0
3609.57531988392 997.9471112455742 8.473654729342005 0.41988787397847016 543.7463790946406 0.0
3685.452872822224 1029.7671573386608 8.612721294419046 0.41885560129368216 547.4708712870953 0.0
3763.2082989264186 1062.2952254469026 8.754256547737477 0.41784216377865224 551.216467733508 0.0
3842.9540591624404 1095.57579384807 8.89843044454321 0.4168422347533687 554.9868210458568 0.0
3924.739737346768 1129.626321761786 9.04528951531945 0.4158522628582251 558.781937487146 0.0
4008.5345781965157 1164.430849448673 9.194736154119497 0.41487330476092854 562.5981454122898 0.0
4094.394070300531 1200.0093658840738 9.346827907552962 0.4139054451869866 566.4358348263322 0.0
4182.439717676982 1236.4090292096917 9.501736715823576 0.41294790998643194 570.2982070044372 0.0
4272.725241611407 1273.6487172823422 9.65951180709476 0.4120006051394345 574.1852909518561 0.0
4365.198496551086 1311.7036967338922 9.82001784770663 0.4110646636524464 578.0926279967849 0.0
4459.951319184887 1350.6086211156992 9.983370860158159 0.4101398036341486 582.021979385741 0.0
4557.102421556369 1390.4089295254128 10.149729815324465 0.4092253965352697 585.9760320290837 0.0
4656.709929556178 1431.1250082819918 10.319146745242712 0.40831679231034634 589.9548350790684 0.0
4758.715775889924 1472.7288710963007 10.49146458648957 0.40741546498956804 593.9531011119569 0.0
4863.254987402616 1515.2723909109084 10.666866185165643 0.40652838024775484 597.9740527294582 0.0
4970.428805713495 1558.7939108659414 10.845480302683356 0.40565473679387765 602.019805726412 0.0
5080.300283075976 1603.3155007356372 11.027362020362737 0.4047915719951476 606.0904271513187 0.0
5192.760854235335 1648.7898309543145 11.21228389028668 0.4039400704137126 610.1797613821134 0.0
5307.9996051859025 1695.2900301626164 11.400508932081042 0.40309916093687015 614.2925763096104 0.0
5426.121793892053 1742.8550203449136 11.592158027256348 0.40226859787333336 618.4303648993331 0.0
5547.19545970909 1791.5085752598477 11.787289282869002 0.40144371122653855 622.5932101621104 0.0
5671.103107712656 1841.1988935191978 11.98564807272559 0.400619562455482 626.7740504200112 0.0
5798.133994359648 1892.0368837885621 12.187625009368853 0.39980904595888944 630.9792782513232 0.0
5928.325559622363 1944.0362429519118 12.393257101559348 0.3990187767396778 635.2097160524316 0.0
6061.751410557745 1997.2226434707827 12.602605743192825 0.3982240385919482 639.4654611461091 0.0
