e[MeV/fm^3], P[MeV/fm^3], rho[fm^-3], v2[1], mu_q[MeV], mu_e[MeV]
70.21755168181654 0.006206087273093519 0.07407856508846018 0.017597877650005332 316.5185077347417 89.2771661002368
71.43578994790998 0.027644495228360377 0.07535555647246353 0.0175978776500052 316.5894798429086 89.8124074562691
72.67502861766434 0.04945246571785267 0.07665456106626496 0.017597877650005228 316.6616753923034 90.35687548400062
73.93562970314778 0.07163636938565421 0.07797595834102777 0.01759787765000538 316.7351154730202 90.91072923592193
75.21796145691394 0.09420268669514797 0.07932013430936638 0.01759787765000533 316.8098215387112 91.47413050632369
76.5223984795798 0.11715800982215896 0.0806874816381126 0.01759787765000522 316.8858154128541 92.04724387856187
77.84932182925448 0.14050904458066893 0.08207839976302188 0.017597877650005325 316.96311929512683 92.630236773136
79.19911913285509 0.16426261238173973 0.08349329500545777 0.017597877650005436 317.0417557678931 93.22327949659658
80.57218469934486 0.18842565222626206 0.08493258069109116 0.017597877650005332 317.12174780279906 93.82654529129692
81.96891963491473 0.21300522273190858 0.08639667727063695 0.017597877650005284 317.20311876748366 94.44021038599915
83.38973196016327 0.23800850419525207 0.0878860124426853 0.017597877650005242 317.2858924324053 95.06445404735784
84.83503672928572 0.26344280068923775 0.08940102127863886 0.01759787765000527 317.37009297778565 95.69945863228664
86.3052561513196 0.28931554219685157 0.0909421463498059 0.01759787765000538 317.45574500067295 96.34540964122833
87.80081971348744 0.3156342867816875 0.09250983785669148 0.017597877650005325 317.54287352212793 97.00249577234631
89.32216430665855 0.3424067227958098 0.09410455376051008 0.01759787765000531 317.63150399453286 97.67090897664707
90.86973435297011 0.3696406711256137 0.09572675991696154 0.017597877650005242 317.7216623090265 98.3508445140514
92.44398193566516 0.39734408747669764 0.0973769302123309 0.017597877650005228 317.8133748030682 99.04250101043964
94.04536693114535 0.4255250646977123 0.09905554670190979 0.01759787765000531 317.90666826813106 99.74608051566989
95.67435714332068 0.45419183514462985 0.10076309975082554 0.017892055534992374 318.00156995752883 100.46178856260559
97.33169327479138 0.4843410207312542 0.10250008817728433 0.018775745774211428 318.10048622561175 101.18570399772256
99.01814146064449 0.5170082040359527 0.10426701939828847 0.020025246310001077 318.2058447860128 101.91428658825437
100.73429318912723 0.5525181669555139 0.1060644095778678 0.02129999675038627 318.31828524079526 102.64750316311726
102.48063871606901 0.5907964457966746 0.10789278377786223 0.022549781036994038 318.43751805132047 103.38670836290729
104.25774423592242 0.6320103592916358 0.10975267611130558 0.023887708108000116 318.5638120290785 104.13237516689382
106.06623539667063 0.676492214395437 0.11164462989845152 0.025339806313660923 318.697770868173 104.88465247088972
107.90674784282342 0.7245234535359056 0.11356919782549418 0.026726883379044414 318.8398212612412 105.64215664334085
109.77980899298537 0.7757858510810522 0.11552694210601787 0.028008654354195556 318.9889635986241 106.39548846211913
111.68603200563659 0.8304189676497289 0.11751843464523576 0.02941848660514751 319.1453310518051 107.14305877628786
113.62612253642692 0.8889903796251314 0.1195442572070575 0.0310000273545607 319.31003653378224 107.89037199216354
115.60075117782822 0.9518318179215621 0.1216050015840337 0.03259969837934959 319.4836179784206 108.6399435927219
117.61049319554543 1.0189345897359714 0.12370126977023699 0.03419210470702347 319.6659546827271 109.3941654142798
119.65602415051524 1.0905481505064962 0.12583367413711752 0.03592218882239359 319.8573917239201 110.15411877028433
121.73815641876267 1.1672766767204164 0.12800283761239192 0.03778190969818496 320.0588603075681 110.92020174565145
123.85759205422588 1.2493614886182018 0.1302093938620144 0.0396255479711905 320.27062777688235 111.69348487044105
126.01496433860267 1.3368161240061027 0.13245398747528928 0.041461386350795104 320.4925793312381 112.47517112638602
128.2110155783424 1.429932568241939 0.13473727415316794 0.04346252473119688 320.7250671173629 113.26594974297757
130.4466887956552 1.52951487508801 0.1370599208997976 0.045590760196347446 320.969220213987 114.06610244230104
132.72270298041246 1.6357091714792171 0.13942260621736857 0.04767926014436641 321.22510082538804 114.87651716166351
135.03976205186157 1.748593799706529 0.14182602030432198 0.04977029748745049 321.49267975935425 115.69799950047124
137.3986835249372 1.8685229353243933 0.14427086525697244 0.05206400529136951 321.77234677231564 116.53110782929468
139.80057355445675 1.9965668028217445 0.14675785527460983 0.05448295484632937 322.0654823434704 117.37614392238619
142.24614757531495 2.1327305435734982 0.1492877168681315 0.05683638595368079 322.37191652081754 118.23384218287305
144.73619757503982 2.2771938463603174 0.15186118907227755 0.059208520968313694 322.69174413674494 119.10477732777403
147.27162660197732 2.430390920319256 0.15447902366151722 0.0618292055008095 323.0254080857181 119.98940983187808
149.85374556019306 2.5937403356179334 0.15714198536966398 0.06457197399617759 323.3745941649684 120.88804723823948
152.4832372283129 2.7670401807274834 0.15985085211327107 0.06721882453614525 323.7388555425644 121.80124809303793
155.16100474728017 2.9506159576823916 0.1626064152188807 0.06990575565196155 324.1184454344821 122.72942464238325
157.8880490867394 3.1450019316856195 0.16540947965419006 0.07289593855263288 324.5138717435153 123.67293532678868
160.66593902373984 3.3520690822739376 0.16826086426320178 0.07600220080988451 324.92718571735776 124.63202719571277
163.4952840125817 3.5713158744339593 0.17116140200542868 0.07897532922519734 325.3576004812541 125.6070903482084
166.37712853614147 3.8032695276021222 0.17411194019922174 0.08202037368123771 325.8055622707938 126.59840218489457
169.31260061973967 4.048620249866702 0.17711334076929286 0.08542133552471287 326.2716886567447 127.60620334892384
172.303551331823 4.309718566586897 0.18016648049850292 0.0889270452590527 326.7583492276527 128.63058410314463
175.35050383107742 4.585737524453315 0.1832722512839939 0.09226446929582366 327.26444376458807 129.67181814230588
178.45466868853612 4.877441713994387 0.18643156039773165 0.09572802473872655 327.7906096931573 130.73004905217363
181.61738960046912 5.18586172672753 0.18964533075154347 0.09956214286511778 328.3377308078966 131.80536363429957
184.84067158507494 5.5134958934314255 0.19291450116672415 0.10348029397253222 328.90808973361146 132.89762523650757
188.12508868773136 5.859506730761704 0.19624002664828616 0.10723125726635341 329.50063467169656 134.00704679883177
191.47199658539387 6.224818666062787 0.19962287866394354 0.11114950466071183 330.116072530961 135.1336328978941
194.88301649425165 6.610906017540677 0.2030640454278977 0.11544544815415358 330.7555888744374 136.2772622126371
198.3602890613904 7.020342674256472 0.2065645321895225 0.11979382346787826 331.42129567013734 137.43754067535426
201.9044613376726 7.452308308070558 0.2101253615270204 0.12397650239191993 332.11220306471756 138.61467605675114
205.5170562570145 7.907903230714149 0.21374757364614289 0.1283699626450635 332.8290718474655 139.80852765902867
209.2000509218192 8.389163756231573 0.21743222668406043 0.1331367755092301 333.57341318817043 141.01869117551004
212.95568685700158 8.89862029273525 0.22118039701847075 0.1379109881763032 334.34705688852574 142.2445530860434
216.7847142491265 9.435507109353031 0.224993179582034 0.1425209986125906 335.149090910276 143.4863497980139
220.6888478651131 10.001107919216421 0.22887168818223044 0.1473848211915132 335.9803024130194 144.74379875149575
224.67051841244387 10.598148441577159 0.23281705582673115 0.15260238957125072 336.84253077264475 146.0161250814302
228.73201076449018 11.228941923303356 0.23683043505437643 0.1577674592771845 337.73719306437926 147.30260528428684
232.87421847820065 11.892825884399452 0.2409129982718618 0.16276966708385543 338.6634726746745 148.60351662363965
237.09907459677976 12.591262929879372 0.2450659380962259 0.1680647442175771 339.6221443059857 149.91845083271977
241.4095830266287 13.327795359770137 0.24929046770324403 0.17367604335428166 340.61534675451054 151.2461733723472
245.80798450797525 14.104290408314728 0.25358782118182577 0.17916063314688135 341.6439533067965 152.5860269646372
250.29536865638684 14.920249387540146 0.2579592538945237 0.18448376658109078 342.70726027181 153.9383214680799
254.87391430339358 15.777295306389933 0.26240604284425445 0.19013115054428797 343.8059831368225 155.30255316107613
259.54734193097937 16.679902122692877 0.2669294870473437 0.19603884001981875 344.9424917462097 156.67695034502995
264.3177234138911 17.62921742422393 0.2715309079130002 0.20173455319505607 346.11701155796936 158.06114921462316
269.1864120746621 18.624978432827973 0.2762116496293318 0.20727097595137622 347.328966229596 159.45546560193614
274.15586021544175 19.66893704821644 0.28097307955601647 0.2131521958171756 348.57896372915343 160.8593430130801
279.2306731431928 20.76658998854091 0.28581658862374093 0.2194363373766608 349.86949367684684 162.27041922778363
283.15340133084294 21.634410394494694 0.2895401155492063 0.003325349561013255 351.2000887836266 156.9581780169
542.3379853472269 23.81922562912995 1.1488770504995833 0.013533795383326067 352.5703075794808 134.09606447424142
704.1154555725273 26.52410320612441 1.6976205025489595 0.018932752643319478 353.98060905644974 112.07025995117603
861.5185034712238 29.843091903889135 2.249113552208688 0.023921226038142007 355.4334521442952 90.14577866719358
1012.5801700783899 33.867722262519436 2.7973586777235826 0.03139553849085122 356.9277197298895 67.88221749482378
1148.8701097566263 38.73108916576147 3.3112528419559335 0.44494426712143476 358.4631014669581 44.463558278965664
1159.8702022451284 43.98887003289063 3.3432221793935697 0.5036185469628351 360.03988091456415 24.13618515118773
1170.1892051068724 49.43393268991943 3.3722030481034873 0.5365341327477688 361.66030746350987 6.657752142124037
1180.513739837073 55.06493063143955 3.4007304720154874 0.5459261039398515 363.3227610243933 0.0
1191.1651486261924 60.88559740817908 3.429979460159591 0.5458009958118457 365.0270429856405 0.0
1202.1999111304804 66.90074298686173 3.4601399130021417 0.5444241751149677 366.7732551876847 0.0
1213.6408846626607 73.12136506070922 3.491260725706305 0.5430149778652469 368.5632457970251 0.0
1225.4873888638385 79.5456148638377 3.5233263369395726 0.5415788931872143 370.39513942729127 0.0
1237.7499025790053 86.17769761076738 3.556351437987498 0.5401193443378927 372.26881070045994 0.0
1250.4398785943242 93.02230865067534 3.5903530223651448 0.5386393340027178 374.18425749083553 0.0
1263.5762133241421 100.08809934338059 3.625367497961033 0.5371411551245799 376.1425479489815 0.0
1277.159950748872 107.37408537795716 3.6613833966187737 0.5356288659034276 378.1420680020603 0.0
1291.2017858908398 114.88445770704172 3.6984148441247706 0.5341047867851709 380.18264288681297 0.0
1305.7131008443084 122.62374151784167 3.736477483601424 0.5325711687694885 382.2641765278808 0.0
1320.70738642088 130.59754710465387 3.7755921348546333 0.5310299053296572 384.38684656688184 0.0
1336.1895876678616 138.80691400484693 3.8157570932682723 0.5294835128421509 386.54960838431725 0.0
1352.1700402119388 147.2557320587003 3.8569845749164875 0.5279337179369215 388.75217980057613 0.0
1368.6591564290875 155.94790524724547 3.899286757184396 0.5263559466400469 390.99427615507426 0.0
1385.6741607587417 164.8899808359801 3.9426845108672377 0.5246919691863798 393.27543963785325 0.0
1403.24322194393 174.09293099426003 3.98721434875727 0.5230437488032891 395.59516773161965 0.0
1421.353246617484 183.55085559977158 4.032852175840953 0.5214779509455045 397.95311125729603 0.0
1440.0127102868414 193.26654937933264 4.0796044051771325 0.5199168231142144 400.3486982341418 0.0
1459.2283147232051 203.24187407072216 4.127472918946746 0.5182376868792655 402.78113502043635 0.0
1479.058614875876 213.50049879006647 4.176541513627963 0.516539003799596 405.2503908250171 0.0
1499.4771121967838 224.03101460296932 4.2267660581934186 0.5149697841567544 407.7560864453435 0.0
1520.4842228912812 234.83252243847528 4.278137414679957 0.5133312972881345 410.2972643916196 0.0
1542.1243864761723 245.9221001124014 4.330711063778858 0.511633396781165 412.8731075256692 0.0
1564.404768492023 257.3026747426905 4.384497662244474 0.5100335605771207 415.48395412590855 0.0
1587.3109446766666 268.967802471144 4.439471017040788 0.5083742335741892 418.12942481666244 0.0
1610.905066182796 280.940995286098 4.495705258286126 0.5066856239172788 420.80808286670407 0.0
1635.1533169327447 293.207810838516 4.553144941584272 0.5050848575202727 423.519388423576 0.0
1660.0886208274205 305.7817495383235 4.611838992563403 0.5034111195319948 426.263926491692 0.0
1685.7534396852923 318.67921492014483 4.671841183906909 0.501786835566997 429.04133904117657 0.0
1712.0950690283519 331.8768747587909 4.73305739181167 0.5001305970310277 431.84962364736657 0.0
1739.209265476714 345.4127159750203 4.795617977232241 0.4984927078798824 434.68879187402194 0.0
1767.0319534018856 359.2614727022186 4.8594370642321465 0.49685717282257524 437.55954505588323 0.0
1795.6794854334514 373.46885426087084 4.92466884186217 0.4952172372007766 440.4615602408136 0.0
1825.044292433651 387.9891369684961 4.991138626330126 0.4936001576745763 443.39219174670734 0.0
1855.2547613779768 402.8737119156531 5.05902525163142 0.4919624321115039 446.35224304333093 0.0
1886.2483833469637 418.0980866234536 5.128246307836422 0.4903690942742651 449.3424024244641 0.0
1918.1171913185367 433.6980122041945 5.198919783030863 0.4887395618945529 452.3623894048231 0.0
1950.7977915357508 449.64467830807865 5.2709253706318195 0.48717028793850226 455.4088468583903 0.0
1984.3479238928096 465.96227423701475 5.344353183148486 0.48555646281126386 458.48357591050296 0.0
2018.8170680740816 482.67037195093314 5.419269599522293 0.48399028446896697 461.5871295346198 0.0
2054.173685496747 499.75594141002443 5.495626643836357 0.48241324047529677 464.7192724425523 0.0
2090.4657169152033 517.2330703324634 5.573443327271003 0.48081572236024783 467.87587687666405 0.0
2127.699206956237 535.1067307540867 5.652751257747536 0.47930870460200037 471.0599151315838 0.0
2165.8884201544925 553.3824077633184 5.7335677502040525 0.4777408559244929 474.2716930347005 0.0
2205.1326770150304 572.0981192383658 5.81601406676461 0.4761676903684462 477.5110201023164 0.0
2245.328952874875 591.208005335638 5.89990359348285 0.474686771887165 480.77294680996494 0.0
2286.551779082342 610.7451771165771 5.9853697062078846 0.4731670884044279 484.06176219100337 0.0
2328.8773896001517 630.7386469859844 6.072503456708873 0.4716282120763289 487.37742484726095 0.0
2372.3033717387852 651.1863873532784 6.161290824839112 0.4701451946891346 490.71942709513365 0.0
2416.7725187798333 672.060601505558 6.251606072302965 0.4686935777725951 494.0830324628434 0.0
2462.37488026792 693.4006830182033 6.343604422350978 0.46720462122590956 497.47289006040484 0.0
2509.189492393299 715.2363828751418 6.437376656809003 0.46571242710498595 500.8888825459008 0.0
2557.1939030812064 737.5573530777197 6.532877980067886 0.4642744162077612 504.3299917615031 0.0
2606.350417158354 760.344075040092 6.630013742639871 0.462856088940077 507.7922253856572 0.0
2656.7540445623868 783.6376067540816 6.728942619627848 0.46144539782733673 511.2801267663313 0.0
2708.4366713879294 807.4495079346722 6.829696211175534 0.4600125435113469 514.7936148893198 0.0
2761.4494231845188 831.7968524164761 6.932311806683105 0.45858572634111283 518.3310928584808 0.0
2815.7396687869186 856.6553528790157 7.036685157520499 0.4572035727268542 521.8894715714698 0.0
2871.4002071943146 882.0648622550336 7.14296842710078 0.455835138170527 525.4730848306887 0.0
2928.4655624021734 908.0378603712029 7.25119509683593 0.4544761979310934 529.0818842067226 0.0
2986.9353027187535 934.5709122167972 7.361332178903552 0.45312803107081745 532.7136335653959 0.0
3046.810047679904 961.661178159022 7.473349664563099 0.45179157072346765 536.3662857953279 0.0
3108.191288819335 989.3513390172565 7.587404998081206 0.4504654364830163 540.0438741161018 0.0
3171.1165103801786 1017.6549038173209 7.7035337148116705 0.4491422756301189 543.7463790946406 0.0
3235.5870420291185 1046.5681097196762 7.821694778616347 0.4478285542877032 547.4708712870953 0.0
3301.614056046723 1076.0934049214536 7.94188227385541 0.4465373024128585 551.216467733508 0.0
3369.2917850722856 1106.2701503161984 8.06423918295963 0.4452617976450517 554.9868210458568 0.0
3438.660717104931 1137.1129001077798 8.188803079043177 0.44399756399836576 558.781937487146 0.0
3509.6932124953073 1168.6059494623923 8.315489354634233 0.44274599363113953 562.5981454122898 0.0
3582.434802484605 1200.7661723553595 8.444345083073289 0.44150723883048926 566.4358348263322 0.0
3656.9868559607357 1233.6349274697325 8.575514135751447 0.44028035154247025 570.2982070044372 0.0
3733.393220434077 1267.227933773801 8.709036299468394 0.43906525263884877 574.1852909518561 0.0
3811.608178060527 1301.5215917285796 8.844795263522242 0.43786343804833194 578.0926279967849 0.0
3891.7078590619635 1336.5458729742566 8.982887478423415 0.43667458903396117 582.021979385741 0.0
3973.7909901471503 1372.3403588036645 9.123445531663931 0.4354979393876217 585.9760320290837 0.0
4057.904994390282 1408.922005842247 9.266511505383585 0.4343275305380754 589.9548350790684 0.0
4143.9987435249 1446.2639564224191 9.411950235267096 0.43316529862002984 593.9531011119569 0.0
4232.184625459609 1484.4114776805059 9.559914430768925 0.43202026211759303 597.9740527294582 0.0
4322.5466359451775 1523.397793905771 9.710511387301162 0.430891432395792 602.019805726412 0.0
4415.13619536271 1563.241241176134 9.863785676909252 0.4297750304407062 606.0904271513187 0.0
4509.860170806236 1603.8981064878321 10.019543939167061 0.42867262857494115 610.1797613821134 0.0
4606.876186292232 1645.4324149393947 10.178006053028284 0.4275828803283268 614.2925763096104 0.0
4706.271105989455 1687.8774823751453 10.339271967303185 0.42650550519831043 618.4303648993331 0.0
4808.10039677207 1731.253041032145 10.503388721906104 0.42543446828905296 622.5932101621104 0.0
4912.2629803753825 1775.5110289836068 10.670139581767373 0.4243633714280488 626.7740504200112 0.0
5018.999511760555 1820.748138573555 10.839850003203912 0.423309018672974 630.9792782513232 0.0
5128.340814225502 1866.9760287044928 11.012551162427144 0.4222800437109022 635.2097160524316 0.0
5240.346870434601 1914.215985548101 11.188292775397677 0.4212450020315863 639.4654611461091 0.0
