e[MeV/fm^3], P[MeV/fm^3], rho[fm^-3], v2[1], mu_q[MeV], mu_e[MeV]
70.21755168181654 0.006206087273093519 0.07407856508846018 0.017597877650005332 316.5185077347417 89.2771661002368
71.43578994790998 0.027644495228360377 0.07535555647246353 0.0175978776500052 316.5894798429086 89.8124074562691
72.67502861766434 0.04945246571785267 0.07665456106626496 0.017597877650005228 316.6616753923034 90.35687548400062
73.93562970314778 0.07163636938565421 0.07797595834102777 0.01759787765000538 316.7351154730202 90.91072923592193
75.21796145691394 0.09420268669514797 0.07932013430936638 0.01759787765000533 316.8098215387112 91.47413050632369
76.5223984795798 0.11715800982215896 0.0806874816381126 0.01759787765000522 316.8858154128541 92.04724387856187
77.84932182925448 0.14050904458066893 0.08207839976302188 0.017597877650005325 316.96311929512683 92.630236773136
79.19911913285509 0.16426261238173973 0.08349329500545777 0.017597877650005436 317.0417557678931 93.22327949659658
80.57218469934486 0.18842565222626206 0.08493258069109116 0.017597877650005332 317.12174780279906 93.82654529129692
81.96891963491473 0.21300522273190858 0.08639667727063695 0.017597877650005284 317.20311876748366 94.44021038599915
83.38973196016327 0.23800850419525207 0.0878860124426853 0.017597877650005242 317.2858924324053 95.06445404735784
84.83503672928572 0.26344280068923775 0.08940102127863886 0.01759787765000527 317.37009297778565 95.69945863228664
86.3052561513196 0.28931554219685157 0.0909421463498059 0.01759787765000538 317.45574500067295 96.34540964122833
87.80081971348744 0.3156342867816875 0.09250983785669148 0.017597877650005325 317.54287352212793 97.00249577234631
89.32216430665855 0.3424067227958098 0.09410455376051008 0.01759787765000531 317.63150399453286 97.67090897664707
90.86973435297011 0.3696406711256137 0.09572675991696154 0.017597877650005242 317.7216623090265 98.3508445140514
92.44398193566516 0.39734408747669764 0.0973769302123309 0.017597877650005228 317.8133748030682 99.04250101043964
94.04536693114535 0.4255250646977123 0.09905554670190979 0.01759787765000531 317.90666826813106 99.74608051566989
95.67435714332068 0.45419183514462985 0.10076309975082554 0.017892055534992374 318.00156995752883 100.46178856260559
97.33169327479138 0.4843410207312542 0.10250008817728433 0.018775745774211428 318.10048622561175 101.18570399772256
99.01814146064449 0.5170082040359527 0.10426701939828847 0.020025246310001077 318.2058447860128 101.91428658825437
100.73429318912723 0.5525181669555139 0.1060644095778678 0.02129999675038627 318.31828524079526 102.64750316311726
102.48063871606901 0.5907964457966746 0.10789278377786223 0.022549781036994038 318.43751805132047 103.38670836290729
104.25774423592242 0.6320103592916358 0.10975267611130558 0.023887708108000116 318.5638120290785 104.13237516689382
106.06623539667063 0.676492214395437 0.11164462989845152 0.025339806313660923 318.697770868173 104.88465247088972
107.90674784282342 0.7245234535359056 0.11356919782549418 0.026726883379044414 318.8398212612412 105.64215664334085
109.77980899298537 0.7757858510810522 0.11552694210601787 0.028008654354195556 318.9889635986241 106.39548846211913
111.68603200563659 0.8304189676497289 0.11751843464523576 0.02941848660514751 319.1453310518051 107.14305877628786
113.62612253642692 0.8889903796251314 0.1195442572070575 0.0310000273545607 319.31003653378224 107.89037199216354
115.60075117782822 0.9518318179215621 0.1216050015840337 0.03259969837934959 319.4836179784206 108.6399435927219
117.61049319554543 1.0189345897359714 0.12370126977023699 0.03419210470702347 319.6659546827271 109.3941654142798
119.65602415051524 1.0905481505064962 0.12583367413711752 0.03592218882239359 319.8573917239201 110.15411877028433
121.73815641876267 1.1672766767204164 0.12800283761239192 0.03778190969818496 320.0588603075681 110.92020174565145
123.85759205422588 1.2493614886182018 0.1302093938620144 0.0396255479711905 320.27062777688235 111.69348487044105
126.01496433860267 1.3368161240061027 0.13245398747528928 0.041461386350795104 320.4925793312381 112.47517112638602
128.2110155783424 1.429932568241939 0.13473727415316794 0.04346252473119688 320.7250671173629 113.26594974297757
130.4466887956552 1.52951487508801 0.1370599208997976 0.045590760196347446 320.969220213987 114.06610244230104
132.72270298041246 1.6357091714792171 0.13942260621736857 0.04767926014436641 321.22510082538804 114.87651716166351
135.03976205186157 1.748593799706529 0.14182602030432198 0.04977029748745049 321.49267975935425 115.69799950047124
137.3986835249372 1.8685229353243933 0.14427086525697244 0.05206400529136951 321.77234677231564 116.53110782929468
139.80057355445675 1.9965668028217445 0.14675785527460983 0.05448295484632937 322.0654823434704 117.37614392238619
142.24614757531495 2.1327305435734982 0.1492877168681315 0.05683638595368079 322.37191652081754 118.23384218287305
144.73619757503982 2.2771938463603174 0.15186118907227755 0.059208520968313694 322.69174413674494 119.10477732777403
147.27162660197732 2.430390920319256 0.15447902366151722 0.0618292055008095 323.0254080857181 119.98940983187808
149.85374556019306 2.5937403356179334 0.15714198536966398 0.06457197399617759 323.3745941649684 120.88804723823948
152.4832372283129 2.7670401807274834 0.15985085211327107 0.06721882453614525 323.7388555425644 121.80124809303793
155.16100474728017 2.9506159576823916 0.1626064152188807 0.06990575565196155 324.1184454344821 122.72942464238325
157.8880490867394 3.1450019316856195 0.16540947965419006 0.07289593855263288 324.5138717435153 123.67293532678868
160.66593902373984 3.3520690822739376 0.16826086426320178 0.07600220080988451 324.92718571735776 124.63202719571277
163.4952840125817 3.5713158744339593 0.17116140200542868 0.07897532922519734 325.3576004812541 125.6070903482084
166.37712853614147 3.8032695276021222 0.17411194019922174 0.08202037368123771 325.8055622707938 126.59840218489457
169.31260061973967 4.048620249866702 0.17711334076929286 0.08542133552471287 326.2716886567447 127.60620334892384
172.303551331823 4.309718566586897 0.18016648049850292 0.0889270452590527 326.7583492276527 128.63058410314463
175.35050383107742 4.585737524453315 0.1832722512839939 0.09226446929582366 327.26444376458807 129.67181814230588
178.45466868853612 4.877441713994387 0.18643156039773165 0.09572802473872655 327.7906096931573 130.73004905217363
181.61738960046912 5.18586172672753 0.18964533075154347 0.09956214286511778 328.3377308078966 131.80536363429957
184.84067158507494 5.5134958934314255 0.19291450116672415 0.10348029397253222 328.90808973361146 132.89762523650757
188.12508868773136 5.859506730761704 0.19624002664828616 0.10723125726635341 329.50063467169656 134.00704679883177
191.47199658539387 6.224818666062787 0.19962287866394354 0.11114950466071183 330.116072530961 135.1336328978941
194.88301649425165 6.610906017540677 0.2030640454278977 0.11544544815415358 330.7555888744374 136.2772622126371
198.3602890613904 7.020342674256472 0.2065645321895225 0.11979382346787826 331.42129567013734 137.43754067535426
201.9044613376726 7.452308308070558 0.2101253615270204 0.12397650239191993 332.11220306471756 138.61467605675114
205.5170562570145 7.907903230714149 0.21374757364614289 0.1283699626450635 332.8290718474655 139.80852765902867
209.2000509218192 8.389163756231573 0.21743222668406043 0.1331367755092301 333.57341318817043 141.01869117551004
212.95568685700158 8.89862029273525 0.22118039701847075 0.1379109881763032 334.34705688852574 142.2445530860434
216.7847142491265 9.435507109353031 0.224993179582034 0.1425209986125906 335.149090910276 143.4863497980139
220.6888478651131 10.001107919216421 0.22887168818223044 0.1473848211915132 335.9803024130194 144.74379875149575
224.67051841244387 10.598148441577159 0.23281705582673115 0.15260238957125072 336.84253077264475 146.0161250814302
228.73201076449018 11.228941923303356 0.23683043505437643 0.1577674592771845 337.73719306437926 147.30260528428684
232.87421847820065 11.892825884399452 0.2409129982718618 0.16276966708385543 338.6634726746745 148.60351662363965
237.09907459677976 12.591262929879372 0.2450659380962259 0.1680647442175771 339.6221443059857 149.91845083271977
241.4095830266287 13.327795359770137 0.24929046770324403 0.17367604335428166 340.61534675451054 151.2461733723472
245.80798450797525 14.104290408314728 0.25358782118182577 0.17916063314688135 341.6439533067965 152.5860269646372
250.29536865638684 14.920249387540146 0.2579592538945237 0.18448376658109078 342.70726027181 153.9383214680799
254.87391430339358 15.777295306389933 0.26240604284425445 0.19013115054428797 343.8059831368225 155.30255316107613
259.54734193097937 16.679902122692877 0.2669294870473437 0.19603884001981875 344.9424917462097 156.67695034502995
264.3177234138911 17.62921742422393 0.2715309079130002 0.20173455319505607 346.11701155796936 158.06114921462316
269.1864120746621 18.624978432827973 0.2762116496293318 0.20727097595137622 347.328966229596 159.45546560193614
274.15586021544175 19.66893704821644 0.28097307955601647 0.2131521958171756 348.57896372915343 160.8593430130801
279.2306731431928 20.76658998854091 0.28581658862374093 0.21922189252154145 349.86949367684684 162.27041922778363
284.412585417037 21.918069468750467 0.29074359174052566 0.2249894143101847 351.2000887836266 163.68887481305947
289.7032992122702 23.123430865940225 0.29575552820505524 0.2306016920899494 352.5703075794808 165.1149897852477
295.1055673860831 24.38451504681977 0.300853862127132 0.23656661428271297 353.98060905644974 166.5482047162215
300.6250734626658 25.70790002720107 0.3060400828553784 0.24263779812409947 355.4334521442952 167.985546141962
306.2629978571605 27.092417065261266 0.3113157054123131 0.24831998114039466 356.9277197298895 169.42797804232237
312.0214966673664 28.538529352055203 0.3166822709369256 0.2538541104542591 358.4631014669581 170.8756920374787
317.9036494111742 30.048126085066315 0.3221413471348811 0.2597359108053192 360.03988091456415 172.3281747479247
323.9164360611114 31.628890065835524 0.32769452873648597 0.2656390932017807 361.66030746350987 173.78185544558517
330.06021547034334 33.278110584552124 0.3333434379625472 0.2710787578055842 363.3227610243933 175.23867305073648
336.3377248306841 34.996751726455315 0.3390897249982634 0.27638164452897485 365.0270429856405 176.69867300893014
342.75239563416363 36.78671837750218 0.3449350684752844 0.2817036277739895 366.7732551876847 178.16142771359964
348.3538033297966 38.38012645125996 0.3500076812678586 0.002539079321785327 368.5632457970251 170.45358251572299
1069.5169622100193 43.04679308006495 2.5612320188325266 0.010402975666301127 370.39513942729127 126.01688953077446
1595.6704964032892 50.02973773486077 4.219727972064169 0.021900047556193625 372.26881070045994 80.99172535174098
1950.2489905752705 59.856795491822616 5.370842706384982 0.5129532806109616 374.18425749083553 34.618523088301615
1969.8439363261339 70.43353673049143 5.424180043768049 0.5706767999252449 376.1425479489815 1.951172013070933
1988.0220642378545 81.32859672537943 5.472377179348653 0.5985103093971984 378.1420680020603 0.0
2006.793778051261 92.54738486527334 5.521881874892146 0.5967913297911323 380.18264288681297 0.0
2026.1731656585218 104.09579113169697 5.572712789911412 0.5950532639647128 382.2641765278808 0.0
2046.1768185536102 115.98130245426745 5.624894561615456 0.5933028309638875 384.38684656688184 0.0
2066.809903826394 128.20457788339908 5.678421778455615 0.5915428314598388 386.54960838431725 0.0
2088.0847652917682 140.77051570552146 5.733307623287063 0.5897751882172604 388.75217980057613 0.0
2110.0138251110843 153.68402018246593 5.789565226227524 0.587971679182532 390.99427615507426 0.0
2132.6177129030593 166.95338792443616 5.847217189090599 0.5860652749256956 393.27543963785325 0.0
2155.930404532387 180.59273066373495 5.90630403591297 0.5841729455772167 395.59516773161965 0.0
2179.935386804686 194.59384526246117 5.966796783898021 0.582371050283288 397.95311125729603 0.0
2204.642426410575 208.95993742781724 6.028700957739739 0.5805706329604625 400.3486982341418 0.0
2230.0589328944084 223.6928277454289 6.092016117563849 0.5786294210102634 402.78113502043635 0.0
2256.2563066749676 238.8236154761764 6.156838965222181 0.5766616265862581 405.2503908250171 0.0
2283.2016073386235 254.3367923464271 6.22311727333633 0.5748394421922649 407.7560864453435 0.0
2310.894381828381 270.23038862740685 6.290837331901769 0.5729322893383619 410.2972643916196 0.0
2339.3880215895647 286.5261890325043 6.36006054174775 0.570951715486899 412.8731075256692 0.0
2368.691290567868 303.22805889980367 6.430800331159084 0.5690813231637337 415.48395412590855 0.0
2398.7860476682263 320.32707681475017 6.503025193515056 0.5671364334220605 418.12942481666244 0.0
2429.7466286442964 337.85294540261793 6.576816033183847 0.5651532324882336 420.80808286670407 0.0
2461.5311026956774 355.78611607463046 6.6521070228972325 0.5632685412193323 423.519388423576 0.0
2494.179787591868 374.14446459187434 6.728956613357367 0.5612933257430619 426.263926491692 0.0
2527.7437746700284 392.948978677487 6.807425747515478 0.5593724611826367 429.04133904117657 0.0
2562.15697305713 412.1675059661314 6.887399093934419 0.5574086140973922 431.84962364736657 0.0
2597.5354956703736 431.84941929069475 6.969027292242702 0.5554628737177865 434.68879187402194 0.0
2633.801781294437 451.9619893021815 7.052213447933526 0.5535145263360803 437.55954505588323 0.0
2671.0965137693433 472.5642879732796 7.137134627082254 0.5515573885490976 440.4615602408136 0.0
2709.2865107024495 493.59458925167024 7.223580310546773 0.5496221805618751 443.39219174670734 0.0
2748.5278644466125 515.1200301466995 7.3117597483764305 0.5476586166975164 446.35224304333093 0.0
2788.745050762255 537.1090024008729 7.401580005728089 0.5457432222175473 449.3424024244641 0.0
2830.048983365692 559.6073981163111 7.493176469254394 0.5437803697076316 452.3623894048231 0.0
2872.3594968087746 582.575015775843 7.586399094922803 0.5418855623002639 455.4088468583903 0.0
2915.7477587247167 606.0442551264534 7.681357923845248 0.5399325596472107 458.48357591050296 0.0
2960.2737143620843 630.0405060485643 7.778131467022236 0.5380332048490359 461.5871295346198 0.0
3005.8986531094197 654.5464404154607 7.876663526163558 0.5361159730821683 464.7192724425523 0.0
3052.6762691568797 679.5766545423571 7.976962470167583 0.5341699007093155 467.87587687666405 0.0
3100.6162065230087 705.1395420708659 8.079074609257212 0.5323298949549393 471.0599151315838 0.0
3149.7356043970763 731.2420971190918 8.183020957157858 0.5304111496251194 474.2716930347005 0.0
3200.1536494866687 757.9326821727432 8.288940983346965 0.5284820373051788 477.5110201023164 0.0
3251.740926980534 785.1479404576548 8.39660279272265 0.5266618994440053 480.77294680996494 0.0
3304.5909984759805 812.9335650062947 8.50617460437724 0.5247899739179935 484.06176219100337 0.0
3358.7951940238904 841.3263287680572 8.617761477603345 0.5228904699504309 487.37742484726095 0.0
3414.3496233421884 870.3227866218692 8.731345545679233 0.521055952189931 490.71942709513365 0.0
3471.1803270998134 899.8829711844833 8.846765944641003 0.5192564476566721 494.0830324628434 0.0
3529.399797034179 930.0608340582633 8.964217320427828 0.517406650950905 497.47289006040484 0.0
3589.1024246602215 960.8938251293829 9.083804171459361 0.5155490810038694 500.8888825459008 0.0
3650.259687237474 992.3674076927219 9.205471394246853 0.5137551325413359 504.3299917615031 0.0
3712.8217680635094 1024.4527762589341 9.329096493110535 0.5119820851793975 507.7922253856572 0.0
3776.9069002878473 1057.205815994364 9.454877754044759 0.510214996778001 511.2801267663313 0.0
3842.552765281092 1090.6407233984787 9.582851421456667 0.5084163951354368 514.7936148893198 0.0
3909.81846650553 1124.7772640956114 9.713055321267138 0.5066218369247641 518.3310928584808 0.0
3978.6371172506183 1159.5813062898678 9.845358842130567 0.5048798723325945 521.8894715714698 0.0
4049.123974372426 1195.1069214298655 9.979952057125505 0.5031517642117658 525.4730848306887 0.0
4121.3198038293385 1231.3694056581041 10.116873491742593 0.5014322673954945 529.0818842067226 0.0
4195.221143128449 1268.3618319999514 10.256077673440567 0.4997230665805308 532.7136335653959 0.0
4270.8259649064075 1306.078181333142 10.397523193989606 0.49802541645263965 536.3662857953279 0.0
4348.259507371965 1344.5757314650257 10.54140523813756 0.496337635522595 540.0438741161018 0.0
4427.565995005173 1383.8710057312562 10.687764800129287 0.49465038797925764 543.7463790946406 0.0
4508.743176690149 1423.9558765847771 10.836544826421148 0.49297200711270506 547.4708712870953 0.0
4591.802811949096 1464.8320253347536 10.987735577900578 0.49131921020189573 551.216467733508 0.0
4676.860940771026 1506.55208344124 11.14151427788729 0.4896835144182088 554.9868210458568 0.0
4763.96529777644 1549.1338212783849 11.297924359749654 0.48805927992254006 558.781937487146 0.0
4853.078100453915 1592.5532545961516 11.456855986273132 0.4864483724111679 562.5981454122898 0.0
4944.253485679908 1636.8314082483728 11.6183648304289 0.4848510681864262 566.4358348263322 0.0
5037.615396155447 1682.0228807707545 11.782627656827053 0.48326622314955436 570.2982070044372 0.0
5133.215488598208 1728.1468286718425 11.949690531491958 0.4816938109805804 574.1852909518561 0.0
5230.993409005946 1775.168463958306 12.119404397747127 0.4801358467193779 578.0926279967849 0.0
5331.041259595266 1823.1265523539496 12.291886491394823 0.47859199826388377 582.021979385741 0.0
5433.479122640641 1872.0728324108984 12.467298846902999 0.47706134910458964 585.9760320290837 0.0
5538.362827386924 1922.0279318105518 12.645690248727007 0.4755361912365217 589.9548350790684 0.0
5645.624458341145 1972.9519898766264 12.826887129413324 0.4740191169874688 593.9531011119569 0.0
5755.400902051265 2024.9043333068664 13.011076535259798 0.472521967173293 597.9740527294582 0.0
5867.793916865651 2077.9280532171433 13.198389399184004 0.4710435385673044 602.019805726412 0.0
5982.863992947252 2132.045413405438 13.388877441459185 0.46957897851248553 606.0904271513187 0.0
6100.492110022921 2187.1945075973 13.582296998764031 0.46813042807272254 610.1797613821134 0.0
6220.87073619258 2243.459647492243 13.778917809820724 0.4666961969349739 614.2925763096104 0.0
6344.1041655679965 2300.8832532002752 13.978860269425043 0.4652759902221213 618.4303648993331 0.0
6470.25760635014 2359.489244245687 14.182179001813049 0.4638618944596544 622.5932101621104 0.0
6599.201326334021 2419.209159915601 14.388600355023101 0.4624454842840926 626.7740504200112 0.0
6731.228226075635 2480.1695504535983 14.598521397403978 0.4610490738526014 630.9792782513232 0.0
6866.3751660469425 2542.385130677561 14.811980858265558 0.4596841548453465 635.2097160524316 0.0
7004.71261593695 2605.8816593557676 15.029036500903612 0.45831062861629235 639.4654611461091 0.0
