e[MeV/fm^3], P[MeV/fm^3], rho[fm^-3], v2[1], mu_q[MeV], mu_e[MeV]
70.21755168181654 0.006206087273093519 0.07407856508846018 0.017597877650005332 316.5185077347417 89.2771661002368
71.43578994790998 0.027644495228360377 0.07535555647246353 0.0175978776500052 316.5894798429086 89.8124074562691
72.67502861766434 0.04945246571785267 0.07665456106626496 0.017597877650005228 316.6616753923034 90.35687548400062
73.93562970314778 0.07163636938565421 0.07797595834102777 0.01759787765000538 316.7351154730202 90.91072923592193
75.21796145691394 0.09420268669514797 0.07932013430936638 0.01759787765000533 316.8098215387112 91.47413050632369
76.5223984795798 0.11715800982215896 0.0806874816381126 0.01759787765000522 316.8858154128541 92.04724387856187
77.84932182925448 0.14050904458066893 0.08207839976302188 0.017597877650005325 316.96311929512683 92.630236773136
79.19911913285509 0.16426261238173973 0.08349329500545777 0.017597877650005436 317.0417557678931 93.22327949659658
80.57218469934486 0.18842565222626206 0.08493258069109116 0.017597877650005332 317.12174780279906 93.82654529129692
81.96891963491473 0.21300522273190858 0.08639667727063695 0.017597877650005284 317.20311876748366 94.44021038599915
83.38973196016327 0.23800850419525207 0.0878860124426853 0.017597877650005242 317.2858924324053 95.06445404735784
84.83503672928572 0.26344280068923775 0.08940102127863886 0.01759787765000527 317.37009297778565 95.69945863228664
86.3052561513196 0.28931554219685157 0.0909421463498059 0.01759787765000538 317.45574500067295 96.34540964122833
87.80081971348744 0.3156342867816875 0.09250983785669148 0.017597877650005325 317.54287352212793 97.00249577234631
89.32216430665855 0.3424067227958098 0.09410455376051008 0.01759787765000531 317.63150399453286 97.67090897664707
90.86973435297011 0.3696406711256137 0.09572675991696154 0.017597877650005242 317.7216623090265 98.3508445140514
92.44398193566516 0.39734408747669764 0.0973769302123309 0.017597877650005228 317.8133748030682 99.04250101043964
94.04536693114535 0.4255250646977123 0.09905554670190979 0.01759787765000531 317.90666826813106 99.74608051566989
95.67435714332068 0.45419183514462985 0.10076309975082554 0.017892055534992374 318.00156995752883 100.46178856260559
97.33169327479138 0.4843410207312542 0.10250008817728433 0.018775745774211428 318.10048622561175 101.18570399772256
99.01814146064449 0.5170082040359527 0.10426701939828847 0.020025246310001077 318.2058447860128 101.91428658825437
100.73429318912723 0.5525181669555139 0.1060644095778678 0.02129999675038627 318.31828524079526 102.64750316311726
102.48063871606901 0.5907964457966746 0.10789278377786223 0.022549781036994038 318.43751805132047 103.38670836290729
104.25774423592242 0.6320103592916358 0.10975267611130558 0.023887708108000116 318.5638120290785 104.13237516689382
106.06623539667063 0.676492214395437 0.11164462989845152 0.025339806313660923 318.697770868173 104.88465247088972
107.90674784282342 0.7245234535359056 0.11356919782549418 0.026726883379044414 318.8398212612412 105.64215664334085
109.77980899298537 0.7757858510810522 0.11552694210601787 0.028008654354195556 318.9889635986241 106.39548846211913
111.68603200563659 0.8304189676497289 0.11751843464523576 0.02941848660514751 319.1453310518051 107.14305877628786
113.62612253642692 0.8889903796251314 0.1195442572070575 0.0310000273545607 319.31003653378224 107.89037199216354
115.60075117782822 0.9518318179215621 0.1216050015840337 0.03259969837934959 319.4836179784206 108.6399435927219
117.61049319554543 1.0189345897359714 0.12370126977023699 0.03419210470702347 319.6659546827271 109.3941654142798
119.65602415051524 1.0905481505064962 0.12583367413711752 0.03592218882239359 319.8573917239201 110.15411877028433
121.73815641876267 1.1672766767204164 0.12800283761239192 0.03778190969818496 320.0588603075681 110.92020174565145
123.85759205422588 1.2493614886182018 0.1302093938620144 0.0396255479711905 320.27062777688235 111.69348487044105
126.01496433860267 1.3368161240061027 0.13245398747528928 0.041461386350795104 320.4925793312381 112.47517112638602
128.2110155783424 1.429932568241939 0.13473727415316794 0.04346252473119688 320.7250671173629 113.26594974297757
130.4466887956552 1.52951487508801 0.1370599208997976 0.045590760196347446 320.969220213987 114.06610244230104
132.72270298041246 1.6357091714792171 0.13942260621736857 0.04767926014436641 321.22510082538804 114.87651716166351
135.03976205186157 1.748593799706529 0.14182602030432198 0.04977029748745049 321.49267975935425 115.69799950047124
137.3986835249372 1.8685229353243933 0.14427086525697244 0.05206400529136951 321.77234677231564 116.53110782929468
139.80057355445675 1.9965668028217445 0.14675785527460983 0.05448295484632937 322.0654823434704 117.37614392238619
142.24614757531495 2.1327305435734982 0.1492877168681315 0.05683638595368079 322.37191652081754 118.23384218287305
144.73619757503982 2.2771938463603174 0.15186118907227755 0.059208520968313694 322.69174413674494 119.10477732777403
147.27162660197732 2.430390920319256 0.15447902366151722 0.0618292055008095 323.0254080857181 119.98940983187808
149.85374556019306 2.5937403356179334 0.15714198536966398 0.06457197399617759 323.3745941649684 120.88804723823948
152.4832372283129 2.7670401807274834 0.15985085211327107 0.06721882453614525 323.7388555425644 121.80124809303793
155.16100474728017 2.9506159576823916 0.1626064152188807 0.06990575565196155 324.1184454344821 122.72942464238325
157.8880490867394 3.1450019316856195 0.16540947965419006 0.07289593855263288 324.5138717435153 123.67293532678868
160.66593902373984 3.3520690822739376 0.16826086426320178 0.07600220080988451 324.92718571735776 124.63202719571277
163.4952840125817 3.5713158744339593 0.17116140200542868 0.07897839931111106 325.3576004812541 125.6070903482084
168.54665618878084 3.984185506025624 0.17624150390105087 0.013707010325157351 325.8055622707938 129.15567395432788
177.7337915771376 4.11011366565245 0.20970832480243906 0.013707010325157434 326.2716886567447 125.1117759467632
199.36552462856247 4.40662005393938 0.28418478406265896 0.013707010325157462 326.7583492276527 120.88973280058843
221.86108431885185 4.714966922884373 0.36163533464160685 0.015966559830325966 327.26444376458807 116.4990895089038
242.24081486613682 5.08207896143573 0.43289476865234633 0.023144829483790763 327.7906096931573 112.28290688266361
258.8233650341171 5.535114430975496 0.4927998392198144 0.027320011997584354 328.3377308078966 108.43291908483994
276.11022391165955 6.007391622910504 0.5552492508277258 0.027320011997584465 328.90808973361146 104.41941120655535
294.06951281108525 6.498039611110899 0.6201278405478424 0.03948802981225119 329.50063467169656 100.2497845556504
306.4709480484893 7.09194950632434 0.6676569399690115 0.0480640326359669 330.116072530961 96.68892479874802
319.2838870320674 7.71008937482136 0.7168115221031239 0.04824340998495874 330.7555888744374 92.99782413312859
332.6215611060228 8.353544253416946 0.7679791579270776 0.06296764154442536 331.42129567013734 89.15555986298033
342.5303659151167 9.085869787485866 0.8084257040101204 0.07432665005724409 332.11220306471756 85.74220137122022
352.71541914131774 9.847288749768154 0.8500828866635952 0.07827630702445632 332.8290718474655 82.21461195033658
362.57107124111826 10.652302106270593 0.8910166236834809 0.09464234942410121 333.57341318817043 78.68130299160887
370.86738469381027 11.528007113426112 0.9272850059753632 0.10555351026079784 334.34705688852574 75.35919575737877
379.4681470875421 12.435847775003568 0.9648843252725738 0.11936275597766477 335.149090910276 71.9151775038448
386.9165423662641 13.413984298137962 0.9994264254263189 0.1348039172246588 335.9803024130194 68.6714992784231
394.31526769934675 14.436953031183473 1.0342680985886712 0.1468941513302937 336.84253077264475 65.3795884598964
401.310396519486 15.521580176106715 1.0688374714485709 0.16267079641545368 337.73719306437926 62.15296468604051
408.0228076717731 16.662550053982912 1.1033984079301848 0.176207999210086 338.6634726746745 58.959278521254575
414.60271548805804 17.86215870962884 1.139135605799686 0.18971054842975654 339.6221443059857 55.78889090323638
421.0180010432467 19.125470473835133 1.1761246740810434 0.20138739138536343 340.61534675451054 52.65193007522298
427.476377172541 20.45513796667519 1.2164963985651174 0.20984063034218692 341.6439533067965 49.526771100887096
433.99115752436285 21.84821425243713 1.2600259470334938 0.2148187367931409 342.70726027181 46.40374062715841
440.8001886960785 23.317935419633738 1.312202779250387 0.21622748989176155 343.8059831368225 43.30655789656729
447.87449004273356 24.850377221281626 1.3690715226309562 0.6104910396089842 344.9424917462097 40.155142810657765
450.07939662150375 26.46712898983129 1.375795002473311 0.7359984323767863 346.11701155796936 37.12818246052643
452.3437968117176 28.14011121755411 1.3825778523898775 0.7407007185228283 347.328966229596 34.13076501897534
454.67798477585967 29.873573207593424 1.3894831017591922 0.7437628505260196 348.57896372915343 31.255024465212863
457.0951145244921 31.674154348773673 1.396545636878424 0.7453132784923824 349.86949367684684 28.531650808663912
459.59426534343544 33.537807117436444 1.4037984539160175 0.7459934203907217 351.2000887836266 25.868809154517727
462.17814186241577 35.46610737932349 1.411239646958401 0.7461849236839857 352.5703075794808 23.301419112385403
464.8565368762621 37.46441613335359 1.418883093780472 0.7458369615154163 353.98060905644974 20.882927086545624
467.63060344412577 39.532706565722066 1.4267563785092472 0.7452439730234994 355.4334521442952 18.533224674890963
470.5008176014385 41.670716457065616 1.4348578189516126 0.744456801405982 356.9277197298895 16.264208959084428
473.4693545692824 43.879316787173586 1.443191624149168 0.7433062335422331 358.4631014669581 14.082336477933806
476.5457959635873 46.16383345990197 1.4517712108256418 0.741981148287044 360.03988091456415 12.027573337469725
479.7307325649251 48.525008065476285 1.4606098716498794 0.7407102170867246 361.66030746350987 10.053139682020406
483.02346099613766 50.96176436717425 1.4697030807075673 0.7393533567129191 363.3227610243933 8.163947827071215
486.42622243558435 53.47518696720465 1.479054163304815 0.7379188269184009 365.0270429856405 6.362770417635197
489.9418546773923 56.06681135309506 1.4886679228888189 0.7364193369370673 366.7732551876847 4.651147811675716
493.5767773191508 58.74081132309584 1.4985586381823188 0.734864605590813 368.5632457970251 3.028575364249498
497.329875223556 61.49581955193353 1.5087198290643316 0.7332654532949299 370.39513942729127 1.4975722669045557
501.2035511117816 64.33306577825752 1.519154444080971 0.7316285797215363 372.26881070045994 0.05859380868280131
505.20048007292246 67.25397508227509 1.5298659387153044 0.7299585109250089 374.18425749083553 -1.2881862592221696
509.3256403486589 70.26163769460032 1.5408635724110262 0.7282577742340379 376.1425479489815 -2.543332068829584
513.578382897483 73.35502919805968 1.5521414884830178 0.7265305564873792 378.1420680020603 -3.7057907752980115
517.9610792433893 76.53532180776601 1.5637018872736632 0.7247791379795423 380.18264288681297 -4.775590425437581
522.4762942544943 79.80381609565625 1.5755474313762565 0.7230057764292006 382.2641765278808 -5.752822786664017
527.1272238613843 83.16225521068633 1.5876823726703333 0.7212123721523582 384.38684656688184 -6.63768224445019
531.9143966139499 86.61044670875309 1.6001039752496764 0.7194016053162375 386.54960838431725 -7.42987850138496
536.8400026850534 90.14939208672044 1.61281383816199 0.717575292324236 388.75217980057613 -8.129492711260767
541.9062391083877 93.78008815216712 1.6258135475541133 0.7157037976696188 390.99427615507426 -8.736599043368763
547.1167971389204 97.5042571869634 1.6391058917298498 0.7137165132083911 393.27543963785325 -9.247851177575711
552.4778810941012 101.324932513604 1.652696440515524 0.7117356185859123 395.59516773161965 -9.65601373081506
557.9860997096522 105.24004870887829 1.666579939933768 0.7098405618928503 397.95311125729603 -9.97146297755612
563.6429987654901 109.2501036370722 1.6807562468509154 0.7079387909569075 400.3486982341418 -10.194261066625169
569.4495802619119 113.3552061900081 1.695223868602507 0.7058782360884504 402.78113502043635 -10.324463753465542
575.4192852473562 117.5623654323089 1.7099981897931926 0.7037808941051509 405.2503908250171 -10.347316431853175
581.5455880582572 121.8678373581708 1.725070191241809 0.7018292558058512 407.7560864453435 -10.275938474004034
587.8279083840201 126.27079824338479 1.7404359677972072 0.6997766502395422 410.2972643916196 -10.112056770165344
594.2758863967591 130.77584275728336 1.756103858391329 0.6976355952754894 412.8731075256692 -9.845111899449071
600.891184692658 135.3838522645649 1.7720766124948395 0.6956042643370992 415.48395412590855 -9.478524399955734
607.6701030610502 140.09259749272525 1.7883485192388524 0.6934808744518879 418.12942481666244 -9.019390347297062
614.6258879095171 144.90819948876967 1.8049299210164684 0.691306619147996 420.80808286670407 -8.452843396892865
621.7502866067924 149.82597701800523 1.8218093396595436 0.689229689235427 423.519388423576 -7.790328284189557
629.050976022422 154.85002620972242 1.8389971550917785 0.6870423424542995 426.263926491692 -7.028745111317423
636.537219874071 159.98480589593743 1.8565024552113438 0.6849058513308304 429.04133904117657 -6.161466693863658
644.1956370463045 165.22234852016317 1.8743032373793753 0.6827093199093124 431.84962364736657 -5.2001200943508445
652.0477487343182 170.57352391993862 1.8924235724331342 0.6805244086334046 434.68879187402194 -4.127923097591794
660.0792481127506 176.0311813209187 1.910849246584335 0.6783236114991968 437.55954505588323 -2.962309241227075
668.3160012918235 181.60816153407143 1.9296079500466246 0.676104348784099 440.4615602408136 -1.6830646237563849
676.7319001207137 187.28975666227072 1.9486613304043776 0.6738967040387305 443.39219174670734 -0.3098937045118655
685.3560938032441 193.09091513602627 1.9680442121775148 0.6716461266248519 446.35224304333093 1.1768601714890856
694.1747633414808 199.00478900679445 1.9877428285962 0.6694334005781553 449.3424024244641 2.7622624265201754
703.2082037172628 205.04120292606797 2.0077779253248247 0.6671490599798613 452.3623894048231 4.460065900894546
712.4399596248428 211.18996418333865 2.0281191290662566 0.6649229411349253 455.4088468583903 6.260978346904978
721.8839824774064 217.4586750065635 2.048786658974721 0.6626046029713191 458.48357591050296 8.170125004970286
731.551611912356 223.85290312777252 2.069793175729002 0.660324603769876 461.5871295346198 10.19230169585056
741.4356412266626 230.36864305669695 2.0911286278903525 0.6579908459011783 464.7192724425523 12.320776531012546
751.5442233178292 237.0073005815224 2.112785359850706 0.6555879036616812 467.87587687666405 14.565029207572923
761.8807276601605 243.77166571662025 2.134774965745498 0.6532773921582553 471.0599151315838 16.920886057341725
772.448736389125 250.6632136696713 2.1570999164375877 0.6508211536156612 474.2716930347005 19.388508032876217
783.270754449 257.69208287051237 2.1797789858407546 0.6483004686407554 477.5110201023164 21.980486392340367
794.3210565752701 264.84249699665577 2.2027647093001232 0.6408782336196648 480.77294680996494 24.685108243937627
805.8012326752332 272.12594151152314 2.2252839487383955 0.5444961755842517 484.06176219100337 27.507307823734116
824.4731630534992 279.56133758847875 2.2177600971909683 0.37861077937737786 487.37742484726095 30.42768935920184
845.8526414264969 287.175995532334 2.2011259956022 0.3736923465514508 490.71942709513365 33.37392901468926
865.798978510988 294.9559287058308 2.193367038710692 0.4018996634601315 494.0830324628434 36.35095013722543
885.0444850603899 302.9108575143327 2.1911352084177507 0.42136771598523026 497.47289006040484 39.37599441475638
904.0010128323302 311.0484275436639 2.1926124227685118 0.4339417467098112 500.8888825459008 42.45985904080489
922.9572264951544 319.36277582359844 2.196389693934787 0.44135025802432004 504.3299917615031 45.60566498164983
942.0576131811697 327.84551163323175 2.2017203734406903 0.4455547398073296 507.7922253856572 48.812548239447196
961.4432339136347 336.51122727899946 2.208137099088128 0.44754123320005235 511.2801267663313 52.08687852366251
981.2002962665173 345.3638689400259 2.2153120160561706 0.44792549388134617 514.7936148893198 55.43001073019829
1001.401603895198 354.40946574379404 2.223022550160222 0.44717162748405315 518.3310928584808 58.84315095151411
1022.0707827276741 363.63942179605345 2.231073466796868 0.44566598439626226 521.8894715714698 62.3215974847191
1043.2724508890608 373.0689173958765 2.239359482157935 0.4436620121602175 525.4730848306887 65.86916663901648
1065.042453288368 382.7030634493571 2.2477982820807343 0.44131869958509995 529.0818842067226 69.4855103471246
1087.3986855402452 392.54119599954583 2.256324048785193 0.43875572199450374 532.7136335653959 73.16783459827845
1110.3558615626675 402.5829892796344 2.264887634012027 0.43606124243167343 536.3662857953279 76.91326367153115
1133.96480318173 412.8450865426731 2.2734663984346097 0.4332956007904425 540.0438741161018 80.72504544761863
1158.2499563603978 423.333404551259 2.2820373908091582 0.4304891301636182 543.7463790946406 84.60222553680546
1183.221351456617 434.0475566073138 2.2905770373726706 0.4276892624744857 547.4708712870953 88.54109467213453
1208.889693441719 444.98954325911785 2.2990739357894143 0.42494854701500095 551.216467733508 92.53915371343746
1235.297135308069 456.17508378644635 2.3075313661948282 0.4222699135545245 554.9868210458568 96.59883781946397
1262.4650114306824 467.6107742246333 2.315946963591496 0.4196557128574909 558.781937487146 100.71895746305655
1290.3873246635153 479.29205174692663 2.3243130337008124 0.4163615995358878 562.5981454122898 104.89424515270323
1319.1822785158902 491.2221431340198 2.3323915450522854 0.4123740639490574 566.4358348263322 109.13435468328528
1348.9111944602448 503.42209938246737 2.3401759374845934 0.4087693121349245 570.2982070044372 113.43255575141711
1379.562427557239 515.900690273228 2.34775693614182 0.40562658093444437 574.1852909518561 117.78514680240272
1411.1153177394006 528.651020819124 2.3551491354893277 0.4026862984163868 578.0926279967849 122.18580025494633
1443.6026265570763 541.6861314228081 2.3623689603049742 0.39989600233315414 582.021979385741 126.63512521870538
1477.068378250909 555.0227223461179 2.369430468769524 0.3972318560511967 585.9760320290837 131.13482609003216
1511.5368441703026 568.6691557684545 2.3763410969203025 0.39466922203550237 589.9548350790684 135.68364332796662
1546.9939229876377 582.6176928642948 2.38309680289238 0.3922050538859274 593.9531011119569 140.27436498619508
1583.49088902337 596.887390673979 2.3897102276368174 0.3898527217382872 597.9740527294582 144.90926907491496
1621.0669323842899 611.4927815366543 2.3961923867130546 0.3876047783004264 602.019805726412 149.58934255473508
1659.749168223755 626.4430302839456 2.4025494997347834 0.3854491172078518 606.0904271513187 154.31336277213916
1699.5040257748944 641.724028766335 2.4087784091862185 0.3833851351699096 610.1797613821134 159.07286731733544
1740.4029407862758 657.36217712269 2.414892849362031 0.38140692903609974 614.2925763096104 163.8721030507097
1782.488171443317 673.372460535146 2.4209011761295818 0.37951091181178587 618.4303648993331 168.7115567284102
1825.7889112928622 689.7648298309927 2.426809562323143 0.37768433855149564 622.5932101621104 173.59009517615092
1870.269571840777 706.5240017313081 2.432612934636413 0.3759150898086867 626.7740504200112 178.49829525238076
1916.0411142266428 723.6897442089604 2.4383249219851684 0.3742281552970903 630.9792782513232 183.44251126694425
1963.1179319786715 741.2683467968234 2.4439557596848136 0.3726340691163079 635.2097160524316 188.4223406443777
2011.5314418399694 759.2706100067944 2.4495114279276065 0.37105351980449797 639.4654611461091 193.4367613562046
