e[MeV/fm^3], P[MeV/fm^3], rho[fm^-3], v2[1], mu_q[MeV], mu_e[MeV]
70.21755168181654 0.006206087273093519 0.07407856508846018 0.017597877650005332 316.5185077347417 89.2771661002368
71.43578994790998 0.027644495228360377 0.07535555647246353 0.0175978776500052 316.5894798429086 89.8124074562691
72.67502861766434 0.04945246571785267 0.07665456106626496 0.017597877650005228 316.6616753923034 90.35687548400062
73.93562970314778 0.07163636938565421 0.07797595834102777 0.01759787765000538 316.7351154730202 90.91072923592193
75.21796145691394 0.09420268669514797 0.07932013430936638 0.01759787765000533 316.8098215387112 91.47413050632369
76.5223984795798 0.11715800982215896 0.0806874816381126 0.01759787765000522 316.8858154128541 92.04724387856187
77.84932182925448 0.14050904458066893 0.08207839976302188 0.017597877650005325 316.96311929512683 92.630236773136
79.19911913285509 0.16426261238173973 0.08349329500545777 0.017597877650005436 317.0417557678931 93.22327949659658
80.57218469934486 0.18842565222626206 0.08493258069109116 0.017597877650005332 317.12174780279906 93.82654529129692
81.96891963491473 0.21300522273190858 0.08639667727063695 0.017597877650005284 317.20311876748366 94.44021038599915
83.38973196016327 0.23800850419525207 0.0878860124426853 0.017597877650005242 317.2858924324053 95.06445404735784
84.83503672928572 0.26344280068923775 0.08940102127863886 0.01759787765000527 317.37009297778565 95.69945863228664
86.3052561513196 0.28931554219685157 0.0909421463498059 0.01759787765000538 317.45574500067295 96.34540964122833
87.80081971348744 0.3156342867816875 0.09250983785669148 0.017597877650005325 317.54287352212793 97.00249577234631
89.32216430665855 0.3424067227958098 0.09410455376051008 0.01759787765000531 317.63150399453286 97.67090897664707
90.86973435297011 0.3696406711256137 0.09572675991696154 0.017597877650005242 317.7216623090265 98.3508445140514
92.44398193566516 0.39734408747669764 0.0973769302123309 0.017597877650005228 317.8133748030682 99.04250101043964
94.04536693114535 0.4255250646977123 0.09905554670190979 0.01759787765000531 317.90666826813106 99.74608051566989
95.67435714332068 0.45419183514462985 0.10076309975082554 0.017892055534992374 318.00156995752883 100.46178856260559
97.33169327479138 0.4843410207312542 0.10250008817728433 0.018775745774211428 318.10048622561175 101.18570399772256
99.01814146064449 0.5170082040359527 0.10426701939828847 0.020025246310001077 318.2058447860128 101.91428658825437
100.73429318912723 0.5525181669555139 0.1060644095778678 0.02129999675038627 318.31828524079526 102.64750316311726
102.48063871606901 0.5907964457966746 0.10789278377786223 0.022549781036994038 318.43751805132047 103.38670836290729
104.25774423592242 0.6320103592916358 0.10975267611130558 0.023887708108000116 318.5638120290785 104.13237516689382
106.06623539667063 0.676492214395437 0.11164462989845152 0.025339806313660923 318.697770868173 104.88465247088972
107.90674784282342 0.7245234535359056 0.11356919782549418 0.026726883379044414 318.8398212612412 105.64215664334085
109.77980899298537 0.7757858510810522 0.11552694210601787 0.028008654354195556 318.9889635986241 106.39548846211913
111.68603200563659 0.8304189676497289 0.11751843464523576 0.02941848660514751 319.1453310518051 107.14305877628786
113.62612253642692 0.8889903796251314 0.1195442572070575 0.0310000273545607 319.31003653378224 107.89037199216354
115.60075117782822 0.9518318179215621 0.1216050015840337 0.03259969837934959 319.4836179784206 108.6399435927219
117.61049319554543 1.0189345897359714 0.12370126977023699 0.03419210470702347 319.6659546827271 109.3941654142798
119.65602415051524 1.0905481505064962 0.12583367413711752 0.03592218882239359 319.8573917239201 110.15411877028433
121.73815641876267 1.1672766767204164 0.12800283761239192 0.03778190969818496 320.0588603075681 110.92020174565145
123.85759205422588 1.2493614886182018 0.1302093938620144 0.0396255479711905 320.27062777688235 111.69348487044105
126.01496433860267 1.3368161240061027 0.13245398747528928 0.041461386350795104 320.4925793312381 112.47517112638602
128.2110155783424 1.429932568241939 0.13473727415316794 0.04346252473119688 320.7250671173629 113.26594974297757
130.4466887956552 1.52951487508801 0.1370599208997976 0.045590760196347446 320.969220213987 114.06610244230104
132.72270298041246 1.6357091714792171 0.13942260621736857 0.04767926014436641 321.22510082538804 114.87651716166351
135.03976205186157 1.748593799706529 0.14182602030432198 0.04977029748745049 321.49267975935425 115.69799950047124
137.3986835249372 1.8685229353243933 0.14427086525697244 0.05206400529136951 321.77234677231564 116.53110782929468
139.80057355445675 1.9965668028217445 0.14675785527460983 0.05448295484632937 322.0654823434704 117.37614392238619
142.24614757531495 2.1327305435734982 0.1492877168681315 0.05683638595368079 322.37191652081754 118.23384218287305
144.73619757503982 2.2771938463603174 0.15186118907227755 0.059208520968313694 322.69174413674494 119.10477732777403
147.27162660197732 2.430390920319256 0.15447902366151722 0.0618292055008095 323.0254080857181 119.98940983187808
149.85374556019306 2.5937403356179334 0.15714198536966398 0.06457197399617759 323.3745941649684 120.88804723823948
152.4832372283129 2.7670401807274834 0.15985085211327107 0.06721882453614525 323.7388555425644 121.80124809303793
155.16100474728017 2.9506159576823916 0.1626064152188807 0.06990575565196155 324.1184454344821 122.72942464238325
157.8880490867394 3.1450019316856195 0.16540947965419006 0.07289593855263288 324.5138717435153 123.67293532678868
160.66593902373984 3.3520690822739376 0.16826086426320178 0.07600220080988451 324.92718571735776 124.63202719571277
163.4952840125817 3.5713158744339593 0.17116140200542868 0.07897532922519734 325.3576004812541 125.6070903482084
166.37712853614147 3.8032695276021222 0.17411194019922174 0.08202037368123771 325.8055622707938 126.59840218489457
169.31260061973967 4.048620249866702 0.17711334076929286 0.08542133552471287 326.2716886567447 127.60620334892384
172.303551331823 4.309718566586897 0.18016648049850292 0.0889270452590527 326.7583492276527 128.63058410314463
175.35050383107742 4.585737524453315 0.1832722512839939 0.09226446929582366 327.26444376458807 129.67181814230588
178.45466868853612 4.877441713994387 0.18643156039773165 0.09572802473872655 327.7906096931573 130.73004905217363
181.61738960046912 5.18586172672753 0.18964533075154347 0.09956214286511778 328.3377308078966 131.80536363429957
184.84067158507494 5.5134958934314255 0.19291450116672415 0.10348029397253222 328.90808973361146 132.89762523650757
188.12508868773136 5.859506730761704 0.19624002664828616 0.10723125726635341 329.50063467169656 134.00704679883177
191.47199658539387 6.224818666062787 0.19962287866394354 0.11114950466071183 330.116072530961 135.1336328978941
194.88301649425165 6.610906017540677 0.2030640454278977 0.11544544815415358 330.7555888744374 136.2772622126371
198.3602890613904 7.020342674256472 0.2065645321895225 0.11979382346787826 331.42129567013734 137.43754067535426
201.9044613376726 7.452308308070558 0.2101253615270204 0.12397650239191993 332.11220306471756 138.61467605675114
205.5170562570145 7.907903230714149 0.21374757364614289 0.1283699626450635 332.8290718474655 139.80852765902867
209.2000509218192 8.389163756231573 0.21743222668406043 0.1331367755092301 333.57341318817043 141.01869117551004
212.95568685700158 8.89862029273525 0.22118039701847075 0.1379109881763032 334.34705688852574 142.2445530860434
216.7847142491265 9.435507109353031 0.224993179582034 0.1425209986125906 335.149090910276 143.4863497980139
220.6888478651131 10.001107919216421 0.22887168818223044 0.1473848211915132 335.9803024130194 144.74379875149575
224.67051841244387 10.598148441577159 0.23281705582673115 0.15260238957125072 336.84253077264475 146.0161250814302
228.73201076449018 11.228941923303356 0.23683043505437643 0.1577674592771845 337.73719306437926 147.30260528428684
232.87421847820065 11.892825884399452 0.2409129982718618 0.16276966708385543 338.6634726746745 148.60351662363965
237.09907459677976 12.591262929879372 0.2450659380962259 0.1680647442175771 339.6221443059857 149.91845083271977
241.4095830266287 13.327795359770137 0.24929046770324403 0.17367604335428166 340.61534675451054 151.2461733723472
245.80798450797525 14.104290408314728 0.25358782118182577 0.17916063314688135 341.6439533067965 152.5860269646372
250.29536865638684 14.920249387540146 0.2579592538945237 0.18448376658109078 342.70726027181 153.9383214680799
254.87391430339358 15.777295306389933 0.26240604284425445 0.19013115054428797 343.8059831368225 155.30255316107613
259.54734193097937 16.679902122692877 0.2669294870473437 0.19603884001981875 344.9424917462097 156.67695034502995
264.3177234138911 17.62921742422393 0.2715309079130002 0.20173455319505607 346.11701155796936 158.06114921462316
269.1864120746621 18.624978432827973 0.2762116496293318 0.20727097595137622 347.328966229596 159.45546560193614
274.15586021544175 19.66893704821644 0.28097307955601647 0.2131521958171756 348.57896372915343 160.8593430130801
279.2306731431928 20.76658998854091 0.28581658862374093 0.21922189252154145 349.86949367684684 162.27041922778363
284.412585417037 21.918069468750467 0.29074359174052566 0.2249894143101847 351.2000887836266 163.68887481305947
289.7032992122702 23.123430865940225 0.29575552820505524 0.2306016920899494 352.5703075794808 165.1149897852477
295.1055673860831 24.38451504681977 0.300853862127132 0.23656661428271297 353.98060905644974 166.5482047162215
300.6250734626658 25.70790002720107 0.3060400828553784 0.24263779812409947 355.4334521442952 167.985546141962
306.2629978571605 27.092417065261266 0.3113157054123131 0.24831998114039466 356.9277197298895 169.42797804232237
312.0214966673664 28.538529352055203 0.3166822709369256 0.2538541104542591 358.4631014669581 170.8756920374787
317.9036494111742 30.048126085066315 0.3221413471348811 0.2594262475236233 360.03988091456415 172.3281747479247
333.9682344432409 34.34370622264963 0.33692472793152856 0.000996620552305465 361.66030746350987 236.27476524202322
551.7920688603258 34.653979318710945 0.9895032401362776 0.0018522237616479431 363.3227610243933 165.21162141980713
1983.862102510692 41.334271457091646 5.314283735497357 0.012937233531632536 365.0270429856405 89.68736853355213
2703.8260451400415 53.64288722198712 7.517457026656279 0.7476600414787775 366.7732551876847 25.38274485253197
2721.465870339457 67.14722431733043 7.566128582876093 0.8153664347835192 368.5632457970251 0.0
2737.610469264166 81.04694022910358 7.609829239494542 0.8604023729758525 370.39513942729127 0.0
2754.241636037224 95.3470285179989 7.65462103924757 0.8592738185651378 372.26881070045994 0.0
2771.3681167184254 110.05343690916035 7.700510985047627 0.8581180954861387 374.18425749083553 0.0
2789.00843619611 125.18044800056765 7.747531893441285 0.8569363775268388 376.1425479489815 0.0
2807.156995067372 140.72162196193113 7.795652211709629 0.8557312942110613 378.1420680020603 0.0
2825.821081493545 156.68155346969147 7.8448748882502874 0.8545041841503949 380.18264288681297 0.0
2845.0087456754773 173.06545314145373 7.895204806569958 0.8532563910883675 382.2641765278808 0.0
2864.7306464570356 189.88071642206273 7.946653539489018 0.8519890283473304 384.38684656688184 0.0
2884.986083167454 207.1250249709409 7.99920303427314 0.8507037816636895 386.54960838431725 0.0
2905.781370644385 224.80202421444787 8.052853664638183 0.8494017486534808 388.75217980057613 0.0
2927.1228032679624 242.91531318603288 8.107605747077466 0.8480613664240124 390.99427615507426 0.0
2949.021200656807 261.4712897629975 8.163460323363847 0.846631178609778 393.27543963785325 0.0
2971.4954586295294 280.4817282340678 8.220424171330032 0.8451992166764759 395.59516773161965 0.0
2994.5331585121635 299.9371885214355 8.278481513111329 0.8438224578072804 397.95311125729603 0.0
3018.1376855565886 319.8387031353525 8.337625506611529 0.8424343466594939 400.3486982341418 0.0
3042.3101379261025 340.18536558758444 8.397843752324684 0.84092237737869 402.78113502043635 0.0
3067.093693703005 361.0059071468473 8.459170444985919 0.8393765681815815 405.2503908250171 0.0
3092.4656388179815 382.28386231768684 8.52158100984262 0.8379305053596475 407.7560864453435 0.0
3118.4214369966135 404.014149747686 8.585055762344327 0.836401521829413 410.2972643916196 0.0
3144.9898393884064 426.2141893095712 8.64960411174881 0.8347988987095691 412.8731075256692 0.0
3172.17625797805 448.88763775402714 8.715236089139989 0.8332706232423845 415.48395412590855 0.0
3199.967267895949 472.024374778849 8.781934546293245 0.8316637361441677 418.12942481666244 0.0
3228.4013887334945 495.6469182290727 8.849706327690571 0.830010697541999 420.80808286670407 0.0
3257.450171576847 519.7348418694277 8.918519505210915 0.8284225278582245 423.519388423576 0.0
3287.138750419213 544.3052361058498 8.988404056871488 0.8267407070678363 426.263926491692 0.0
3317.494974364587 569.3751585265425 9.059376308380903 0.8250898405613594 429.04133904117657 0.0
3348.470784667563 594.9087131975458 9.131364024594108 0.8233817828975081 431.84962364736657 0.0
3380.133501620713 620.9492966208935 9.204421389237003 0.821675060843976 434.68879187402194 0.0
3412.4387534491857 647.4686090256283 9.278524481222782 0.8199442490545898 437.55954505588323 0.0
3445.4663050047084 674.5171600298213 9.353731798288623 0.818191133650485 440.4615602408136 0.0
3479.1266858521935 702.0310897019933 9.4299270579101 0.8164353354543366 443.39219174670734 0.0
3513.512229919915 730.0708462736065 9.507197670161746 0.8146383744153631 446.35224304333093 0.0
3548.580361193377 758.609597278399 9.585520932922263 0.8128636822485458 449.3424024244641 0.0
3584.3923276349465 787.6852826861743 9.664941055758202 0.8110277014901897 452.3623894048231 0.0
3620.886948553945 817.2510422499612 9.745352463522973 0.8092350875378287 455.4088468583903 0.0
3658.1106211843407 847.3393794869363 9.826822387297844 0.8073673890962993 458.48357591050296 0.0
3696.097854988948 877.9724182455193 9.909387501887673 0.8055324553473735 461.5871295346198 0.0
3734.8241169398934 909.1332900864869 9.993024029940871 0.8036580927614523 464.7192724425523 0.0
3774.300731587835 940.8192983258336 10.077671300755872 0.801736626280384 467.87587687666405 0.0
3814.5436069708203 973.0459076661118 10.163391762695857 0.7998995147175769 471.0599151315838 0.0
3855.5619692442156 1005.8187083423468 10.250197665632951 0.7979615767743198 474.2716930347005 0.0
3897.419337822663 1039.1758322118385 10.338136069738697 0.7959936953796536 477.5110201023164 0.0
3940.020658836855 1073.045896908009 10.42704749427415 0.7941156773151228 480.77294680996494 0.0
3983.434377169904 1107.480195335182 10.517058402398538 0.7921625165502686 484.06176219100337 0.0
4027.708475829176 1142.5071542971975 10.608205817721377 0.7901596206402548 487.37742484726095 0.0
4072.83638829124 1178.120366265517 10.700475503065721 0.7882037783871976 490.71942709513365 0.0
4118.7547504058675 1214.268644574201 10.79373672853608 0.7862641294096182 494.0830324628434 0.0
4165.54348322464 1251.0109335851591 10.888130985217149 0.784247767768047 497.47289006040484 0.0
4213.250839814839 1288.3750753681059 10.983693923833716 0.7822015085378418 500.8888825459008 0.0
4261.854489088193 1326.3437508230409 11.080390084083836 0.78020306879991 504.3299917615031 0.0
4311.307216852225 1364.8772713733981 11.178113969355685 0.7782062698071428 507.7922253856572 0.0
4361.691050430435 1404.035322566087 11.277006744144364 0.776194565812478 511.2801267663313 0.0
4413.023437026163 1443.826933401147 11.37708015107282 0.7741239768744315 514.7936148893198 0.0
4465.325728022836 1484.2593522108946 11.478323116730714 0.772035998048608 518.3310928584808 0.0
4518.545459945122 1525.2918520912563 11.580641167463625 0.7699864742796514 521.8894715714698 0.0
4572.761615707388 1566.9814905976898 11.684169291157179 0.7679310556281944 525.4730848306887 0.0
4627.992919956417 1609.3378627210568 11.788920550708038 0.7658636583393896 529.0818842067226 0.0
4684.224242028941 1652.3445926976858 11.894844150851963 0.7637863177311459 532.7136335653959 0.0
4741.441998771433 1695.9866635568656 12.001893669044492 0.7617006107079156 536.3662857953279 0.0
4799.728462109951 1740.3219928964743 12.110201288956816 0.7596045328399583 540.0438741161018 0.0
4859.103775203874 1785.3607944421922 12.219781405686703 0.7574862041192123 543.7463790946406 0.0
4919.549382099703 1831.0824015296614 12.330568377669293 0.7553562786308472 547.4708712870953 0.0
4981.064111539129 1877.482029138885 12.442545092660753 0.7532360444277302 551.216467733508 0.0
5043.723134761194 1924.6121252300338 12.555831424380624 0.7511150739905634 554.9868210458568 0.0
5107.548038350828 1972.483535776023 12.670443038621329 0.7489863709811182 558.781937487146 0.0
5172.497869956485 2021.0602490180602 12.786283922995484 0.7468525400207451 562.5981454122898 0.0
5238.599206923184 2070.356973937598 12.903380050349678 0.744714142337072 566.4358348263322 0.0
5305.928449373982 2120.4252590538986 13.021844167810375 0.7425698383643269 570.2982070044372 0.0
5374.50877929012 2171.276636743787 13.141693235677216 0.7404197773110344 574.1852909518561 0.0
5444.283259158922 2222.86332706088 13.262805041814453 0.7382669389126857 578.0926279967849 0.0
5515.304314809067 2275.218640031416 13.385248780204574 0.736111117313099 582.021979385741 0.0
5587.643177021359 2328.3893126606135 13.50912398309716 0.7339512777663888 585.9760320290837 0.0
5661.32471673239 2382.3875979961235 13.634448896021592 0.7317764956287611 589.9548350790684 0.0
5736.283144567849 2437.1577550946613 13.761079736172166 0.7295906583464795 593.9531011119569 0.0
5812.600496187216 2492.754023103146 13.889133265313369 0.727411025867795 597.9740527294582 0.0
5890.335321715387 2549.213926047767 14.018689056629357 0.7252362379541726 602.019805726412 0.0
5969.514361298822 2606.550501955327 14.149766684087366 0.7230596346320404 606.0904271513187 0.0
6050.041444815294 2664.688044104981 14.282183844595203 0.720884727933182 610.1797613821134 0.0
6132.0340743585075 2723.7052930128184 14.416110780331776 0.7187093310282631 614.2925763096104 0.0
6215.548061202881 2783.6358834379917 14.551613679192172 0.7165333196339407 618.4303648993331 0.0
6300.612036579238 2844.4936468095084 14.68871340233937 0.7143445850408217 622.5932101621104 0.0
6387.11881021926 2906.193345146372 14.827202919838628 0.7121299132668852 626.7740504200112 0.0
6475.242973961499 2968.8499514748023 14.967323180244763 0.7099247495387253 630.9792782513232 0.0
6565.003582117804 3032.4745832164217 15.109100752441888 0.7077474372164687 635.2097160524316 0.0
6656.43135751995 3097.0819366956985 15.252557843604311 0.7055507250783108 639.4654611461091 0.0
