e[MeV/fm^3], P[MeV/fm^3], rho[fm^-3], v2[1], mu_q[MeV], mu_e[MeV]
70.21755168181654 0.006206087273093519 0.07407856508846018 0.017597877650005332 316.5185077347417 89.2771661002368
71.43578994790998 0.027644495228360377 0.07535555647246353 0.0175978776500052 316.5894798429086 89.8124074562691
72.67502861766434 0.04945246571785267 0.07665456106626496 0.017597877650005228 316.6616753923034 90.35687548400062
73.93562970314778 0.07163636938565421 0.07797595834102777 0.01759787765000538 316.7351154730202 90.91072923592193
75.21796145691394 0.09420268669514797 0.07932013430936638 0.01759787765000533 316.8098215387112 91.47413050632369
76.5223984795798 0.11715800982215896 0.0806874816381126 0.01759787765000522 316.8858154128541 92.04724387856187
77.84932182925448 0.14050904458066893 0.08207839976302188 0.017597877650005325 316.96311929512683 92.630236773136
79.19911913285509 0.16426261238173973 0.08349329500545777 0.017597877650005436 317.0417557678931 93.22327949659658
80.57218469934486 0.18842565222626206 0.08493258069109116 0.017597877650005332 317.12174780279906 93.82654529129692
81.96891963491473 0.21300522273190858 0.08639667727063695 0.017597877650005284 317.20311876748366 94.44021038599915
83.38973196016327 0.23800850419525207 0.0878860124426853 0.017597877650005242 317.2858924324053 95.06445404735784
84.83503672928572 0.26344280068923775 0.08940102127863886 0.01759787765000527 317.37009297778565 95.69945863228664
86.3052561513196 0.28931554219685157 0.0909421463498059 0.01759787765000538 317.45574500067295 96.34540964122833
87.80081971348744 0.3156342867816875 0.09250983785669148 0.017597877650005325 317.54287352212793 97.00249577234631
89.32216430665855 0.3424067227958098 0.09410455376051008 0.01759787765000531 317.63150399453286 97.67090897664707
90.86973435297011 0.3696406711256137 0.09572675991696154 0.017597877650005242 317.7216623090265 98.3508445140514
92.44398193566516 0.39734408747669764 0.0973769302123309 0.017597877650005228 317.8133748030682 99.04250101043964
94.04536693114535 0.4255250646977123 0.09905554670190979 0.01759787765000531 317.90666826813106 99.74608051566989
95.67435714332068 0.45419183514462985 0.10076309975082554 0.017892055534992374 318.00156995752883 100.46178856260559
97.33169327479138 0.4843410207312542 0.10250008817728433 0.018775745774211428 318.10048622561175 101.18570399772256
99.01814146064449 0.5170082040359527 0.10426701939828847 0.020025246310001077 318.2058447860128 101.91428658825437
100.73429318912723 0.5525181669555139 0.1060644095778678 0.02129999675038627 318.31828524079526 102.64750316311726
102.48063871606901 0.5907964457966746 0.10789278377786223 0.022549781036994038 318.43751805132047 103.38670836290729
104.25774423592242 0.6320103592916358 0.10975267611130558 0.023887708108000116 318.5638120290785 104.13237516689382
106.06623539667063 0.676492214395437 0.11164462989845152 0.025339806313660923 318.697770868173 104.88465247088972
107.90674784282342 0.7245234535359056 0.11356919782549418 0.026726883379044414 318.8398212612412 105.64215664334085
109.77980899298537 0.7757858510810522 0.11552694210601787 0.028008654354195556 318.9889635986241 106.39548846211913
111.68603200563659 0.8304189676497289 0.11751843464523576 0.02941848660514751 319.1453310518051 107.14305877628786
113.62612253642692 0.8889903796251314 0.1195442572070575 0.0310000273545607 319.31003653378224 107.89037199216354
115.60075117782822 0.9518318179215621 0.1216050015840337 0.03259969837934959 319.4836179784206 108.6399435927219
117.61049319554543 1.0189345897359714 0.12370126977023699 0.03419210470702347 319.6659546827271 109.3941654142798
119.65602415051524 1.0905481505064962 0.12583367413711752 0.03592218882239359 319.8573917239201 110.15411877028433
121.73815641876267 1.1672766767204164 0.12800283761239192 0.03778190969818496 320.0588603075681 110.92020174565145
123.85759205422588 1.2493614886182018 0.1302093938620144 0.0396255479711905 320.27062777688235 111.69348487044105
126.01496433860267 1.3368161240061027 0.13245398747528928 0.041461386350795104 320.4925793312381 112.47517112638602
128.2110155783424 1.429932568241939 0.13473727415316794 0.04346252473119688 320.7250671173629 113.26594974297757
130.4466887956552 1.52951487508801 0.1370599208997976 0.045590760196347446 320.969220213987 114.06610244230104
132.72270298041246 1.6357091714792171 0.13942260621736857 0.04767926014436641 321.22510082538804 114.87651716166351
135.03976205186157 1.748593799706529 0.14182602030432198 0.04977029748745049 321.49267975935425 115.69799950047124
137.3986835249372 1.8685229353243933 0.14427086525697244 0.05206400529136951 321.77234677231564 116.53110782929468
139.80057355445675 1.9965668028217445 0.14675785527460983 0.05448295484632937 322.0654823434704 117.37614392238619
142.24614757531495 2.1327305435734982 0.1492877168681315 0.05683638595368079 322.37191652081754 118.23384218287305
144.73619757503982 2.2771938463603174 0.15186118907227755 0.059208520968313694 322.69174413674494 119.10477732777403
147.27162660197732 2.430390920319256 0.15447902366151722 0.0618292055008095 323.0254080857181 119.98940983187808
149.85374556019306 2.5937403356179334 0.15714198536966398 0.06457197399617759 323.3745941649684 120.88804723823948
152.4832372283129 2.7670401807274834 0.15985085211327107 0.06721882453614525 323.7388555425644 121.80124809303793
155.16100474728017 2.9506159576823916 0.1626064152188807 0.06990575565196155 324.1184454344821 122.72942464238325
157.8880490867394 3.1450019316856195 0.16540947965419006 0.07289593855263288 324.5138717435153 123.67293532678868
160.66593902373984 3.3520690822739376 0.16826086426320178 0.07600220080988451 324.92718571735776 124.63202719571277
163.4952840125817 3.5713158744339593 0.17116140200542868 0.07897532922519734 325.3576004812541 125.6070903482084
166.37712853614147 3.8032695276021222 0.17411194019922174 0.08202037368123771 325.8055622707938 126.59840218489457
169.31260061973967 4.048620249866702 0.17711334076929286 0.08542133552471287 326.2716886567447 127.60620334892384
172.303551331823 4.309718566586897 0.18016648049850292 0.0889270452590527 326.7583492276527 128.63058410314463
175.35050383107742 4.585737524453315 0.1832722512839939 0.09226446929582366 327.26444376458807 129.67181814230588
178.45466868853612 4.877441713994387 0.18643156039773165 0.09572802473872655 327.7906096931573 130.73004905217363
181.61738960046912 5.18586172672753 0.18964533075154347 0.09956214286511778 328.3377308078966 131.80536363429957
184.84067158507494 5.5134958934314255 0.19291450116672415 0.10348029397253222 328.90808973361146 132.89762523650757
188.12508868773136 5.859506730761704 0.19624002664828616 0.10723125726635341 329.50063467169656 134.00704679883177
191.47199658539387 6.224818666062787 0.19962287866394354 0.11114950466071183 330.116072530961 135.1336328978941
194.88301649425165 6.610906017540677 0.2030640454278977 0.11544544815415358 330.7555888744374 136.2772622126371
198.3602890613904 7.020342674256472 0.2065645321895225 0.11979382346787826 331.42129567013734 137.43754067535426
201.9044613376726 7.452308308070558 0.2101253615270204 0.12397650239191993 332.11220306471756 138.61467605675114
205.5170562570145 7.907903230714149 0.21374757364614289 0.1283699626450635 332.8290718474655 139.80852765902867
209.2000509218192 8.389163756231573 0.21743222668406043 0.1331367755092301 333.57341318817043 141.01869117551004
212.95568685700158 8.89862029273525 0.22118039701847075 0.1379109881763032 334.34705688852574 142.2445530860434
216.7847142491265 9.435507109353031 0.224993179582034 0.1425209986125906 335.149090910276 143.4863497980139
220.6888478651131 10.001107919216421 0.22887168818223044 0.1473848211915132 335.9803024130194 144.74379875149575
224.67051841244387 10.598148441577159 0.23281705582673115 0.15260238957125072 336.84253077264475 146.0161250814302
228.73201076449018 11.228941923303356 0.23683043505437643 0.1577674592771845 337.73719306437926 147.30260528428684
232.87421847820065 11.892825884399452 0.2409129982718618 0.16276966708385543 338.6634726746745 148.60351662363965
237.09907459677976 12.591262929879372 0.2450659380962259 0.1680647442175771 339.6221443059857 149.91845083271977
241.4095830266287 13.327795359770137 0.24929046770324403 0.17367604335428166 340.61534675451054 151.2461733723472
245.80798450797525 14.104290408314728 0.25358782118182577 0.17916063314688135 341.6439533067965 152.5860269646372
250.29536865638684 14.920249387540146 0.2579592538945237 0.18448376658109078 342.70726027181 153.9383214680799
254.87391430339358 15.777295306389933 0.26240604284425445 0.19013115054428797 343.8059831368225 155.30255316107613
259.54734193097937 16.679902122692877 0.2669294870473437 0.19603884001981875 344.9424917462097 156.67695034502995
264.3177234138911 17.62921742422393 0.2715309079130002 0.20173455319505607 346.11701155796936 158.06114921462316
269.1864120746621 18.624978432827973 0.2762116496293318 0.20727097595137622 347.328966229596 159.45546560193614
274.15586021544175 19.66893704821644 0.28097307955601647 0.2131521958171756 348.57896372915343 160.8593430130801
279.2306731431928 20.76658998854091 0.28581658862374093 0.21922189252154145 349.86949367684684 162.27041922778363
284.412585417037 21.918069468750467 0.29074359174052566 0.2249894143101847 351.2000887836266 163.68887481305947
289.7032992122702 23.123430865940225 0.29575552820505524 0.2306016920899494 352.5703075794808 165.1149897852477
295.1055673860831 24.38451504681977 0.300853862127132 0.23656661428271297 353.98060905644974 166.5482047162215
300.6250734626658 25.70790002720107 0.3060400828553784 0.24263779812409947 355.4334521442952 167.985546141962
306.2629978571605 27.092417065261266 0.3113157054123131 0.24831998114039466 356.9277197298895 169.42797804232237
312.0214966673664 28.538529352055203 0.3166822709369256 0.2538541104542591 358.4631014669581 170.8756920374787
317.9036494111742 30.048126085066315 0.3221413471348811 0.2597359108053192 360.03988091456415 172.3281747479247
323.9164360611114 31.628890065835524 0.32769452873648597 0.2656390932017807 361.66030746350987 173.78185544558517
330.06021547034334 33.278110584552124 0.3333434379625472 0.2710787578055842 363.3227610243933 175.23867305073648
336.3377248306841 34.996751726455315 0.3390897249982634 0.2764763451022638 365.0270429856405 224.78591171376277
345.2246911590863 37.4892373020477 0.3471862737445584 0.0024406351906716764 366.7732551876847 183.61474040931395
824.4723984182406 39.979238757911126 1.8282306777673438 0.007950656903781494 368.5632457970251 141.74124199319886
1334.993286019907 45.536485930611015 3.4384920148730655 0.013824853745120734 370.39513942729127 99.47209241974362
1827.6307827969315 53.744464915064654 5.049385853547334 0.43091125315158907 372.26881070045994 55.49558558625157
1849.3533319340197 63.50174200828178 5.111898175504764 0.588513614901347 374.18425749083553 17.88419241018411
1864.070646909872 73.55242864677699 5.1512725769118495 0.6874885718957038 376.1425479489815 0.0
1879.0114061823888 83.89338815978178 5.190887084489201 0.6912536172752173 378.1420680020603 0.0
1894.417290749428 94.52882728151285 5.231516464952244 0.6894611933337398 380.18264288681297 0.0
1910.2979476200414 105.46338822036041 5.273171496603177 0.6876483038013461 382.2641765278808 0.0
1926.665259446317 116.703201246422 5.315868560555848 0.6858169603721755 384.38684656688184 0.0
1943.5217327219507 128.24792367084447 5.359599451225057 0.6839699620091588 386.54960838431725 0.0
1960.875728187209 140.10121170539665 5.4043712053476405 0.682109216325784 388.75217980057613 0.0
1978.7356416623552 152.26671091886422 5.450190814946051 0.6802046709974081 390.99427615507426 0.0
1997.1155250565007 164.7506804695982 5.497070463593252 0.6781847715907823 393.27543963785325 0.0
2016.0388408697295 177.5640316570387 5.545033454436127 0.6761736441768598 395.59516773161965 0.0
2035.4932247684349 190.69965052703571 5.594059873985164 0.6742520981880347 397.95311125729603 0.0
2055.48481335101 204.15952781567046 5.6441505921738315 0.6723260249584717 400.3486982341418 0.0
2076.0178255040705 217.9443505201809 5.695301694550917 0.6702419186454716 402.78113502043635 0.0
2097.142597993532 232.07899186334572 5.7475741420932005 0.6681229677918576 405.2503908250171 0.0
2118.8350780745227 246.55041308269287 5.80093319636248 0.666153846640988 407.7560864453435 0.0
2141.093680247526 261.3560696697 5.855365807233334 0.664085611933773 410.2972643916196 0.0
2163.954994631968 276.5125810042232 5.910907027268965 0.6619308632282657 412.8731075256692 0.0
2187.425232977647 292.02306413173227 5.967566890698758 0.6598891399105655 415.48395412590855 0.0
2211.4908768429577 307.8798256661579 6.02532375110339 0.6577579819917885 418.12942481666244 0.0
2236.2024213090035 324.1051589998316 6.084222145506187 0.6555782771031833 420.80808286670407 0.0
2261.5293869619804 340.68272613192767 6.144218006380456 0.6534991071952483 423.519388423576 0.0
2287.500420970854 357.6269952843806 6.205350946206712 0.65131236465729 426.263926491692 0.0
2314.1506370385105 374.95405960953923 6.267657831350071 0.649179056574714 429.04133904117657 0.0
2341.4310380971106 392.63636381252564 6.3310566136062585 0.6469892060716527 431.84962364736657 0.0
2369.422622227325 410.71273777306544 6.395642528057066 0.6448133397186169 434.68879187402194 0.0
2398.07146142282 429.15758022163163 6.461357564303113 0.6426252700137667 437.55954505588323 0.0
2427.475158890734 448.01692951740836 6.528312122184672 0.6404212170756933 440.4615602408136 0.0
2457.5371693382986 467.23938639453695 6.596361061537706 0.6382325468697054 443.39219174670734 0.0
2488.366924477797 486.87817888271235 6.665640278699774 0.6360054364689995 446.35224304333093 0.0
2519.912099905884 506.90873056581506 6.736094205725159 0.633824051577033 449.3424024244641 0.0
2552.249158415314 527.3664216836659 6.807807101340464 0.631581624236695 452.3623894048231 0.0
2585.317810993983 548.2162108589489 6.880668777161561 0.6294088261423045 455.4088468583903 0.0
2619.1692280931934 569.4847755241389 6.954757015081977 0.6271613798690172 458.48357591050296 0.0
2653.8451531968763 591.1920267250416 7.03012395552114 0.6249684167796783 461.5871295346198 0.0
2689.3179618864624 613.3238499513004 7.1067330110210785 0.6227462437084093 464.7192724425523 0.0
2725.619226713257 635.8871114401203 7.184570555387482 0.6204834104188439 467.87587687666405 0.0
2762.758739499825 658.8908155042423 7.263679468397769 0.6183361960152496 471.0599151315838 0.0
2800.7482449510135 682.3402972604665 7.344074428430455 0.6160887883217985 474.2716930347005 0.0
2839.6692267337403 706.2722917796334 7.425842685653785 0.6138220318096703 477.5110201023164 0.0
2879.4254604958396 730.6323079266733 7.508815037940008 0.6116755233889091 480.77294680996494 0.0
2920.086430596743 755.4595890432876 7.593117426472912 0.6094600877835692 484.06176219100337 0.0
2961.7143709565366 780.78189857031 7.678816042417107 0.6072045132050317 487.37742484726095 0.0
3004.3052871377513 806.5955230103726 7.765897269948369 0.6050185067452496 490.71942709513365 0.0
3047.801502011905 832.8642584486386 7.854237764080267 0.6028668252810014 494.0830324628434 0.0
3092.285853940073 859.6339599631092 7.943981813562347 0.6006472252265276 497.47289006040484 0.0
3137.8222653797457 886.9325728934014 8.035194906997408 0.598410968773722 500.8888825459008 0.0
3184.3891182761918 914.7473151583858 8.127837561633934 0.5962437704862129 504.3299917615031 0.0
3231.9462162504815 943.0512626419583 8.221814085126582 0.594094583491497 507.7922253856572 0.0
3280.580039591524 971.8915063781578 8.31727058149143 0.591945471278045 511.2801267663313 0.0
3330.3155669585535 1001.2781867223619 8.414229579837937 0.5897505112996182 514.7936148893198 0.0
3381.190190935519 1031.2238404723437 8.51270766231776 0.5875533594837936 518.3310928584808 0.0
3433.1531880240186 1061.698437059242 8.61260814751213 0.5854133316306225 521.8894715714698 0.0
3486.288570552998 1092.7473339320143 8.714070989927029 0.5832833126872785 525.4730848306887 0.0
3540.623317129599 1124.3814172836717 8.817120309224082 0.5811569657267981 529.0818842067226 0.0
3596.1511140921584 1156.5921827860136 8.921717126846534 0.5790364555216208 532.7136335653959 0.0
3652.8668614115013 1189.372006746292 9.027825898391832 0.5769234326904034 536.3662857953279 0.0
3710.860792144637 1222.7681864994072 9.135588430732259 0.5748159005545759 540.0438741161018 0.0
3770.1621231979248 1256.7924367516573 9.245030536218158 0.572702193875811 543.7463790946406 0.0
3830.7641598141417 1291.4343476014117 9.356102741902344 0.5705928859998064 547.4708712870953 0.0
3892.6727318805074 1326.6933806256125 9.468794847734967 0.5685090835545576 551.216467733508 0.0
3955.9711308703572 1362.6127672458394 9.58323556772361 0.5664402993767208 554.9868210458568 0.0
4020.6908465089355 1399.2050651204806 9.699452373074312 0.5643795653767629 558.781937487146 0.0
4086.799864652253 1436.4469752911148 9.817359038935287 0.5623293665501521 562.5981454122898 0.0
4154.334520968103 1474.3539128200373 9.936992528423238 0.5602901811391696 566.4358348263322 0.0
4223.3826236701125 1512.9698752321883 10.058479197488003 0.5582606727814259 570.2982070044372 0.0
4293.978196866989 1552.3083522990048 10.181848284936832 0.5562409284829766 574.1852909518561 0.0
4366.07262001193 1592.3368731615478 10.306985179023 0.5542336664349676 578.0926279967849 0.0
4439.7298522531055 1633.0856991501398 10.43397202424176 0.5522385946715378 582.021979385741 0.0
4515.0341381494045 1674.5958958216697 10.56292351240263 0.5502546608470169 585.9760320290837 0.0
4592.022195548647 1716.881939914116 10.693870692221125 0.5482719285611228 589.9548350790684 0.0
4670.638801986421 1759.9063304720219 10.826679667351556 0.546293883205351 593.9531011119569 0.0
4750.980239771334 1803.7163482545996 10.961483387789563 0.5443360789669889 597.9740527294582 0.0
4833.117360134996 1848.3457788564333 11.098374277071569 0.5423971056833938 602.019805726412 0.0
4917.089884785142 1893.810191737818 11.23738532086022 0.540470781664343 606.0904271513187 0.0
5002.806718616653 1940.0545728607824 11.378334355100685 0.5385600658689054 610.1797613821134 0.0
5090.403879152107 1987.1466078026215 11.521413659214035 0.5366628746506468 614.2925763096104 0.0
5179.952736195299 2035.1185741151135 11.666706144229769 0.5347789549874999 618.4303648993331 0.0
5271.496051820246 2083.9871467844387 11.814246703772879 0.5328978718214064 622.5932101621104 0.0
5364.933829817547 2133.6910367379433 11.963830073815485 0.5310084347533728 626.7740504200112 0.0
5460.4718086319335 2184.330883492085 12.115736430409132 0.5291405961328781 630.9792782513232 0.0
5558.135012986815 2235.91772025507 12.26999401245769 0.5273098281902762 635.2097160524316 0.0
5657.969590387276 2288.469445186996 12.426639762527268 0.5254661999212615 639.4654611461091 0.0
