e[MeV/fm^3], P[MeV/fm^3], rho[fm^-3], v2[1], mu_q[MeV], mu_e[MeV]
70.21755168181654 0.006206087273093519 0.07407856508846018 0.017597877650005332 316.5185077347417 89.2771661002368
71.43578994790998 0.027644495228360377 0.07535555647246353 0.0175978776500052 316.5894798429086 89.8124074562691
72.67502861766434 0.04945246571785267 0.07665456106626496 0.017597877650005228 316.6616753923034 90.35687548400062
73.93562970314778 0.07163636938565421 0.07797595834102777 0.01759787765000538 316.7351154730202 90.91072923592193
75.21796145691394 0.09420268669514797 0.07932013430936638 0.01759787765000533 316.8098215387112 91.47413050632369
76.5223984795798 0.11715800982215896 0.0806874816381126 0.01759787765000522 316.8858154128541 92.04724387856187
77.84932182925448 0.14050904458066893 0.08207839976302188 0.017597877650005325 316.96311929512683 92.630236773136
79.19911913285509 0.16426261238173973 0.08349329500545777 0.017597877650005436 317.0417557678931 93.22327949659658
80.57218469934486 0.18842565222626206 0.08493258069109116 0.017597877650005332 317.12174780279906 93.82654529129692
81.96891963491473 0.21300522273190858 0.08639667727063695 0.017597877650005284 317.20311876748366 94.44021038599915
83.38973196016327 0.23800850419525207 0.0878860124426853 0.017597877650005242 317.2858924324053 95.06445404735784
84.83503672928572 0.26344280068923775 0.08940102127863886 0.01759787765000527 317.37009297778565 95.69945863228664
86.3052561513196 0.28931554219685157 0.0909421463498059 0.01759787765000538 317.45574500067295 96.34540964122833
87.80081971348744 0.3156342867816875 0.09250983785669148 0.017597877650005325 317.54287352212793 97.00249577234631
89.32216430665855 0.3424067227958098 0.09410455376051008 0.01759787765000531 317.63150399453286 97.67090897664707
90.86973435297011 0.3696406711256137 0.09572675991696154 0.017597877650005242 317.7216623090265 98.3508445140514
92.44398193566516 0.39734408747669764 0.0973769302123309 0.017597877650005228 317.8133748030682 99.04250101043964
94.04536693114535 0.4255250646977123 0.09905554670190979 0.01759787765000531 317.90666826813106 99.74608051566989
95.67435714332068 0.45419183514462985 0.10076309975082554 0.017892055534992374 318.00156995752883 100.46178856260559
97.33169327479138 0.4843410207312542 0.10250008817728433 0.018775745774211428 318.10048622561175 101.18570399772256
99.01814146064449 0.5170082040359527 0.10426701939828847 0.020025246310001077 318.2058447860128 101.91428658825437
100.73429318912723 0.5525181669555139 0.1060644095778678 0.02129999675038627 318.31828524079526 102.64750316311726
102.48063871606901 0.5907964457966746 0.10789278377786223 0.022549781036994038 318.43751805132047 103.38670836290729
104.25774423592242 0.6320103592916358 0.10975267611130558 0.023887708108000116 318.5638120290785 104.13237516689382
106.06623539667063 0.676492214395437 0.11164462989845152 0.025339806313660923 318.697770868173 104.88465247088972
107.90674784282342 0.7245234535359056 0.11356919782549418 0.026726883379044414 318.8398212612412 105.64215664334085
109.77980899298537 0.7757858510810522 0.11552694210601787 0.028008654354195556 318.9889635986241 106.39548846211913
111.68603200563659 0.8304189676497289 0.11751843464523576 0.02941848660514751 319.1453310518051 107.14305877628786
113.62612253642692 0.8889903796251314 0.1195442572070575 0.0310000273545607 319.31003653378224 107.89037199216354
115.60075117782822 0.9518318179215621 0.1216050015840337 0.03259969837934959 319.4836179784206 108.6399435927219
117.61049319554543 1.0189345897359714 0.12370126977023699 0.03419210470702347 319.6659546827271 109.3941654142798
119.65602415051524 1.0905481505064962 0.12583367413711752 0.03592218882239359 319.8573917239201 110.15411877028433
121.73815641876267 1.1672766767204164 0.12800283761239192 0.03778190969818496 320.0588603075681 110.92020174565145
123.85759205422588 1.2493614886182018 0.1302093938620144 0.0396255479711905 320.27062777688235 111.69348487044105
126.01496433860267 1.3368161240061027 0.13245398747528928 0.041461386350795104 320.4925793312381 112.47517112638602
128.2110155783424 1.429932568241939 0.13473727415316794 0.04346252473119688 320.7250671173629 113.26594974297757
130.4466887956552 1.52951487508801 0.1370599208997976 0.045590760196347446 320.969220213987 114.06610244230104
132.72270298041246 1.6357091714792171 0.13942260621736857 0.04767926014436641 321.22510082538804 114.87651716166351
135.03976205186157 1.748593799706529 0.14182602030432198 0.04977029748745049 321.49267975935425 115.69799950047124
137.3986835249372 1.8685229353243933 0.14427086525697244 0.05206400529136951 321.77234677231564 116.53110782929468
139.80057355445675 1.9965668028217445 0.14675785527460983 0.05448295484632937 322.0654823434704 117.37614392238619
142.24614757531495 2.1327305435734982 0.1492877168681315 0.05683638595368079 322.37191652081754 118.23384218287305
144.73619757503982 2.2771938463603174 0.15186118907227755 0.059208520968313694 322.69174413674494 119.10477732777403
147.27162660197732 2.430390920319256 0.15447902366151722 0.0618292055008095 323.0254080857181 119.98940983187808
149.85374556019306 2.5937403356179334 0.15714198536966398 0.06457197399617759 323.3745941649684 120.88804723823948
152.4832372283129 2.7670401807274834 0.15985085211327107 0.06721882453614525 323.7388555425644 121.80124809303793
155.16100474728017 2.9506159576823916 0.1626064152188807 0.06990575565196155 324.1184454344821 122.72942464238325
157.8880490867394 3.1450019316856195 0.16540947965419006 0.07289593855263288 324.5138717435153 123.67293532678868
160.66593902373984 3.3520690822739376 0.16826086426320178 0.07600220080988451 324.92718571735776 124.63202719571277
163.4952840125817 3.5713158744339593 0.17116140200542868 0.07897532922519734 325.3576004812541 125.6070903482084
166.37712853614147 3.8032695276021222 0.17411194019922174 0.08202037368123771 325.8055622707938 126.59840218489457
169.31260061973967 4.048620249866702 0.17711334076929286 0.08542133552471287 326.2716886567447 127.60620334892384
172.303551331823 4.309718566586897 0.18016648049850292 0.0889270452590527 326.7583492276527 128.63058410314463
175.35050383107742 4.585737524453315 0.1832722512839939 0.09226446929582366 327.26444376458807 129.67181814230588
178.45466868853612 4.877441713994387 0.18643156039773165 0.09572802473872655 327.7906096931573 130.73004905217363
181.61738960046912 5.18586172672753 0.18964533075154347 0.09956214286511778 328.3377308078966 131.80536363429957
184.84067158507494 5.5134958934314255 0.19291450116672415 0.10348029397253222 328.90808973361146 132.89762523650757
188.12508868773136 5.859506730761704 0.19624002664828616 0.10723125726635341 329.50063467169656 134.00704679883177
191.47199658539387 6.224818666062787 0.19962287866394354 0.11114950466071183 330.116072530961 135.1336328978941
194.88301649425165 6.610906017540677 0.2030640454278977 0.11544544815415358 330.7555888744374 136.2772622126371
198.3602890613904 7.020342674256472 0.2065645321895225 0.11979382346787826 331.42129567013734 137.43754067535426
201.9044613376726 7.452308308070558 0.2101253615270204 0.12397650239191993 332.11220306471756 138.61467605675114
205.5170562570145 7.907903230714149 0.21374757364614289 0.1283699626450635 332.8290718474655 139.80852765902867
209.2000509218192 8.389163756231573 0.21743222668406043 0.1331367755092301 333.57341318817043 141.01869117551004
212.95568685700158 8.89862029273525 0.22118039701847075 0.1379109881763032 334.34705688852574 142.2445530860434
216.7847142491265 9.435507109353031 0.224993179582034 0.1425209986125906 335.149090910276 143.4863497980139
220.6888478651131 10.001107919216421 0.22887168818223044 0.1473848211915132 335.9803024130194 144.74379875149575
224.67051841244387 10.598148441577159 0.23281705582673115 0.15260238957125072 336.84253077264475 146.0161250814302
228.73201076449018 11.228941923303356 0.23683043505437643 0.1577674592771845 337.73719306437926 147.30260528428684
232.87421847820065 11.892825884399452 0.2409129982718618 0.16276966708385543 338.6634726746745 148.60351662363965
237.09907459677976 12.591262929879372 0.2450659380962259 0.1680647442175771 339.6221443059857 149.91845083271977
241.4095830266287 13.327795359770137 0.24929046770324403 0.17367604335428166 340.61534675451054 151.2461733723472
245.80798450797525 14.104290408314728 0.25358782118182577 0.17916063314688135 341.6439533067965 152.5860269646372
250.29536865638684 14.920249387540146 0.2579592538945237 0.18448376658109078 342.70726027181 153.9383214680799
254.87391430339358 15.777295306389933 0.26240604284425445 0.19013115054428797 343.8059831368225 155.30255316107613
259.54734193097937 16.679902122692877 0.2669294870473437 0.19603884001981875 344.9424917462097 156.67695034502995
264.3177234138911 17.62921742422393 0.2715309079130002 0.20173455319505607 346.11701155796936 158.06114921462316
269.1864120746621 18.624978432827973 0.2762116496293318 0.20727097595137622 347.328966229596 159.45546560193614
274.15586021544175 19.66893704821644 0.28097307955601647 0.2131521958171756 348.57896372915343 160.8593430130801
279.2306731431928 20.76658998854091 0.28581658862374093 0.21922189252154145 349.86949367684684 162.27041922778363
284.412585417037 21.918069468750467 0.29074359174052566 0.2249894143101847 351.2000887836266 163.68887481305947
289.7032992122702 23.123430865940225 0.29575552820505524 0.2306016920899494 352.5703075794808 165.1149897852477
295.1055673860831 24.38451504681977 0.300853862127132 0.23656661428271297 353.98060905644974 166.5482047162215
300.6250734626658 25.70790002720107 0.3060400828553784 0.24263779812409947 355.4334521442952 167.985546141962
306.2629978571605 27.092417065261266 0.3113157054123131 0.24831998114039466 356.9277197298895 169.42797804232237
312.0214966673664 28.538529352055203 0.3166822709369256 0.2538541104542591 358.4631014669581 170.8756920374787
317.9036494111742 30.048126085066315 0.3221413471348811 0.2597359108053192 360.03988091456415 172.3281747479247
323.9164360611114 31.628890065835524 0.32769452873648597 0.2656390932017807 361.66030746350987 173.78185544558517
330.06021547034334 33.278110584552124 0.3333434379625472 0.2710787578055842 363.3227610243933 175.23867305073648
336.3377248306841 34.996751726455315 0.3390897249982634 0.27638164452897485 365.0270429856405 176.69867300893014
342.75239563416363 36.78671837750218 0.3449350684752844 0.2820159576097043 366.7732551876847 178.16142771359964
349.3127469329602 38.65679115669434 0.35088117596208035 0.28759239956345484 368.5632457970251 179.62281308437977
356.0179982424811 40.60254779373834 0.3569297844627652 0.2926507180164095 370.39513942729127 181.08586093941702
362.87161894726887 42.62554485678177 0.3630826609245175 0.2976058496429581 372.26881070045994 182.55041400308298
369.8776838050342 44.72802159039085 0.3693416027537498 0.3028324596598386 374.18425749083553 184.01597196044224
377.04571989459646 46.91882012835673 0.3757084383411748 0.30793255850782497 376.1425479489815 185.47847044374714
384.37423920137996 49.19272886637786 0.3821850275959231 0.3125215544923945 378.1420680020603 186.9415202760738
391.8673537720589 51.551645656583794 0.38877326248886857 0.31704011341831206 380.18264288681297 188.40489537630313
399.53022857376277 53.998550771733285 0.3954750676053199 0.32173794710659864 382.2641765278808 189.86781153455445
407.3724291860139 56.54109433027862 0.4022924007072386 0.3262560177033471 384.38684656688184 191.32699317636136
415.3926093188036 59.174483419942426 0.40922725330514964 0.33032373141907057 386.54960838431725 192.78593445174437
423.5953061809909 61.90062597545923 0.41628165123991057 0.3343330679737635 388.75217980057613 194.2445223409546
431.9870027817532 64.72329723895402 0.4234576552745099 0.33844367777413575 390.99427615507426 195.70167441052624
440.5770251421459 67.64881573370899 0.43075736169606577 0.34234063934627335 393.27543963785325 197.1549973649513
449.3643086509324 70.67296114055506 0.4381829029282034 0.34585294088734964 395.59516773161965 198.60775365438798
458.3538473549931 73.79767867736162 0.4457364481539887 0.3493367990255738 397.95311125729603 200.05992813734576
463.01232489603007 75.43068143276889 0.4496300079389816 0.18441266463611594 400.3486982341418 198.99887898480065
489.0538709427724 80.41691671301074 0.5336986202949799 0.19853197861140703 402.78113502043635 195.3683851438984
506.4877954307708 83.96050443168323 0.5889244117159425 0.20745689965082015 405.2503908250171 191.79172625839794
523.9533871897743 87.65732831858408 0.643515372105014 0.21560193278839535 407.7560864453435 188.25193460183448
541.4820159535822 91.50582347466363 0.6976097690004214 0.2237233694760632 410.2972643916196 184.74491777640043
559.0881912198171 95.51845300303681 0.7511971598172564 0.23169018308698552 412.8731075256692 181.2768770140415
576.8198731727356 99.69421025462759 0.8044710760278255 0.23877101807209034 415.48395412590855 177.8400449505069
594.7169331947433 104.02665196078307 0.857619381893237 0.24565125635190554 418.12942481666244 174.4254951114272
612.7983064469587 108.53368245532643 0.9106089886138424 0.25219972821076153 420.80808286670407 171.04237421838266
631.0992968578855 113.2035716122983 0.9636372712560675 0.257973311871706 423.519388423576 167.6793312185879
649.6566168116794 118.04358934049702 1.016804289373655 0.2635816930654493 426.263926491692 164.33407758953638
668.5043350847327 123.06447468138555 1.0701770570636178 0.2686372405230957 429.04133904117657 161.0076430562492
687.6499315013173 128.25135661673116 1.123859546650386 0.2733802792251745 431.84962364736657 157.69251103985366
707.1440921957171 133.6295545949493 1.1779013683177428 0.27773225788894695 434.68879187402194 154.39456574321673
726.9930306991271 139.1795251587068 1.2324382364610509 0.2817083542913812 437.55954505588323 151.1006318504465
747.2595616356316 144.93218804429665 1.2875334310931537 0.2854029483826759 440.4615602408136 147.8177914990509
767.9119878997157 150.85912583975954 1.343217040146359 0.28872904291689805 443.39219174670734 144.53772839981661
789.0275542703529 156.99345411215572 1.3995993734566083 0.29184478048113016 446.35224304333093 141.26477449737652
810.594882409967 163.31712277522024 1.4567417230342201 0.29461495171241303 449.3424024244641 137.9894541906666
832.674967834376 169.85409689328088 1.514740693074319 0.2972297866911653 452.3623894048231 134.7145602627707
855.2429400625117 176.5890119861821 1.5735767437689785 0.29954043777076755 455.4088468583903 131.4386587886595
878.3454540821355 183.53545769749329 1.6333578192023996 0.30172839908554794 458.48357591050296 128.15885947222787
902.0245310226148 190.705571474833 1.6941777714136579 0.30368744528891956 461.5871295346198 124.87337461091931
926.2709269218618 198.09083677056844 1.7560481545644884 0.3055040859814593 464.7192724425523 121.57874730248295
951.1210382072298 205.70586966156537 1.8190090332431623 0.3072099065879721 467.87587687666405 118.2800686197885
976.5895908340538 213.55019471887897 1.8831259225400463 0.3087047840295387 471.0599151315838 114.97082451415899
1002.692530090565 221.62714072624593 1.9484345314047458 0.31016284782355497 474.2716930347005 111.64904124295556
1029.5011366014837 229.96244345020386 2.0150356157317626 0.31157000478669694 477.5110201023164 108.31520756519022
1056.9437537662345 238.53103011073816 2.082677281838395 0.3127879125380737 480.77294680996494 104.97498740992911
1085.0784743913794 247.34713581958277 2.1515208849141327 0.3138146096233241 484.06176219100337 101.63152260183877
1113.989806629216 256.43364142961263 2.22204244051641 0.3147081253963542 487.37742484726095 98.27243037730939
1143.6809696205628 265.7904801887414 2.294258415673584 0.3155248723140902 490.71942709513365 94.89643925747725
1174.11667964914 275.405747402872 2.3680884880160993 0.3162888869153253 494.0830324628434 91.50706013163595
1205.3629780087194 285.30041900355224 2.443691943096095 0.31704092855516564 497.47289006040484 88.0987179590454
1237.480899305735 295.4954593789787 2.5212041677594472 0.31776841444013204 500.8888825459008 84.67101774559534
1270.4575169022307 305.9860045790075 2.6006027500849083 0.3184489467726124 504.3299917615031 81.2237707938652
1304.2701310364578 316.76497563537254 2.68183546194411 0.31910531376227436 507.7922253856572 77.76013437271583
1338.9876471007024 327.8549198258761 2.765067989066564 0.3197474160452245 511.2801267663313 74.27485293389269
1374.6354830381483 339.2647066732451 2.8503615560840245 0.32039233863775163 514.7936148893198 70.76734226988896
1411.2544563981187 351.00928734435945 2.9378080681439154 0.32103118615214044 518.3310928584808 67.23864956755897
1448.8090853171686 363.07732853103084 3.027332294529916 0.3216500766782957 521.8894715714698 63.69111862255097
1487.3658958988844 375.4911546916329 3.119097763704571 0.3222657962300177 525.4730848306887 60.1198652610181
1526.9513779498584 388.26055012731564 3.213173357140276 0.3228826339354871 529.0818842067226 56.52442348658598
1567.5675979172408 401.3875281946324 3.309573286722993 0.3235019088560174 532.7136335653959 52.906531292476565
1609.217146416671 414.8743246319872 3.4083183736170772 0.3241243706460937 536.3662857953279 49.267758579097645
1651.9728524933967 428.74601914987045 3.5096041312378463 0.32475073766286844 540.0438741161018 45.60363044594607
1695.8633585368477 443.0134587552755 3.613535121608937 0.3253827297456464 543.7463790946406 41.913705660174124
1740.8934137170922 457.6799585682539 3.7201854522027986 0.32601169804551144 547.4708712870953 38.2003935374432
1787.074785602347 472.75016695643416 3.829694056703776 0.3266182984250099 551.216467733508 34.46401970031282
1834.4806055314896 488.247971812536 3.942436960789336 0.3271764039440539 554.9868210458568 30.70023877315029
1883.15411786139 504.18572188682737 4.058922028185766 0.32761827453484393 558.781937487146 26.907996709786275
1933.1082395860203 520.5606446344416 4.180067444266747 0.32775792957875627 562.5981454122898 23.089190997934026
1984.4556574281305 537.3879880596726 4.308356538038379 0.3270119102948579 566.4358348263322 19.239923115170292
2037.5118125305066 554.6994120433683 4.451232127046843 0.32359242305992186 570.2982070044372 15.348589619179387
2093.0835585718196 572.5252861529725 4.632269043999034 0.3301082276587417 574.1852909518561 11.389440200347796
2147.1017835046805 590.8473613119586 4.736148010292675 0.3403518853149583 578.0926279967849 7.386084505769814
2202.134929645161 609.6435203973368 4.831032648450768 0.3414887289439221 582.021979385741 3.401156116512838
2258.639615128837 628.9361132525239 4.927792325179006 0.34137978938771685 585.9760320290837 0.10764909080389562
2316.652905161604 648.7374785232145 5.026465809100619 0.34127105616751585 589.9548350790684 0.0
2376.1447655118204 669.0370595580218 5.126966920276854 0.34116342966762225 593.9531011119569 0.0
2437.1967706700266 689.8624705791391 5.229405193335597 0.3410578295023292 597.9740527294582 0.0
2499.8705703060314 711.2345445976938 5.333858196916052 0.34095414552045344 602.019805726412 0.0
2564.206157138258 733.166676426171 5.440361489211628 0.34085201065894566 606.0904271513187 0.0
2630.142906741346 755.6379702497863 5.548784904503152 0.3407515521940949 610.1797613821134 0.0
2697.7946217960734 778.6869821684038 5.6592856285313475 0.34065263101615173 614.2925763096104 0.0
2767.22622957694 802.3355901301509 5.771937882161078 0.34055520626558433 618.4303648993331 0.0
2838.480922751713 826.5982581733283 5.886779142056141 0.34045872235189467 622.5932101621104 0.0
2911.4936015189755 851.4525061075726 6.003664172417492 0.340362596587668 626.7740504200112 0.0
2986.4392050749834 876.957537546456 6.1228283639557075 0.34026831966661053 630.9792782513232 0.0
3063.340958035411 903.1211702615791 6.244293402351965 0.34017665115419327 635.2097160524316 0.0
3142.245628787961 929.9590628400088 6.368098856884186 0.3400845380115243 639.4654611461091 0.0
