e[MeV/fm^3], P[MeV/fm^3], rho[fm^-3], v2[1], mu_q[MeV], mu_e[MeV]
70.21755168181654 0.006206087273093519 0.07407856508846018 0.017597877650005332 316.5185077347417 89.2771661002368
71.43578994790998 0.027644495228360377 0.07535555647246353 0.0175978776500052 316.5894798429086 89.8124074562691
72.67502861766434 0.04945246571785267 0.07665456106626496 0.017597877650005228 316.6616753923034 90.35687548400062
73.93562970314778 0.07163636938565421 0.07797595834102777 0.01759787765000538 316.7351154730202 90.91072923592193
75.21796145691394 0.09420268669514797 0.07932013430936638 0.01759787765000533 316.8098215387112 91.47413050632369
76.5223984795798 0.11715800982215896 0.0806874816381126 0.01759787765000522 316.8858154128541 92.04724387856187
77.84932182925448 0.14050904458066893 0.08207839976302188 0.017597877650005325 316.96311929512683 92.630236773136
79.19911913285509 0.16426261238173973 0.08349329500545777 0.017597877650005436 317.0417557678931 93.22327949659658
80.57218469934486 0.18842565222626206 0.08493258069109116 0.017597877650005332 317.12174780279906 93.82654529129692
81.96891963491473 0.21300522273190858 0.08639667727063695 0.017597877650005284 317.20311876748366 94.44021038599915
83.38973196016327 0.23800850419525207 0.0878860124426853 0.017597877650005242 317.2858924324053 95.06445404735784
84.83503672928572 0.26344280068923775 0.08940102127863886 0.01759787765000527 317.37009297778565 95.69945863228664
86.3052561513196 0.28931554219685157 0.0909421463498059 0.01759787765000538 317.45574500067295 96.34540964122833
87.80081971348744 0.3156342867816875 0.09250983785669148 0.017597877650005325 317.54287352212793 97.00249577234631
89.32216430665855 0.3424067227958098 0.09410455376051008 0.01759787765000531 317.63150399453286 97.67090897664707
90.86973435297011 0.3696406711256137 0.09572675991696154 0.017597877650005242 317.7216623090265 98.3508445140514
92.44398193566516 0.39734408747669764 0.0973769302123309 0.017597877650005228 317.8133748030682 99.04250101043964
94.04536693114535 0.4255250646977123 0.09905554670190979 0.01759787765000531 317.90666826813106 99.74608051566989
95.67435714332068 0.45419183514462985 0.10076309975082554 0.017892055534992374 318.00156995752883 100.46178856260559
97.33169327479138 0.4843410207312542 0.10250008817728433 0.018775745774211428 318.10048622561175 101.18570399772256
99.01814146064449 0.5170082040359527 0.10426701939828847 0.020025246310001077 318.2058447860128 101.91428658825437
100.73429318912723 0.5525181669555139 0.1060644095778678 0.02129999675038627 318.31828524079526 102.64750316311726
102.48063871606901 0.5907964457966746 0.10789278377786223 0.022549781036994038 318.43751805132047 103.38670836290729
104.25774423592242 0.6320103592916358 0.10975267611130558 0.023887708108000116 318.5638120290785 104.13237516689382
106.06623539667063 0.676492214395437 0.11164462989845152 0.025339806313660923 318.697770868173 104.88465247088972
107.90674784282342 0.7245234535359056 0.11356919782549418 0.026726883379044414 318.8398212612412 105.64215664334085
109.77980899298537 0.7757858510810522 0.11552694210601787 0.028008654354195556 318.9889635986241 106.39548846211913
111.68603200563659 0.8304189676497289 0.11751843464523576 0.02941848660514751 319.1453310518051 107.14305877628786
113.62612253642692 0.8889903796251314 0.1195442572070575 0.0310000273545607 319.31003653378224 107.89037199216354
115.60075117782822 0.9518318179215621 0.1216050015840337 0.03259969837934959 319.4836179784206 108.6399435927219
117.61049319554543 1.0189345897359714 0.12370126977023699 0.03419210470702347 319.6659546827271 109.3941654142798
119.65602415051524 1.0905481505064962 0.12583367413711752 0.03592218882239359 319.8573917239201 110.15411877028433
121.73815641876267 1.1672766767204164 0.12800283761239192 0.03778190969818496 320.0588603075681 110.92020174565145
123.85759205422588 1.2493614886182018 0.1302093938620144 0.0396255479711905 320.27062777688235 111.69348487044105
126.01496433860267 1.3368161240061027 0.13245398747528928 0.041461386350795104 320.4925793312381 112.47517112638602
128.2110155783424 1.429932568241939 0.13473727415316794 0.04346252473119688 320.7250671173629 113.26594974297757
130.4466887956552 1.52951487508801 0.1370599208997976 0.045590760196347446 320.969220213987 114.06610244230104
132.72270298041246 1.6357091714792171 0.13942260621736857 0.04767926014436641 321.22510082538804 114.87651716166351
135.03976205186157 1.748593799706529 0.14182602030432198 0.04977029748745049 321.49267975935425 115.69799950047124
137.3986835249372 1.8685229353243933 0.14427086525697244 0.05206400529136951 321.77234677231564 116.53110782929468
139.80057355445675 1.9965668028217445 0.14675785527460983 0.05448295484632937 322.0654823434704 117.37614392238619
142.24614757531495 2.1327305435734982 0.1492877168681315 0.05683638595368079 322.37191652081754 118.23384218287305
144.73619757503982 2.2771938463603174 0.15186118907227755 0.059208520968313694 322.69174413674494 119.10477732777403
147.27162660197732 2.430390920319256 0.15447902366151722 0.0618292055008095 323.0254080857181 119.98940983187808
149.85374556019306 2.5937403356179334 0.15714198536966398 0.06457197399617759 323.3745941649684 120.88804723823948
152.4832372283129 2.7670401807274834 0.15985085211327107 0.06721882453614525 323.7388555425644 121.80124809303793
155.16100474728017 2.9506159576823916 0.1626064152188807 0.06990575565196155 324.1184454344821 122.72942464238325
157.8880490867394 3.1450019316856195 0.16540947965419006 0.07289593855263288 324.5138717435153 123.67293532678868
160.66593902373984 3.3520690822739376 0.16826086426320178 0.07600220080988451 324.92718571735776 124.63202719571277
163.4952840125817 3.5713158744339593 0.17116140200542868 0.07897532922519734 325.3576004812541 125.6070903482084
166.37712853614147 3.8032695276021222 0.17411194019922174 0.08202037368123771 325.8055622707938 126.59840218489457
169.31260061973967 4.048620249866702 0.17711334076929286 0.08542133552471287 326.2716886567447 127.60620334892384
172.303551331823 4.309718566586897 0.18016648049850292 0.0889270452590527 326.7583492276527 272.1581233585822
175.35050383107742 4.585737524453315 0.1832722512839939 0.09226446929582366 327.26444376458807 267.82178573318015
178.45466868853612 4.877441713994387 0.18643156039773165 0.09572802473872655 327.7906096931573 263.31347167969204
181.61738960046912 5.18586172672753 0.18964533075154347 0.09956214286511778 328.3377308078966 258.62560863761627
184.84067158507494 5.5134958934314255 0.19291450116672415 0.10348029397253222 328.90808973361146 253.7386385380419
188.12508868773136 5.859506730761704 0.19624002664828616 0.10723125726635341 329.50063467169656 248.6615734400483
191.47199658539387 6.224818666062787 0.19962287866394354 0.11114950466071183 330.116072530961 243.38835638185685
194.88301649425165 6.610906017540677 0.2030640454278977 0.11544544815415358 330.7555888744374 237.90882917915485
198.3602890613904 7.020342674256472 0.2065645321895225 0.11979382346787826 331.42129567013734 232.20489599078326
201.9044613376726 7.452308308070558 0.2101253615270204 0.12397650239191993 332.11220306471756 226.28503811417244
205.5170562570145 7.907903230714149 0.21374757364614289 0.1283699626450635 332.8290718474655 220.14273692686893
209.2000509218192 8.389163756231573 0.21743222668406043 0.1331367755092301 333.57341318817043 213.76504436890133
212.95568685700158 8.89862029273525 0.22118039701847075 0.1379109881763032 334.34705688852574 207.1362822668235
216.7847142491265 9.435507109353031 0.224993179582034 0.1425209986125906 335.149090910276 200.2642651799997
220.6888478651131 10.001107919216421 0.22887168818223044 0.1473848211915132 335.9803024130194 193.14224853892074
224.67051841244387 10.598148441577159 0.23281705582673115 0.15260238957125072 336.84253077264475 185.7544721361705
228.73201076449018 11.228941923303356 0.23683043505437643 0.1577674592771845 337.73719306437926 178.08879413622805
232.87421847820065 11.892825884399452 0.2409129982718618 0.16276966708385543 338.6634726746745 170.15221147701092
237.09907459677976 12.591262929879372 0.2450659380962259 0.16786267914374342 339.6221443059857 161.93808632475483
242.51847109662853 13.522077951983466 0.25039613385008846 0.018779229888667065 340.61534675451054 153.4280929680604
275.6974684493413 14.186246900483418 0.370357199944115 0.02125627458661508 341.6439533067965 145.02601494277994
317.5693715423359 15.141734004446253 0.5216192298243377 0.027193135184378436 342.70726027181 136.6983066823065
354.3691998256934 16.283896262390947 0.6563736455033523 0.03309273625179798 343.8059831368225 128.6402230101256
389.83124736491527 17.527677355788313 0.7870885312099203 0.04348884064271147 344.9424917462097 120.52522570100561
418.9075236837298 18.992794100076956 0.8963508823063306 0.053458119786311875 346.11701155796936 112.82882628368971
446.6610644572472 20.557757249725018 1.0011134072541334 0.06293606448656969 347.328966229596 105.14102191583122
471.4460571342667 22.26256456560526 1.0955355283609223 0.07607336214370186 348.57896372915343 97.64584671263071
493.9861965093909 24.126693532468295 1.1828313652052795 0.08731906337061424 349.86949367684684 90.35269025511448
515.6177506130256 26.111375709331053 1.2675002215251454 0.0978140327930801 351.2000887836266 83.08743642079837
536.091533946294 28.231519291558534 1.3487407859860616 0.11167055486492772 352.5703075794808 75.90613527071496
555.2360394838477 30.51469437192745 1.426163021323549 0.1242307521703433 353.98060905644974 68.8899629858985
573.9707809778726 32.9332566239906 1.5030446495105545 0.13408773773107585 355.4334521442952 61.89150018590028
592.3807397936118 35.49212823418729 1.5800215287923676 0.14341454808294518 356.9277197298895 54.92579038864531
610.6788750165109 38.19674567422917 1.6583798852843477 0.1498481461863299 358.4631014669581 47.99355411004373
629.6383824927013 41.07786379455955 1.7439359537073684 0.14679109857806538 360.03988091456415 41.11764211047104
651.3090838870555 44.13085729482404 1.849909784154762 0.14696773121477247 361.66030746350987 34.16497040921073
672.5273043683734 47.375700724492766 1.9559588100584613 0.1936456553748367 363.3227610243933 27.05884069768789
687.8433230972944 50.79174848567447 2.023312709113255 0.3221252548250426 365.0270429856405 19.952431831876773
697.1429207604227 54.34688629673318 2.048843811581432 0.38254984436840633 366.7732551876847 13.041281327905136
706.7824987740095 58.03710750741624 2.07510420413855 0.38278551732075794 368.5632457970251 6.354216913071085
716.7772132596424 61.86258431841514 2.102163911713103 0.3825565898701653 370.39513942729127 0.8988593348199848
727.1458437958277 65.82709200552154 2.130088229766127 0.3821261643927274 372.26881070045994 0.0
737.9019841763894 69.93473057802059 2.1589080457014957 0.38165607635592913 374.18425749083553 0.0
749.0638094167376 74.19202522338114 2.1886592812823586 0.38118252841674893 376.1425479489815 0.0
760.6343687544489 78.59972436343523 2.2193371804521154 0.3807069263789691 378.1420680020603 0.0
772.624934259985 83.16170854749349 2.250958693572935 0.3802300440442039 380.18264288681297 0.0
785.0474114422435 87.88209050759073 2.2835420920294838 0.3797526185217466 382.2641765278808 0.0
797.9155664981788 92.76567954403757 2.317110126896309 0.379275261506943 384.38684656688184 0.0
811.2358685068964 97.81450872835136 2.3516662185134485 0.3787987642692494 386.54960838431725 0.0
825.0194358738682 103.0323713128983 2.387225698142952 0.37832366063875567 388.75217980057613 0.0
839.27749040516 108.42309276378167 2.423803865895913 0.3778425151685285 390.99427615507426 0.0
854.0284695186408 113.99297683078314 2.4614267896953703 0.3773378392468407 393.27543963785325 0.0
869.3021544653224 119.7522618799868 2.5001385437435433 0.3768404354847896 395.59516773161965 0.0
885.0858259155267 125.69640399222008 2.5399135367916283 0.37637050726586985 397.95311125729603 0.0
901.3891552938269 131.8286194506306 2.580761991673343 0.3759043696331994 400.3486982341418 0.0
918.2202776646686 138.15154425588958 2.6226901187187432 0.37540584292079604 402.78113502043635 0.0
935.6398958990519 144.68623288397163 2.665793311271386 0.37490390244744276 405.2503908250171 0.0
953.6215206749141 151.4233457670423 2.710023361212484 0.3744428069224597 407.7560864453435 0.0
972.1670797890827 158.3633178665308 2.7553747950750695 0.37396401694745673 410.2972643916196 0.0
991.3238843606965 165.52236489719965 2.8019148589334932 0.373470338743521 412.8731075256692 0.0
1011.0993239359663 172.90305774560534 2.849653931228811 0.37300758983251425 415.48395412590855 0.0
1031.4793070471403 180.50037517242885 2.898564190702771 0.37253043815334497 418.12942481666244 0.0
1052.5305233130448 188.33709554947094 2.9487372572319717 0.37204710398358465 420.80808286670407 0.0
1074.2190019246611 196.40126746770298 3.000112888125345 0.3715914996192735 423.519388423576 0.0
1096.5786110174097 204.70468146302102 3.052743689630202 0.37111765470805924 426.263926491692 0.0
1119.654440396061 213.2628114117137 3.10669261365809 0.37065998848561854 429.04133904117657 0.0
1143.3946925096097 222.0572467683305 3.1618629583230304 0.37019610545903614 431.84962364736657 0.0
1167.8996546523626 231.12261650347176 3.2184028249839662 0.3697393007784484 434.68879187402194 0.0
1193.102012066702 240.43571219497693 3.276211017835868 0.3692859897458307 437.55954505588323 0.0
1219.1242514500404 250.03873127059936 3.33546443624795 0.3688333025735684 440.4615602408136 0.0
1245.8579918978808 259.8935889612032 3.3959781178342063 0.368389671731598 443.39219174670734 0.0
1273.4370552320536 270.0465945604268 3.4579511952112716 0.3679422312826883 446.35224304333093 0.0
1301.7955526667686 280.4750644095632 3.5212864776289687 0.3675094570912112 449.3424024244641 0.0
1331.0309397925469 291.21248650948394 3.586119504438874 0.3670688154189321 452.3623894048231 0.0
1361.0819557108255 302.2369133797938 3.65233076366321 0.3666467029027052 455.4088468583903 0.0
1392.0072805282464 313.56888763852993 3.7200134357208654 0.3662147498612889 458.48357591050296 0.0
1423.8588217823115 325.2263225225875 3.7892401294484785 0.36579748448614247 461.5871295346198 0.0
1456.604278376704 337.19795285913887 3.8599575263811454 0.3653795648287739 464.7192724425523 0.0
1490.3007740743126 349.5024351632479 3.9322084098396366 0.36495808365440485 467.87587687666405 0.0
1524.9510391006907 362.141272529846 4.006013459262486 0.3645624327480821 471.0599151315838 0.0
1560.5702617813472 375.1196732900921 4.08139078711754 0.3641528755441321 474.2716930347005 0.0
1597.2644125266409 388.47393232022665 4.158479195000419 0.3637436963389584 477.5110201023164 0.0
1634.9325806616653 402.16812185312705 4.237091976222223 0.36336038880783583 480.77294680996494 0.0
1673.6478687508625 416.22825617632145 4.317358721014819 0.3629689050188194 484.06176219100337 0.0
1713.4918538549914 430.68224038491667 4.399383130665524 0.3625742251738906 487.37742484726095 0.0
1754.4635147479314 445.5294911460444 4.483151876826771 0.3621956145969305 490.71942709513365 0.0
1796.5100884517283 460.7506824654539 4.568546348911267 0.36182668791065886 494.0830324628434 0.0
1839.720755503627 476.3774084829577 4.655719121395757 0.36144999724808713 497.47289006040484 0.0
1884.180553509023 492.4386890859517 4.744773979154748 0.3610740896469169 500.8888825459008 0.0
1929.8679911432696 508.92679165585076 4.835665233817215 0.3607134516329271 504.3299917615031 0.0
1976.7499891282982 525.8293043637466 4.9283057921009075 0.3603592812650156 507.7922253856572 0.0
2024.9213500917106 543.1796973380658 5.022852694639003 0.3600085066241885 511.2801267663313 0.0
2074.4170060737356 560.9897990277657 5.119342275268525 0.35965376326487064 514.7936148893198 0.0
2125.295012301279 579.2789641190689 5.217825111583112 0.35930195521435415 518.3310928584808 0.0
2177.505024149396 598.02906939176 5.318198566252344 0.35896260609057595 521.8894715714698 0.0
2231.1399891858982 617.272873516834 5.420613354057999 0.35862799932745126 525.4730848306887 0.0
2286.2377807277176 637.0231935641541 5.525107780100334 0.35829705390570066 529.0818842067226 0.0
2342.8025288252206 657.2807499185769 5.631655825267589 0.3579700434541291 532.7136335653959 0.0
2400.839214777105 678.0465956528795 5.7402338866888565 0.3576471549040843 536.3662857953279 0.0
2460.4507623609843 699.3568003956033 5.851000223685161 0.35732801579908813 540.0438741161018 0.0
2521.6783502220596 721.2252915018707 5.963995327283713 0.35701083736019523 543.7463790946406 0.0
2584.5293943328766 743.653701999804 6.079187588127942 0.3566971257304452 547.4708712870953 0.0
2649.0183858216315 766.6466080515122 6.19657481470249 0.3563899556927579 551.216467733508 0.0
2715.2412632059472 790.2375717858549 6.316300781947467 0.3560876725895161 554.9868210458568 0.0
2783.2425577700437 814.4416468873172 6.438408165308523 0.35578916907000213 558.781937487146 0.0
2852.9999718940785 839.2501076798791 6.562819640372501 0.35549473645443896 562.5981454122898 0.0
2924.562872424498 864.6797470290743 6.689586711685625 0.3552043725492551 566.4358348263322 0.0
2998.035842676694 890.7669322563477 6.818856480491869 0.35491781834536873 570.2982070044372 0.0
3073.4671695091697 917.5279778784914 6.9506740217699 0.35463501998732916 574.1852909518561 0.0
3150.816633376713 944.9478125137862 7.08493001534222 0.3543562895767245 578.0926279967849 0.0
3230.1643092205704 973.0540419476375 7.221725052441607 0.3540815169669873 582.021979385741 0.0
3311.613036564799 1001.882273581846 7.361196048302231 0.35381049025133127 585.9760320290837 0.0
3395.2151021525356 1031.4501643658812 7.503390583546131 0.3535418148319449 589.9548350790684 0.0
3480.926179908401 1061.7409842544068 7.648182161404962 0.353275904415991 593.9531011119569 0.0
3568.863046593406 1092.7952117727953 7.795727819357542 0.3530147921945437 597.9740527294582 0.0
3659.1138315770486 1124.6432632223216 7.946138655929996 0.3527582158548386 602.019805726412 0.0
3751.7352991340836 1157.30429743604 8.099464990084025 0.352505277629767 606.0904271513187 0.0
3846.63939224911 1190.7464403314762 8.255518633468753 0.3522563016182714 610.1797613821134 0.0
3943.989133825873 1225.0263178026087 8.414525040168193 0.35201095181745323 614.2925763096104 0.0
4043.8771271248706 1260.1756649243127 8.576590154482098 0.35176913511615115 618.4303648993331 0.0
4146.364669389356 1296.2151609445114 8.741767018567787 0.35152947804689916 622.5932101621104 0.0
4251.357061471758 1333.110379074743 8.909845525525954 0.35129053666041354 626.7740504200112 0.0
4359.104686187852 1370.9480570997086 9.081162794029456 0.3510560248379315 630.9792782513232 0.0
4469.640635780733 1409.7395020370063 9.255750040988543 0.3508278397789768 635.2097160524316 0.0
4583.031271987895 1449.507090987673 9.43366327684818 0.3505984910163171 639.4654611461091 0.0
