e[MeV/fm^3], P[MeV/fm^3], rho[fm^-3], v2[1], mu_q[MeV], mu_e[MeV]
70.21755168181654 0.006206087273093519 0.07407856508846018 0.017597877650005332 316.5185077347417 89.2771661002368
71.43578994790998 0.027644495228360377 0.07535555647246353 0.0175978776500052 316.5894798429086 89.8124074562691
72.67502861766434 0.04945246571785267 0.07665456106626496 0.017597877650005228 316.6616753923034 90.35687548400062
73.93562970314778 0.07163636938565421 0.07797595834102777 0.01759787765000538 316.7351154730202 90.91072923592193
75.21796145691394 0.09420268669514797 0.07932013430936638 0.01759787765000533 316.8098215387112 91.47413050632369
76.5223984795798 0.11715800982215896 0.0806874816381126 0.01759787765000522 316.8858154128541 92.04724387856187
77.84932182925448 0.14050904458066893 0.08207839976302188 0.017597877650005325 316.96311929512683 92.630236773136
79.19911913285509 0.16426261238173973 0.08349329500545777 0.017597877650005436 317.0417557678931 93.22327949659658
80.57218469934486 0.18842565222626206 0.08493258069109116 0.017597877650005332 317.12174780279906 93.82654529129692
81.96891963491473 0.21300522273190858 0.08639667727063695 0.017597877650005284 317.20311876748366 94.44021038599915
83.38973196016327 0.23800850419525207 0.0878860124426853 0.017597877650005242 317.2858924324053 95.06445404735784
84.83503672928572 0.26344280068923775 0.08940102127863886 0.01759787765000527 317.37009297778565 95.69945863228664
86.3052561513196 0.28931554219685157 0.0909421463498059 0.01759787765000538 317.45574500067295 96.34540964122833
87.80081971348744 0.3156342867816875 0.09250983785669148 0.017597877650005325 317.54287352212793 97.00249577234631
89.32216430665855 0.3424067227958098 0.09410455376051008 0.01759787765000531 317.63150399453286 97.67090897664707
90.86973435297011 0.3696406711256137 0.09572675991696154 0.017597877650005242 317.7216623090265 98.3508445140514
92.44398193566516 0.39734408747669764 0.0973769302123309 0.017597877650005228 317.8133748030682 99.04250101043964
94.04536693114535 0.4255250646977123 0.09905554670190979 0.01759787765000531 317.90666826813106 99.74608051566989
95.67435714332068 0.45419183514462985 0.10076309975082554 0.017892055534992374 318.00156995752883 100.46178856260559
97.33169327479138 0.4843410207312542 0.10250008817728433 0.018775745774211428 318.10048622561175 101.18570399772256
99.01814146064449 0.5170082040359527 0.10426701939828847 0.020025246310001077 318.2058447860128 101.91428658825437
100.73429318912723 0.5525181669555139 0.1060644095778678 0.02129999675038627 318.31828524079526 102.64750316311726
102.48063871606901 0.5907964457966746 0.10789278377786223 0.022549781036994038 318.43751805132047 103.38670836290729
104.25774423592242 0.6320103592916358 0.10975267611130558 0.023887708108000116 318.5638120290785 104.13237516689382
106.06623539667063 0.676492214395437 0.11164462989845152 0.025339806313660923 318.697770868173 104.88465247088972
107.90674784282342 0.7245234535359056 0.11356919782549418 0.026726883379044414 318.8398212612412 105.64215664334085
109.77980899298537 0.7757858510810522 0.11552694210601787 0.028008654354195556 318.9889635986241 106.39548846211913
111.68603200563659 0.8304189676497289 0.11751843464523576 0.02941848660514751 319.1453310518051 107.14305877628786
113.62612253642692 0.8889903796251314 0.1195442572070575 0.0310000273545607 319.31003653378224 107.89037199216354
115.60075117782822 0.9518318179215621 0.1216050015840337 0.03259969837934959 319.4836179784206 108.6399435927219
117.61049319554543 1.0189345897359714 0.12370126977023699 0.03419210470702347 319.6659546827271 109.3941654142798
119.65602415051524 1.0905481505064962 0.12583367413711752 0.03592218882239359 319.8573917239201 110.15411877028433
121.73815641876267 1.1672766767204164 0.12800283761239192 0.03778190969818496 320.0588603075681 110.92020174565145
123.85759205422588 1.2493614886182018 0.1302093938620144 0.0396255479711905 320.27062777688235 111.69348487044105
126.01496433860267 1.3368161240061027 0.13245398747528928 0.041461386350795104 320.4925793312381 112.47517112638602
128.2110155783424 1.429932568241939 0.13473727415316794 0.04346252473119688 320.7250671173629 113.26594974297757
130.4466887956552 1.52951487508801 0.1370599208997976 0.045590760196347446 320.969220213987 114.06610244230104
132.72270298041246 1.6357091714792171 0.13942260621736857 0.04767926014436641 321.22510082538804 114.87651716166351
135.03976205186157 1.748593799706529 0.14182602030432198 0.04977029748745049 321.49267975935425 115.69799950047124
137.3986835249372 1.8685229353243933 0.14427086525697244 0.05206400529136951 321.77234677231564 116.53110782929468
139.80057355445675 1.9965668028217445 0.14675785527460983 0.05448295484632937 322.0654823434704 117.37614392238619
142.24614757531495 2.1327305435734982 0.1492877168681315 0.05683638595368079 322.37191652081754 118.23384218287305
144.73619757503982 2.2771938463603174 0.15186118907227755 0.059208520968313694 322.69174413674494 119.10477732777403
147.27162660197732 2.430390920319256 0.15447902366151722 0.0618292055008095 323.0254080857181 119.98940983187808
149.85374556019306 2.5937403356179334 0.15714198536966398 0.06457197399617759 323.3745941649684 120.88804723823948
152.4832372283129 2.7670401807274834 0.15985085211327107 0.06721882453614525 323.7388555425644 121.80124809303793
155.16100474728017 2.9506159576823916 0.1626064152188807 0.06990575565196155 324.1184454344821 122.72942464238325
157.8880490867394 3.1450019316856195 0.16540947965419006 0.07289593855263288 324.5138717435153 123.67293532678868
160.66593902373984 3.3520690822739376 0.16826086426320178 0.07600220080988451 324.92718571735776 124.63202719571277
163.4952840125817 3.5713158744339593 0.17116140200542868 0.07897532922519734 325.3576004812541 125.6070903482084
166.37712853614147 3.8032695276021222 0.17411194019922174 0.08202037368123771 325.8055622707938 126.59840218489457
169.31260061973967 4.048620249866702 0.17711334076929286 0.08542133552471287 326.2716886567447 127.60620334892384
172.303551331823 4.309718566586897 0.18016648049850292 0.0889270452590527 326.7583492276527 128.63058410314463
175.35050383107742 4.585737524453315 0.1832722512839939 0.09226446929582366 327.26444376458807 129.67181814230588
178.45466868853612 4.877441713994387 0.18643156039773165 0.09572802473872655 327.7906096931573 130.73004905217363
181.61738960046912 5.18586172672753 0.18964533075154347 0.09956214286511778 328.3377308078966 131.80536363429957
184.84067158507494 5.5134958934314255 0.19291450116672415 0.10348029397253222 328.90808973361146 132.89762523650757
188.12508868773136 5.859506730761704 0.19624002664828616 0.10723125726635341 329.50063467169656 251.73716636513632
191.47199658539387 6.224818666062787 0.19962287866394354 0.11114950466071183 330.116072530961 242.15001879396777
194.88301649425165 6.610906017540677 0.2030640454278977 0.11544544815415358 330.7555888744374 232.18778220616582
198.3602890613904 7.020342674256472 0.2065645321895225 0.11979382346787826 331.42129567013734 221.8175568561478
201.9044613376726 7.452308308070558 0.2101253615270204 0.12397650239191993 332.11220306471756 211.0547624486524
205.5170562570145 7.907903230714149 0.21374757364614289 0.1283699626450635 332.8290718474655 199.88754758542836
209.2000509218192 8.389163756231573 0.21743222668406043 0.1331367755092301 333.57341318817043 188.29237161560982
212.95568685700158 8.89862029273525 0.22118039701847075 0.1379109881763032 334.34705688852574 176.24073031477073
216.7847142491265 9.435507109353031 0.224993179582034 0.1425188764530203 335.149090910276 163.74683120234405
223.51986992459533 10.424129234254499 0.2316905625666821 0.003882907374096703 335.9803024130194 150.79841208952266
282.3065144207451 10.753199071178303 0.4342908079836461 0.007312487081368613 336.84253077264475 137.36681960729422
373.4141974226974 11.661549277838581 0.752680471959443 0.012278535261603885 337.73719306437926 124.32909644605095
455.76513631155757 12.8445305536943 1.0427592892313249 0.01687060911855537 338.6634726746745 111.52934211638376
529.8484989512609 14.26134221962303 1.3106033945984845 0.022796384442253362 339.6221443059857 99.01876310755624
594.4090002559175 15.939671467924377 1.5526841667280196 0.02591067137720264 340.61534675451054 86.86334009160717
670.0564736798542 17.892165050897788 1.8561088439082087 0.02575144815727687 341.6439533067965 74.49678050122446
755.8997623610289 20.09700873492175 2.215633335446628 0.0654476481711751 342.70726027181 61.90631865669553
787.3190007267185 22.610586401869355 2.3453474893036033 0.23802267006700206 343.8059831368225 49.46711394701151
796.7578588133149 25.30533244383698 2.382185525256178 0.6400789610191282 344.9424917462097 36.8298324104008
800.3796642775349 28.116350397739343 2.393199385556922 0.7909466744714257 346.11701155796936 26.166541785186105
803.9885075029066 31.02400673829228 2.4039817359440487 0.8305739476267764 347.328966229596 15.768104097871863
807.5107055437807 34.03494936068307 2.4141928748306967 0.859659538494582 348.57896372915343 6.07426592589616
811.1251065199945 37.15995111555846 2.424554002685478 0.8654337624555204 349.86949367684684 1.938672217211395
814.8568545850121 40.392754236306544 2.435204791057928 0.8659585876610052 351.2000887836266 0.0
818.7186744585285 43.73557684424069 2.4461869409501302 0.8650615757484621 352.5703075794808 0.0
822.7221776587874 47.19658529729744 2.4575139457578583 0.8641167102712606 353.98060905644974 0.0
826.866942971373 50.77652306772148 2.4691994825551835 0.8633192141505539 355.4334521442952 0.0
831.1525957977129 54.47461095207225 2.4812368847104675 0.862468538425424 356.9277197298895 0.0
835.5810340729233 58.292027349755486 2.4936259535525958 0.8614404875550301 358.4631014669581 0.0
840.1634923293252 62.23677944296843 2.5063775659499195 0.8603732524637087 360.03988091456415 0.0
844.9012001226275 66.31070232452912 2.5195055564891002 0.8594108849719433 361.66030746350987 0.0
849.7921526387252 70.51160469440555 2.53299906082952 0.8584107377827594 363.3227610243933 0.0
854.838693933771 74.84099496121516 2.5468588917888244 0.8573718607369729 365.0270429856405 0.0
860.0440776541024 79.30114869709071 2.5610883239768247 0.8562965129404292 366.7732551876847 0.0
865.416865251658 83.8988630653313 2.575704948380552 0.8551859596802895 368.5632457970251 0.0
870.9544904624863 88.631394771528 2.5906959922507657 0.854043750136146 370.39513942729127 0.0
876.6596067954576 93.50046232278076 2.6060629471144487 0.8528718946975289 372.26881070045994 0.0
882.5352650126986 98.50810958925707 2.6218083346562024 0.8516721371149085 374.18425749083553 0.0
888.5878727258322 103.65921928841756 2.637943536385828 0.8504457157546241 376.1425479489815 0.0
894.8155613258832 108.95161809474251 2.654457846057197 0.8491953783847181 378.1420680020603 0.0
901.2208846092933 114.38689041918977 2.6713523954319305 0.8479225311963585 380.18264288681297 0.0
907.8066590278128 119.96683088217696 2.688628981028606 0.846628584386675 382.2641765278808 0.0
914.5765977513996 125.69397873030665 2.7062916967296213 0.8453147079014869 384.38684656688184 0.0
921.5305154666931 131.56756513112575 2.724334465699597 0.8439826637911505 386.54960838431725 0.0
928.6706356300652 137.5888526977136 2.742757536102847 0.8426336030263286 388.75217980057613 0.0
935.9991755904265 143.7590886081055 2.7615611364685346 0.8412452134671131 390.99427615507426 0.0
943.5199401230867 150.08048602224613 2.780745826366964 0.839764256202006 393.27543963785325 0.0
951.2395548072785 156.5571074130096 2.800314248206181 0.8382818854890388 395.59516773161965 0.0
959.1537195358914 163.18572407345567 2.8202608627050574 0.8368571104852176 397.95311125729603 0.0
967.2636557420929 169.9667101590853 2.840583437395126 0.8354210113266767 400.3486982341418 0.0
975.5697994013266 176.89977930295393 2.861277828796982 0.8338572923846179 402.78113502043635 0.0
984.0872316988867 183.99481456968726 2.882356357718276 0.8322590289223282 405.2503908250171 0.0
992.808062122787 191.24617338802733 2.903810330449487 0.8307643946271366 407.7560864453435 0.0
1001.7307722553433 198.6521399608019 2.925633047194478 0.8291845820249257 410.2972643916196 0.0
1010.8654590293174 206.21873305592388 2.947828223989602 0.827529189852541 412.8731075256692 0.0
1020.2140106855895 213.94720999715904 2.970399334333389 0.8259511005984699 415.48395412590855 0.0
1029.7717760514224 221.83410821665697 2.993340358057758 0.8242924431945724 418.12942481666244 0.0
1039.5523088058933 229.88722194727575 3.0166543375464228 0.8225866495284837 420.80808286670407 0.0
1049.5457201024212 238.09954832940136 3.0403299973497693 0.8209483858958766 423.519388423576 0.0
1059.7607766381211 246.47696091385527 3.064377891249278 0.8192141148918299 426.263926491692 0.0
1070.2072523802044 255.02535049136696 3.0888040390450326 0.8175122942644535 429.04133904117657 0.0
1080.8684869604274 263.7324301965276 3.113583246964363 0.8157522137113347 431.84962364736657 0.0
1091.7680381193304 272.6131501576947 3.1387350120392483 0.81399401318318 434.68879187402194 0.0
1102.8903684319787 281.65775676594876 3.164250441079074 0.8122117478545281 437.55954505588323 0.0
1114.263419452363 290.88366531389795 3.1901507182391566 0.8104070251750191 440.4615602408136 0.0
1125.8560800561904 300.2689756597902 3.2163950553107883 0.8086003134764539 443.39219174670734 0.0
1137.7006311807618 309.8344977001345 3.243014588703573 0.8067517891955678 446.35224304333093 0.0
1149.7821540251493 319.57097817212207 3.2700008696470197 0.8049269320299075 449.3424024244641 0.0
1162.1221304291003 329.491512612311 3.2973699219545143 0.8030396641511786 452.3623894048231 0.0
1174.6993885475054 339.58007701014276 3.3250850978828685 0.801197685641192 455.4088468583903 0.0
1187.530080912459 349.84782770322374 3.3531698691812815 0.7992792607553607 458.48357591050296 0.0
1200.6262870339253 360.3023888977431 3.381637212084408 0.7973951469590492 461.5871295346198 0.0
1213.9794554682765 370.93796657955176 3.410478662894196 0.7954713297235099 464.7192724425523 0.0
1227.5938686175925 381.7537928836375 3.4396740451764063 0.7934998405750608 467.87587687666405 0.0
1241.4749261081176 392.7551121821125 3.469244638184426 0.7916156266801107 471.0599151315838 0.0
1255.625867572861 403.94385648555624 3.499194726974671 0.7896287928868269 474.2716930347005 0.0
1270.0690099275075 415.333208496492 3.529541324014753 0.7876119612312102 477.5110201023164 0.0
1284.771414168419 426.8987391567005 3.5602290215700063 0.7856879920933579 480.77294680996494 0.0
1299.7568013418047 438.65800451330597 3.5913016084488145 0.7836878225855646 484.06176219100337 0.0
1315.042041707294 450.62083887956726 3.622772424882819 0.7816374805450703 487.37742484726095 0.0
1330.624906636706 462.7850702485855 3.654636550204891 0.77963608554467 490.71942709513365 0.0
1346.4835536793705 475.1332310114954 3.6868488383939604 0.7776520285075605 494.0830324628434 0.0
1362.6457115101048 487.6855092788211 3.719458341863412 0.7755903232622696 497.47289006040484 0.0
1379.1283689866139 500.45155034935766 3.752477936960312 0.7734988345130187 500.8888825459008 0.0
1395.923805017261 513.4254350548218 3.7858952702357507 0.7714570400194063 504.3299917615031 0.0
1413.0157936226879 526.593639612595 3.8196739778245368 0.7694177188763369 507.7922253856572 0.0
1430.4328201484282 539.9766175281478 3.853863036976056 0.767363974226301 511.2801267663313 0.0
1448.18106029092 553.5775157655892 3.8884667053512314 0.7652509679979804 514.7936148893198 0.0
1466.2681931455468 567.3989373334263 3.9234816380120883 0.7631210380536224 518.3310928584808 0.0
1484.6760809081572 581.4269628670237 3.958875075411091 0.7610311854487168 521.8894715714698 0.0
1503.4321648180028 595.6811512935144 3.994693856025661 0.7589361541635284 525.4730848306887 0.0
1522.5430757379795 610.1648488167375 4.030942699492745 0.7568297495241474 529.0818842067226 0.0
1542.003730276004 624.8725211006409 4.067604222587517 0.75471405700989 532.7136335653959 0.0
1561.8095749955228 639.799096123319 4.1046625398406045 0.7525906929049135 536.3662857953279 0.0
1581.9892422151315 654.964449582091 4.1421636011072 0.750457626608636 540.0438741161018 0.0
1602.5498685435673 670.372145714444 4.180112593734941 0.7483027919311205 543.7463790946406 0.0
1623.4852384407316 686.0152056579026 4.218487069815974 0.7461370322344081 547.4708712870953 0.0
1644.795070352365 701.8920465463792 4.257281224649779 0.7439820031935245 551.216467733508 0.0
1666.505540368318 718.0206741332327 4.296536730788937 0.741827101312289 554.9868210458568 0.0
1688.6242996459882 734.404875381518 4.336259222500563 0.7396652188437738 558.781937487146 0.0
1711.1373246586918 751.0323993200802 4.376415620180516 0.7374990074883403 562.5981454122898 0.0
1734.0539922846979 767.9083534056222 4.417015113313265 0.7353290420901271 566.4358348263322 0.0
1757.4009625621434 785.0504609876433 4.458096990783304 0.7331539685364454 570.2982070044372 0.0
1781.1864557687466 802.4627511283483 4.499667343529988 0.7309739436877933 574.1852909518561 0.0
1805.3909015495565 820.1289421140895 4.541683979237591 0.7287919927406072 578.0926279967849 0.0
1830.0326597176013 838.0605187130516 4.584171091104158 0.7266079098269778 582.021979385741 0.0
1855.1366286159757 856.2735706011506 4.627163418684996 0.7244206496884935 585.9760320290837 0.0
1880.7116312109224 874.7723811692551 4.670667507299114 0.7222191637889566 589.9548350790684 0.0
1906.7350716056671 893.5379625294725 4.71463373440296 0.7200073928146473 593.9531011119569 0.0
1933.2356117752854 912.5889804490224 4.759102824931683 0.7178028062484678 597.9740527294582 0.0
1960.2337459819491 931.9383673167199 4.80410256495485 0.7156040253091476 602.019805726412 0.0
1987.7389646056024 951.590683855949 4.849639970620793 0.7134043100896577 606.0904271513187 0.0
2015.71805317351 971.5200694711589 4.895651905708119 0.7112072092134056 610.1797613821134 0.0
2044.2120316281996 991.7536049869037 4.942197720938526 0.70901051187953 614.2925763096104 0.0
2073.2405035505935 1012.3029173468423 4.9893006351704905 0.7068140919572734 618.4303648993331 0.0
2102.813634571194 1033.1728475992782 5.036968121323007 0.7046057391509812 622.5932101621104 0.0
2132.894431443509 1054.334290783813 5.085128508153438 0.7023721411710788 626.7740504200112 0.0
2163.543908743561 1075.826820563965 5.13386593893798 0.7001490359692575 630.9792782513232 0.0
2194.768770684229 1097.6542866790217 5.1831896444305725 0.6979549201016404 635.2097160524316 0.0
2226.579930148161 1119.821836078241 5.233107576144476 0.6957414916467641 639.4654611461091 0.0
