e[MeV/fm^3], P[MeV/fm^3], rho[fm^-3], v2[1], mu_q[MeV], mu_e[MeV]
71.58195607221194 0.019376260638347076 0.07551183166112621 0.01806185032450322 316.57195128971085 89.92341642585284
74.10016491175249 0.06485977178396946 0.07815115873557246 0.01806185032450326 316.72146406873105 91.024765790619
76.70639143836377 0.11193304521937247 0.08088273688183939 0.018061850324503265 316.876202692721 92.16461006582368
79.40371208999426 0.16065164710631397 0.08370979050524349 0.018061850324503224 317.0363498180116 93.34429474471072
82.19531083378259 0.21107308578268988 0.08663565671212049 0.018061850324503186 317.2020944852288 94.56521234887349
85.08448292446792 0.26325687964638034 0.08966378924900394 0.018061850324503227 317.3736323424404 95.82880407201151
88.0746387941701 0.317264627411876 0.09279776257949199 0.018061850324503234 317.55116587610246 97.13656148114251
91.1693080781302 0.37316008082260077 0.09604127610361388 0.0180618503245032 317.7349046500787 98.49002827727713
94.37214378115249 0.4310092199045644 0.09939815852466523 0.018088487354544512 317.9250655530129 99.89080211763012
97.6869757993967 0.49106090179612444 0.10287237236868205 0.019255301458732603 318.1222990017657 101.33984570908403
101.11986451800226 0.5612123980307122 0.10646801866188291 0.021662464342603646 318.3451487000273 102.80997251328064
104.67528624500615 0.6427510757917515 0.11018934177159138 0.024237271178381786 318.59574432277356 104.30486344182296
108.35791622476958 0.736980624741799 0.11404073441636543 0.026920267095794273 318.8759904930379 105.82396075340817
112.1727714362078 0.844944139362974 0.11802674285124978 0.029903169158792375 319.1863342944128 107.33131489870814
116.12536221854529 0.9697012467608513 0.12215207223425231 0.033128604049492305 319.53184301002517 108.83594926945497
120.22058430169312 1.1120115025052542 0.12642159218040233 0.03642699727296762 319.9131521806471 110.36057643612367
124.4640269233187 1.2739597956119093 0.130840342509936 0.04005797794488111 320.3330553238233 111.91312631407268
128.8618971317408 1.458760515403257 0.13541353919739 0.044167339746025575 320.79588975142224 113.49907969978847
133.4208715816421 1.6702641954106736 0.1401465805286361 0.04845346643322773 321.30651694759945 115.12367962053304
138.14674713038173 1.9093441223752088 0.14504505347311691 0.052773525840877133 321.864973007233 116.79378000164584
143.046301157445 2.1790046101745664 0.1501147402788089 0.057528169039875315 322.47450701812625 118.51374226197309
148.1273960447996 2.4844335534151987 0.15536162529769304 0.06284216502195894 323.1410092423423 120.28727240461446
153.3980665613772 2.830586859448035 0.16079190204979565 0.06832610081857435 323.8695330774141 122.11815106148126
158.86527298295658 3.219172163942335 0.1664119805341341 0.07388078486914754 324.6608118435546 124.01003694966207
164.53733520637863 3.6547355939838426 0.17222849479519628 0.08003547718389081 325.5190968335605 125.96563778643767
170.4244790514288 4.145740845861174 0.17824831075389239 0.0868529844855449 326.4526563846883 127.98699818273994
176.53631225317216 4.698462512306701 0.18447853431221173 0.09382020158110449 327.46672096984696 130.0757416868159
182.8813754413206 5.316058719226849 0.19092651974116215 0.10090610940848843 328.5630444196908 132.23321948878043
189.47003531795517 6.005327445562022 0.19759987836188778 0.10878861147005087 329.74707517392477 134.4600859855788
196.31596471295904 6.779778757210621 0.2045064875302128 0.11740966184855067 331.0300349266862 136.75533593637135
203.43050851080594 7.646768440999467 0.2116544999352168 0.12608946577877583 332.4166501261103 139.11816799894396
210.8244028704521 8.611548461528256 0.2190523532228215 0.1349022716417198 333.9096258088783 141.54800776113123
218.51074020607123 9.683761637930058 0.2267087799557421 0.144675685399567 335.51527196244086 144.04316211894482
226.5082297443755 10.883905458890382 0.2346328179215674 0.15515575564888284 337.2475539070624 146.5980221258686
234.82991040706085 12.219142432571214 0.24283382080112978 0.165468793415954 339.10915812779723 149.21047258606862
243.4895649756236 13.697245910404929 0.251321469209763 0.17584512352042914 341.1031533419793 151.87844925539375
252.5038440061727 15.330749682934059 0.2601057821244808 0.18722157626269964 343.23564238728784 154.59823272020708
261.8986645589929 17.148496170258692 0.2691971287105613 0.1990941783168373 345.52172126130665 157.35874279741
271.6882403462793 19.154773742642355 0.2786062405615009 0.21042316819891171 347.9601724040327 160.15923345514636
281.89049785111735 21.359861900727388 0.28834422436678714 0.22164620815909453 350.553435966267 162.99688619016126
292.5265475405733 23.778386588672046 0.29842257502243846 0.2337246132981532 353.30588629997703 165.86712739404365
303.63223194734013 26.447522162853414 0.3088531891997931 0.24592594617416275 356.23075742095136 168.75397623493998
315.221644345916 29.365222005850605 0.3196483793885593 0.2571506414649065 359.3222217150829 171.66146423910627
327.3182001354512 32.54397588998893 0.3308208884307057 0.2680601823279971 362.5812187590644 174.58688764206116
339.94834281111105 35.99922256647753 0.34238390456234696 0.27953912812815473 366.0093102394057 177.52639819239948
353.1609909336148 39.77515980981052 0.35435107698138235 0.29073954455728535 369.6146067251103 180.46095093582716
366.9678973380775 43.86090014922628 0.36673653195926065 0.30065088098701787 373.38857293297076 183.40165313600272
381.39961501803265 48.271172544303795 0.37955488951589167 0.31015245142971803 377.3304189270836 186.34635558829183
396.4906533657989 53.02360113792524 0.3928212806773882 0.31982610479761786 381.43924800134255 189.29179087628498
412.3008527606959 58.16142376409454 0.40655136533700936 0.3301116344857489 385.715199445606 192.22134084195403
416.91030667359513 59.68396857487375 0.41046590450043985 0.09824827482273757 390.1519632333736 183.81510599030972
504.138425659794 70.19114343681643 0.7220955956866781 0.1426642883291771 394.74706680995223 171.7381003851245
550.4825143246455 77.3496065602362 0.883975459267008 0.16668706296786207 399.4973996827608 160.04769245967822
594.7559299376078 85.24641736659562 1.0363444329310612 0.19058985713431154 404.39704715862416 148.71812251105345
637.5269096200781 93.9032734561672 1.1810745884285467 0.21451785100603593 409.443966892103 137.7481627334127
679.3037768865001 103.35962723247424 1.319722131437188 0.23588714607747718 414.635064288593 127.14973375624687
720.8392437051446 113.55099277938993 1.4551364939467515 0.25486126719785274 419.965155467323 116.81463150447519
762.3611932207668 124.52748893377453 1.587613016401553 0.2725917733014911 425.42575827814784 106.7863437975679
804.2797959342842 136.3027671172994 1.718334646939826 0.2869434021965238 431.0191767573046 97.06246541296748
847.1773003179835 148.8768650171767 1.8506843764972223 0.2988403159096309 436.7425864142945 87.56212175731706
891.3048715354618 162.32364378969305 1.9855823946005096 0.3092306211001543 442.58863755631796 78.29897918005642
936.8081881643772 176.60607026795367 2.1237161367749198 0.31810257273402365 448.5493841174104 69.21937811599203
983.995173072771 191.82316070333798 2.2662070329236617 0.3259485921422014 454.6305491184618 60.31929061527469
1033.0708455028507 207.99609338171663 2.414324202986147 0.33229672138712485 460.8299726039833 51.56477839469302
1084.1641368469918 225.12028670071808 2.569719691996859 0.3371111477201465 467.1378280933174 42.9351309455735
1137.8271449770614 243.32091384566598 2.738902558589032 0.3382185168472265 473.54898535308183 34.429230285665994
1195.029516073169 262.610088220108 2.9415047523704407 0.3403597362801971 480.071280830431 25.937992515465105
1254.6597310942736 283.10164396993656 3.1594511749603007 0.3622743521863252 486.70328412661297 17.33295446798412
1311.6874460840502 304.7774085158939 3.275845481680731 0.3795405927414426 493.4322960810193 8.941109233166374
1371.7986274331417 327.55711921793227 3.3968265185969297 0.37840730647053933 500.25755711425035 1.5426818613023134
1435.2446469172207 351.52857011279383 3.5227899799406814 0.37727858110989576 507.1877539542807 0.0
1502.2103981835814 376.7547385794356 3.653943410141219 0.3761575303386877 514.2221043128914 0.0
1572.7819415128567 403.26022299217243 3.7902487849885635 0.3750471250341767 521.3446486630854 0.0
1647.2181933300599 431.1352384399932 3.9320145568828115 0.37397281266627624 528.5600614898749 0.0
1725.7259629448001 460.4528714996171 4.079506446613212 0.3729380371330371 535.8768235754889 0.0
1808.5215857013068 491.2870213438699 4.23293859460852 0.37192582581907585 543.2946808831524 0.0
1895.6013845356454 523.6296474267897 4.392114407330483 0.3709392221128551 550.7940656725807 0.0
1987.3078231284155 557.601342525646 4.557468948328431 0.36997693967037115 558.3858568647358 0.0
2083.968912249684 593.3165805230466 4.729388764287721 0.36903801038909423 566.0774961051789 0.0
2185.8397467258437 630.8623397009678 4.908113299392493 0.3681224460965091 573.8691457199808 0.0
2292.857438052941 670.208492446538 5.093323399519532 0.36723284213454077 581.7373188974098 0.0
2405.511361578255 711.528026175143 5.285654457392923 0.36636696122209544 589.6997099959373 0.0
2524.1596053745693 754.9448452996741 5.485489824383198 0.36552403555120305 597.7620710944946 0.0
2649.101310084114 800.560776263202 5.693096548803484 0.36470360445049543 605.9248908074412 0.0
2780.1926394473826 848.3160491228316 5.908005973848759 0.3639066468068588 614.160475058444 0.0
2918.1372819994776 898.4593615054902 6.131127715976681 0.36311976140274815 622.493868083454 0.0
3063.485124508841 951.1793197430098 6.363000525785612 0.3623532894729391 630.9286144231583 0.0
3216.436548732826 1006.5434251815068 6.6037613635446615 0.36159035105728243 639.4654611461091 0.0
