e[MeV/fm^3], P[MeV/fm^3], rho[fm^-3], v2[1], mu_q[MeV], mu_e[MeV]
71.58195607221194 0.019376260638347076 0.07551183166112621 0.01806185032450322 316.57195128971085 89.92341642585284
74.10016491175249 0.06485977178396946 0.07815115873557246 0.01806185032450326 316.72146406873105 91.024765790619
76.70639143836377 0.11193304521937247 0.08088273688183939 0.018061850324503265 316.876202692721 92.16461006582368
79.40371208999426 0.16065164710631397 0.08370979050524349 0.018061850324503224 317.0363498180116 93.34429474471072
82.19531083378259 0.21107308578268988 0.08663565671212049 0.018061850324503186 317.2020944852288 94.56521234887349
85.08448292446792 0.26325687964638034 0.08966378924900394 0.018061850324503227 317.3736323424404 95.82880407201151
88.0746387941701 0.317264627411876 0.09279776257949199 0.018061850324503234 317.55116587610246 97.13656148114251
91.1693080781302 0.37316008082260077 0.09604127610361388 0.0180618503245032 317.7349046500787 98.49002827727713
94.37214378115249 0.4310092199045644 0.09939815852466523 0.018088487354544512 317.9250655530129 99.89080211763012
97.6869757993967 0.49106090179612444 0.10287237236868205 0.019255301458732603 318.1222990017657 101.33984570908403
101.11986451800226 0.5612123980307122 0.10646801866188291 0.021662464342603646 318.3451487000273 102.80997251328064
104.67528624500615 0.6427510757917515 0.11018934177159138 0.024237271178381786 318.59574432277356 104.30486344182296
108.35791622476958 0.736980624741799 0.11404073441636543 0.026920267095794273 318.8759904930379 105.82396075340817
112.1727714362078 0.844944139362974 0.11802674285124978 0.029903169158792375 319.1863342944128 107.33131489870814
116.12536221854529 0.9697012467608513 0.12215207223425231 0.033128604049492305 319.53184301002517 108.83594926945497
120.22058430169312 1.1120115025052542 0.12642159218040233 0.03642699727296762 319.9131521806471 110.36057643612367
124.4640269233187 1.2739597956119093 0.130840342509936 0.04005797794488111 320.3330553238233 111.91312631407268
128.8618971317408 1.458760515403257 0.13541353919739 0.044167339746025575 320.79588975142224 113.49907969978847
133.4208715816421 1.6702641954106736 0.1401465805286361 0.04845346643322773 321.30651694759945 115.12367962053304
138.14674713038173 1.9093441223752088 0.14504505347311691 0.052773525840877133 321.864973007233 116.79378000164584
143.046301157445 2.1790046101745664 0.1501147402788089 0.057528169039875315 322.47450701812625 118.51374226197309
148.1273960447996 2.4844335534151987 0.15536162529769304 0.06284216502195894 323.1410092423423 120.28727240461446
153.3980665613772 2.830586859448035 0.16079190204979565 0.06832610081857435 323.8695330774141 122.11815106148126
158.86527298295658 3.219172163942335 0.1664119805341341 0.07388078486914754 324.6608118435546 124.01003694966207
164.53733520637863 3.6547355939838426 0.17222849479519628 0.08003547718389081 325.5190968335605 125.96563778643767
170.4244790514288 4.145740845861174 0.17824831075389239 0.0868529844855449 326.4526563846883 127.98699818273994
176.53631225317216 4.698462512306701 0.18447853431221173 0.09382020158110449 327.46672096984696 130.0757416868159
182.8813754413206 5.316058719226849 0.19092651974116215 0.10090610940848843 328.5630444196908 132.23321948878043
189.47003531795517 6.005327445562022 0.19759987836188778 0.10878861147005087 329.74707517392477 134.4600859855788
196.31596471295904 6.779778757210621 0.2045064875302128 0.11746300959217892 331.0300349266862 136.75533593637135
199.13761719092076 7.117058572293973 0.20731438534597868 0.008376273841562771 332.4166501261103 117.35475549841775
717.902106379188 11.835311638071289 2.0179007772233293 0.009814073277840746 333.9096258088783 83.19792231179952
1042.9785445969371 15.17207877256513 3.1512535665943333 0.4378482266565058 335.51527196244086 47.699007694961324
1055.1801883322635 20.710373719323893 3.1886162619910308 0.45389744749916017 337.2475539070624 25.708558579001526
1068.2927370995767 26.662126135015605 3.228768242830222 0.48467560131122644 339.10915812779723 2.076428129781462
1080.938799085754 33.16673945170411 3.2659813554881905 0.5172410089772523 341.1031533419793 0.0
1094.344301805891 40.14157292611309 3.305250862813601 0.5189092762942871 343.23564238728784 0.0
1109.101705700064 47.77679360169256 3.348014154165538 0.5168275873893109 345.52172126130665 0.0
1125.0096387407752 55.98893866839203 3.393912685816677 0.5153553599639062 347.9601724040327 0.0
1142.215523482619 64.83981520182944 3.4432169019299868 0.5131915463731773 350.553435966267 0.0
1160.9164130654265 74.4121907225081 3.4962903767631075 0.5110064507655758 353.30588629997703 0.0
1181.1273763791717 84.72131790325903 3.553257696595882 0.5091000182520602 356.23075742095136 0.0
1202.9067763453734 95.78630513422141 3.6141681297840718 0.5069818215295854 359.3222217150829 0.0
1226.3622625544772 107.65087029469814 3.6792042100464513 0.5045357596347171 362.5812187590644 0.0
1251.69277786745 120.39552727026137 3.748700182752782 0.5019923739776044 366.0093102394057 0.0
1278.9638185537804 134.05184769773953 3.8228208651326145 0.4995808661628849 369.6146067251103 0.0
1308.2187082630433 148.62994075060888 3.901558707150462 0.49709462337509613 373.38857293297076 0.0
1339.5667627073542 164.17196222442442 3.985074582634475 0.4945443006554311 377.3304189270836 0.0
1373.1197816816655 180.72071450369168 4.073529469637288 0.4919498131625262 381.43924800134255 0.0
1409.001589692668 198.32432954429433 4.167109298145763 0.4892087026288183 385.715199445606 0.0
1447.3851794611187 217.04478926656964 4.2660165898455364 0.48638386308520865 390.1519632333736 0.0
1488.3374013299103 236.9048922093838 4.370316173068021 0.4836528807752454 394.74706680995223 0.0
1531.9382218034461 257.93197535784947 4.480086181567446 0.4809679445206734 399.4973996827608 0.0
1578.2644492631266 280.14963721412687 4.595372323368567 0.4782359758448913 404.39704715862416 0.0
1627.5145869503024 303.6318549936558 4.716435577488841 0.47534455371797035 409.443966892103 0.0
1679.946860576912 328.47428860604396 4.843608523959299 0.47253327853304006 414.635064288593 0.0
1735.4526716791456 354.6281744950627 4.976653816243451 0.4698015548622787 419.965155467323 0.0
1794.2923446956438 382.1844263273266 5.115844263995978 0.46696230008327433 425.42575827814784 0.0
1856.6588468673513 411.21696875675195 5.261451310049749 0.46422486091957493 431.0191767573046 0.0
1922.6062449011283 441.74142381865914 5.413490935735872 0.46145847327803224 436.7425864142945 0.0
1992.4679404225162 473.875922937068 5.572326659964324 0.4587080687154361 442.58863755631796 0.0
2066.1232451117135 507.5639713207825 5.737666078990528 0.4560303706082012 448.5493841174104 0.0
2144.046958291206 542.988752728158 5.910190432991864 0.45331817274740693 454.6305491184618 0.0
2226.3612364997707 580.1911151548167 6.089997275313243 0.45073073670443264 460.8299726039833 0.0
2313.0459340160355 619.1507989902507 6.276909099004986 0.4480901259934149 467.1378280933174 0.0
2404.6366430474613 660.0609315369369 6.471534945741137 0.4454712367877969 473.54898535308183 0.0
2501.1231688095195 702.9218214997643 6.673895658834739 0.4430301383965918 480.071280830431 0.0
2602.7765685783966 747.8303042022422 6.884281315280233 0.440500753748744 486.70328412661297 0.0
2710.033446578325 794.9322197722829 7.103045117013203 0.4379911728464152 493.4322960810193 0.0
2822.8313932944407 844.1991948567706 7.3300323733834745 0.4356302805072447 500.25755711425035 0.0
2941.6118938691775 895.8007817151462 7.565848283131497 0.4333001313380618 507.1877539542807 0.0
3066.6943496731633 949.8504519634415 7.810817624135404 0.4309806528205957 514.2221043128914 0.0
3198.209522824739 1006.3744615772367 8.064825721847017 0.42867247791668417 521.3446486630854 0.0
3336.612964221167 1065.541323423395 8.328411873228145 0.4264291285052577 528.5600614898749 0.0
3482.27246706243 1127.491292904879 8.602054493287298 0.4242584776866667 535.8768235754889 0.0
3635.562987229771 1192.3569872678759 8.886117125831584 0.4221258893257196 543.2946808831524 0.0
3796.4521221067957 1260.0986274381562 9.1802045748713 0.4200383695108476 550.7940656725807 0.0
3965.54727259163 1330.9460985079238 9.485090803989142 0.41799379928301894 558.3858568647358 0.0
4143.426256409826 1405.1138904609263 9.801456564850977 0.4159907005223866 566.0774961051789 0.0
4330.530583094833 1482.7574804680974 10.129709745855589 0.4140296599704918 573.8691457199808 0.0
4526.718072613305 1563.790483370095 10.469234473704386 0.412116809839 581.7373188974098 0.0
4732.859232294677 1648.5450643078075 10.821166692904225 0.4102479061182396 589.6997099959373 0.0
4949.580768097496 1737.2494774763563 11.18617647611885 0.40842182201833355 597.7620710944946 0.0
5177.399765296245 1830.0850983243918 11.564719689755794 0.4066380663638376 605.9248908074412 0.0
5416.026092943376 1926.9048904044055 11.955913050288224 0.4048992536845879 614.160475058444 0.0
5666.711308398832 2028.1862347266622 12.36138186073309 0.40317642677147125 622.493868083454 0.0
5930.411418994825 2134.2704529948014 12.782053729812308 0.4014927742153662 630.9286144231583 0.0
6207.470060959018 2245.275096200351 13.218164004475462 0.3998151540888202 639.4654611461091 0.0
