e[MeV/fm^3], P[MeV/fm^3], rho[fm^-3], v2[1], mu_q[MeV], mu_e[MeV]
71.58195607221194 0.019376260638347076 0.07551183166112621 0.01806185032450322 316.57195128971085 89.92341642585284
74.10016491175249 0.06485977178396946 0.07815115873557246 0.01806185032450326 316.72146406873105 91.024765790619
76.70639143836377 0.11193304521937247 0.08088273688183939 0.018061850324503265 316.876202692721 92.16461006582368
79.40371208999426 0.16065164710631397 0.08370979050524349 0.018061850324503224 317.0363498180116 93.34429474471072
82.19531083378259 0.21107308578268988 0.08663565671212049 0.018061850324503186 317.2020944852288 94.56521234887349
85.08448292446792 0.26325687964638034 0.08966378924900394 0.018061850324503227 317.3736323424404 95.82880407201151
88.0746387941701 0.317264627411876 0.09279776257949199 0.018061850324503234 317.55116587610246 97.13656148114251
91.1693080781302 0.37316008082260077 0.09604127610361388 0.0180618503245032 317.7349046500787 98.49002827727713
94.37214378115249 0.4310092199045644 0.09939815852466523 0.018088487354544512 317.9250655530129 99.89080211763012
97.6869757993967 0.49106090179612444 0.10287237236868205 0.019255301458732603 318.1222990017657 101.33984570908403
101.11986451800226 0.5612123980307122 0.10646801866188291 0.021662464342603646 318.3451487000273 102.80997251328064
104.67528624500615 0.6427510757917515 0.11018934177159138 0.024237271178381786 318.59574432277356 104.30486344182296
108.35791622476958 0.736980624741799 0.11404073441636543 0.026920267095794273 318.8759904930379 105.82396075340817
112.1727714362078 0.844944139362974 0.11802674285124978 0.029903169158792375 319.1863342944128 107.33131489870814
116.12536221854529 0.9697012467608513 0.12215207223425231 0.033128604049492305 319.53184301002517 108.83594926945497
120.22058430169312 1.1120115025052542 0.12642159218040233 0.03642699727296762 319.9131521806471 110.36057643612367
124.4640269233187 1.2739597956119093 0.130840342509936 0.04005797794488111 320.3330553238233 111.91312631407268
128.8618971317408 1.458760515403257 0.13541353919739 0.044167339746025575 320.79588975142224 113.49907969978847
133.4208715816421 1.6702641954106736 0.1401465805286361 0.04845346643322773 321.30651694759945 115.12367962053304
138.14674713038173 1.9093441223752088 0.14504505347311691 0.052773525840877133 321.864973007233 116.79378000164584
143.046301157445 2.1790046101745664 0.1501147402788089 0.057528169039875315 322.47450701812625 118.51374226197309
148.1273960447996 2.4844335534151987 0.15536162529769304 0.06284216502195894 323.1410092423423 120.28727240461446
153.3980665613772 2.830586859448035 0.16079190204979565 0.06832610081857435 323.8695330774141 122.11815106148126
158.86527298295658 3.219172163942335 0.1664119805341341 0.07388078486914754 324.6608118435546 124.01003694966207
164.53733520637863 3.6547355939838426 0.17222849479519628 0.08003547718389081 325.5190968335605 125.96563778643767
170.4244790514288 4.145740845861174 0.17824831075389239 0.0868529844855449 326.4526563846883 127.98699818273994
176.53631225317216 4.698462512306701 0.18447853431221173 0.09382020158110449 327.46672096984696 130.0757416868159
182.8813754413206 5.316058719226849 0.19092651974116215 0.10090610940848843 328.5630444196908 132.23321948878043
189.47003531795517 6.005327445562022 0.19759987836188778 0.10878861147005087 329.74707517392477 134.4600859855788
196.31596471295904 6.779778757210621 0.2045064875302128 0.11740966184855067 331.0300349266862 136.75533593637135
203.43050851080594 7.646768440999467 0.2116544999352168 0.12608946577877583 332.4166501261103 139.11816799894396
210.8244028704521 8.611548461528256 0.2190523532228215 0.1349022716417198 333.9096258088783 141.54800776113123
218.51074020607123 9.683761637930058 0.2267087799557421 0.144675685399567 335.51527196244086 144.04316211894482
226.5082297443755 10.883905458890382 0.2346328179215674 0.15515575564888284 337.2475539070624 146.5980221258686
234.82991040706085 12.219142432571214 0.24283382080112978 0.165468793415954 339.10915812779723 149.21047258606862
243.4895649756236 13.697245910404929 0.251321469209763 0.17584512352042914 341.1031533419793 151.87844925539375
252.5038440061727 15.330749682934059 0.2601057821244808 0.18722157626269964 343.23564238728784 154.59823272020708
261.8986645589929 17.148496170258692 0.2691971287105613 0.1990941783168373 345.52172126130665 157.35874279741
271.6882403462793 19.154773742642355 0.2786062405615009 0.21042316819891171 347.9601724040327 160.15923345514636
281.89049785111735 21.359861900727388 0.28834422436678714 0.22164620815909453 350.553435966267 162.99688619016126
292.5265475405733 23.778386588672046 0.29842257502243846 0.2337246132981532 353.30588629997703 165.86712739404365
303.63223194734013 26.447522162853414 0.3088531891997931 0.24592594617416275 356.23075742095136 168.75397623493998
315.221644345916 29.365222005850605 0.3196483793885593 0.2571506414649065 359.3222217150829 171.66146423910627
327.3182001354512 32.54397588998893 0.3308208884307057 0.2680601823279971 362.5812187590644 174.58688764206116
339.94834281111105 35.99922256647753 0.34238390456234696 0.27953912812815473 366.0093102394057 177.52639819239948
353.1609909336148 39.77515980981052 0.35435107698138235 0.29073954455728535 369.6146067251103 180.46095093582716
366.9678973380775 43.86090014922628 0.36673653195926065 0.30065088098701787 373.38857293297076 183.40165313600272
381.39961501803265 48.271172544303795 0.37955488951589167 0.31015245142971803 377.3304189270836 186.34635558829183
396.4906533657989 53.02360113792524 0.3928212806773882 0.31982610479761786 381.43924800134255 189.29179087628498
412.3008527606959 58.16142376409454 0.40655136533700936 0.3289384922226952 385.715199445606 192.22134084195403
428.8422763195667 63.67123483078209 0.4207613507403866 0.3367997029933043 390.1519632333736 195.14960434240515
446.15280627746716 69.56858793441738 0.43546801061685736 0.3442133252339814 394.74706680995223 198.07590608509867
464.2780259448425 75.87458447409477 0.4506887049794844 0.35150975801747597 399.4973996827608 200.99712370244046
483.2864678357302 82.62794089575061 0.46644140061713574 0.35815337345525355 404.39704715862416 203.9015725130736
503.19312868459383 89.81743999618276 0.48274469230281475 0.3641675778099156 409.443966892103 206.80418001389222
528.3287332093167 99.04079470668084 0.5030386969975275 0.16262910469796532 414.635064288593 212.24538863094222
567.8116036673149 105.7093538136638 0.6316358792853747 0.17516594564301535 419.965155467323 202.0018804661758
617.2750639816101 114.76210264682346 0.7887159900084912 0.19029683448893686 425.42575827814784 191.8414775510611
667.4147032382945 124.6734179930821 0.9443075974982069 0.20395473391174246 431.0191767573046 181.72851627132457
718.5719120548356 135.43498571004017 1.0998814115059676 0.21655152453727733 436.7425864142945 171.62805726745705
771.0332999152989 147.1285315555608 1.2561462150345664 0.22784834717633884 442.58863755631796 161.55201415377448
825.0451445236919 159.71031273791945 1.4142424649887222 0.2376586803291052 448.5493841174104 151.4694232990891
881.0159324092521 173.28566200560462 1.57522452918512 0.24653363965935804 454.6305491184618 141.36568225508825
939.2153571303699 187.87525014391233 1.7400155532200154 0.2540962821731618 460.8299726039833 131.21950628641875
999.762890957774 203.47517707510852 1.909064812635321 0.2610470671979477 467.1378280933174 121.0272231034072
1063.044464501345 220.21948368479707 2.083108698149655 0.267425529923492 473.54898535308183 110.79581569635158
1129.1159855489916 238.0836104488786 2.262048468552564 0.27257149481477705 480.071280830431 100.51187935788893
1198.4131960848124 257.1316536053649 2.4481909459823328 0.2768905242624169 486.70328412661297 90.17055895827282
1271.3888256782584 277.4928361782925 2.6434822955157236 0.28077450455581277 493.4322960810193 79.76486812218782
1348.0371895860892 299.15551749790313 2.848029198783267 0.2843293453973963 500.25755711425035 69.28071514937469
1428.6707554902064 322.2266484641293 3.0627298969206507 0.287803150796907 507.1877539542807 58.69890186032215
1513.5090844047822 346.7933464519669 3.2882446501196547 0.291275620657522 514.2221043128914 48.0157695798897
1602.6318808726226 372.9122610993512 3.52487677814977 0.2947942128910914 521.3446486630854 37.25196865869177
1696.3277885976652 400.70344901694006 3.7735210813438975 0.29830396781263446 528.5600614898749 26.39661076229267
1794.8274691027261 430.2616550384663 4.035046879404847 0.30065520297086334 535.8768235754889 15.432353745024416
1899.1881368763445 461.7013596150503 4.321472529142723 0.3126300517106224 543.2946808831524 4.345440901593449
2001.996615680432 494.993921888861 4.533268593319457 0.32734375146527883 550.7940656725807 0.0
2108.1718198102258 530.134903288846 4.724708843634139 0.331002234957833 558.3858568647358 0.0
2220.2618406664533 567.2405711854511 4.924067556525255 0.3310643183218298 566.0774961051789 0.0
2338.5766639698118 606.4141070489828 5.131639022572932 0.33112473422570154 573.8691457199808 0.0
2463.0567893121756 647.6363506563965 5.347067666331374 0.33118332134408845 581.7373188974098 0.0
2594.2849620074676 691.1008199915365 5.571107209847314 0.33124023668469205 589.6997099959373 0.0
2732.6928019110683 736.9510499228538 5.8042201567787535 0.3312955397057391 597.7620710944946 0.0
2878.644153272075 785.3081626885131 6.0467342405274875 0.33134926912823115 605.9248908074412 0.0
3031.985136987702 836.1217368752061 6.29811661452087 0.33140136890661775 614.160475058444 0.0
3193.553787658452 889.6700694889596 6.5594467409057415 0.33145272006677207 622.493868083454 0.0
3364.016141259447 946.1747729625023 6.831381757099781 0.3315026577165119 630.9286144231583 0.0
3543.617316731791 1005.7175023174711 7.114088971389063 0.3315523495614041 639.4654611461091 0.0
