e[MeV/fm^3], P[MeV/fm^3], rho[fm^-3], v2[1], mu_q[MeV], mu_e[MeV]
71.58195607221194 0.019376260638347076 0.07551183166112621 0.01806185032450322 316.57195128971085 89.92341642585284
74.10016491175249 0.06485977178396946 0.07815115873557246 0.01806185032450326 316.72146406873105 91.024765790619
76.70639143836377 0.11193304521937247 0.08088273688183939 0.018061850324503265 316.876202692721 92.16461006582368
79.40371208999426 0.16065164710631397 0.08370979050524349 0.018061850324503224 317.0363498180116 93.34429474471072
82.19531083378259 0.21107308578268988 0.08663565671212049 0.018061850324503186 317.2020944852288 94.56521234887349
85.08448292446792 0.26325687964638034 0.08966378924900394 0.018061850324503227 317.3736323424404 95.82880407201151
88.0746387941701 0.317264627411876 0.09279776257949199 0.018061850324503234 317.55116587610246 97.13656148114251
91.1693080781302 0.37316008082260077 0.09604127610361388 0.0180618503245032 317.7349046500787 98.49002827727713
94.37214378115249 0.4310092199045644 0.09939815852466523 0.018088487354544512 317.9250655530129 99.89080211763012
97.6869757993967 0.49106090179612444 0.10287237236868205 0.019255301458732603 318.1222990017657 101.33984570908403
101.11986451800226 0.5612123980307122 0.10646801866188291 0.021662464342603646 318.3451487000273 102.80997251328064
104.67528624500615 0.6427510757917515 0.11018934177159138 0.024237271178381786 318.59574432277356 104.30486344182296
108.35791622476958 0.736980624741799 0.11404073441636543 0.026920267095794273 318.8759904930379 105.82396075340817
112.1727714362078 0.844944139362974 0.11802674285124978 0.029903169158792375 319.1863342944128 107.33131489870814
116.12536221854529 0.9697012467608513 0.12215207223425231 0.033128604049492305 319.53184301002517 108.83594926945497
120.22058430169312 1.1120115025052542 0.12642159218040233 0.03642699727296762 319.9131521806471 110.36057643612367
124.4640269233187 1.2739597956119093 0.130840342509936 0.04005797794488111 320.3330553238233 111.91312631407268
128.8618971317408 1.458760515403257 0.13541353919739 0.044167339746025575 320.79588975142224 113.49907969978847
133.4208715816421 1.6702641954106736 0.1401465805286361 0.04845346643322773 321.30651694759945 115.12367962053304
138.14674713038173 1.9093441223752088 0.14504505347311691 0.052773525840877133 321.864973007233 116.79378000164584
143.046301157445 2.1790046101745664 0.1501147402788089 0.057528169039875315 322.47450701812625 118.51374226197309
148.1273960447996 2.4844335534151987 0.15536162529769304 0.06284216502195894 323.1410092423423 120.28727240461446
153.3980665613772 2.830586859448035 0.16079190204979565 0.06832610081857435 323.8695330774141 122.11815106148126
158.86527298295658 3.219172163942335 0.1664119805341341 0.07388078486914754 324.6608118435546 124.01003694966207
164.53733520637863 3.6547355939838426 0.17222849479519628 0.08003547718389081 325.5190968335605 125.96563778643767
170.4244790514288 4.145740845861174 0.17824831075389239 0.0868529844855449 326.4526563846883 127.98699818273994
176.53631225317216 4.698462512306701 0.18447853431221173 0.09382020158110449 327.46672096984696 130.0757416868159
182.8813754413206 5.316058719226849 0.19092651974116215 0.10090610940848843 328.5630444196908 132.23321948878043
189.47003531795517 6.005327445562022 0.19759987836188778 0.10878861147005087 329.74707517392477 134.4600859855788
196.31596471295904 6.779778757210621 0.2045064875302128 0.11740966184855067 331.0300349266862 136.75533593637135
203.43050851080594 7.646768440999467 0.2116544999352168 0.12608946577877583 332.4166501261103 139.11816799894396
210.8244028704521 8.611548461528256 0.2190523532228215 0.13487721121198315 333.9096258088783 141.54800776113123
230.01168206782094 11.435733214462456 0.2378056445923931 0.006009716079066949 335.51527196244086 165.79002140864262
386.47176649228635 12.37601389956034 0.7973731288797998 0.006009716079066956 337.2475539070624 127.55970988713912
790.072270689493 14.801538339153822 2.1741846238987046 0.030471188244874797 339.10915812779723 86.47534165862517
938.3406178576463 20.65183006881466 2.7131346630472 0.0462058550519092 341.1031533419793 50.162807183570145
1064.9190198096433 27.229735155030898 3.1818671084891714 0.7395547230194404 343.23564238728784 13.272218076514239
1074.191858644865 34.55458974081131 3.208766407900218 0.7897699079834377 345.52172126130665 5.276420768014692
1084.140527094819 42.410084810864916 3.2374919251766636 0.7893536462084527 347.9601724040327 0.0
1094.8204979394566 50.837503789729 3.2680986564389394 0.7877339888272887 350.553435966267 0.0
1106.3366293978504 59.892358937712935 3.300784995190334 0.7853082466708194 353.30588629997703 0.0
1118.7127542463118 69.59856343268045 3.335672786684892 0.7831579459805291 356.23075742095136 0.0
1131.964018102805 79.96063958935767 3.372736527055338 0.7807385503157218 359.3222217150829 0.0
1146.134718957948 91.00560746955404 3.4120318247103847 0.7779010302884415 362.5812187590644 0.0
1161.3061805831899 102.782784527751 3.4536594477431373 0.7749108104112779 366.0093102394057 0.0
1177.5149511332243 115.3195686646174 3.497717985171637 0.7720261522569887 369.6146067251103 0.0
1194.764389215592 128.61032330916473 3.5441485268297654 0.7690042577953253 373.38857293297076 0.0
1213.0951417769072 142.67754254487215 3.5929892973937636 0.7658529496020359 377.3304189270836 0.0
1232.548174858979 157.54354303983445 3.6442778370148927 0.7625921161880047 381.43924800134255 0.0
1253.1702613735606 173.23464135189366 3.698065332569691 0.7590821842770175 385.715199445606 0.0
1275.0165772010698 189.77599792918207 3.7543644846943414 0.755401192773014 390.1519632333736 0.0
1298.1062018443863 207.17478302755046 3.8131763365535103 0.7517739335657883 394.74706680995223 0.0
1322.4620869420182 225.43971940694703 3.8745012776192507 0.7481402138287443 399.4973996827608 0.0
1348.1011359971808 244.57331905594657 3.9383122471246113 0.7443706668021202 404.39704715862416 0.0
1375.0921641088796 264.61073970754353 4.00466617704273 0.7403004772358175 409.443966892103 0.0
1403.5235780701953 285.5964484882101 4.073632340612767 0.7362707202549901 414.635064288593 0.0
1433.3416695586527 307.49289990234547 4.1451120286978425 0.7322674000909561 419.965155467323 0.0
1464.6248759420303 330.3327313280041 4.2191224564152146 0.7280264626208544 425.42575827814784 0.0
1497.4439634370665 354.1545441683976 4.295752339591141 0.7238551435879579 431.0191767573046 0.0
1531.8088967526496 378.9579100888163 4.3749871671157825 0.7195469438373996 436.7425864142945 0.0
1567.8233997706038 404.78836313424165 4.456876213405794 0.7151831026599949 442.58863755631796 0.0
1605.423330772275 431.5990967362521 4.5412874817382205 0.7108394115607872 448.5493841174104 0.0
1644.7853214621937 459.4879474818335 4.628443234966001 0.7063532792726592 454.6305491184618 0.0
1685.9426408315956 488.46620937852833 4.718355436376595 0.7019858934309005 460.8299726039833 0.0
1728.8636118819097 518.5021575388171 4.810910615669056 0.6974300298927654 467.1378280933174 0.0
1773.721327512164 549.6763278832528 4.906239190340571 0.6928281628591746 473.54898535308183 0.0
1820.5201722178904 581.9959614973964 5.004399005474976 0.6884462484220002 480.071280830431 0.0
1869.3459808738837 615.49981040574 5.1054589224248925 0.6838106034648925 486.70328412661297 0.0
1920.3174023673746 650.2279247537597 5.209429764526091 0.6791249035994253 493.4322960810193 0.0
1973.4028769621323 686.1579438854177 5.316264649359233 0.6746242535299709 500.25755711425035 0.0
2028.7651063533233 723.3791012913335 5.426185029406569 0.6700951681666307 507.1877539542807 0.0
2086.5039961859306 761.9356530089754 5.539273460915115 0.665497864714804 514.2221043128914 0.0
2146.6213346124537 801.8011173183278 5.6553925796305435 0.6608335235165761 521.3446486630854 0.0
2209.2725300053526 843.0533452385154 5.774719284817234 0.6562131549287269 528.5600614898749 0.0
2274.591184995313 885.7644684271378 5.897439388321591 0.651655635875553 535.8768235754889 0.0
2342.6934314682367 929.9851314755952 6.023649442211944 0.6470937924086737 543.2946808831524 0.0
2413.5143824127595 975.6484189540455 6.15311221704327 0.6425451779795024 550.7940656725807 0.0
2487.271318039561 1022.8696151259057 6.2861093841011995 0.6380080526305205 558.3858568647358 0.0
2564.1628040041364 1071.7491173849737 6.422874513981062 0.6334820261103467 566.0774961051789 0.0
2644.3242647739803 1122.3450562350768 6.563518916973462 0.628971390240948 573.8691457199808 0.0
2727.6417371727453 1174.558503894711 6.7077196016612675 0.6244935871606572 581.7373188974098 0.0
2814.4318524640566 1228.5606475546583 6.855901491797069 0.6200422068589262 589.6997099959373 0.0
2904.901483255655 1284.4506966687682 7.008284010100703 0.6156179588800823 597.7620710944946 0.0
2999.2078456978757 1342.2951494260856 7.164993607105827 0.6112230368503457 605.9248908074412 0.0
3097.175024104749 1401.956708896247 7.325606979293475 0.6068672707090874 614.160475058444 0.0
3199.2578971697853 1463.6810928760317 7.490730289810789 0.6024792483123704 622.493868083454 0.0
3305.7587405532827 1527.6044761370904 7.660637847660707 0.5981226942699438 630.9286144231583 0.0
3416.7762394800493 1593.7644503745964 7.835398228378555 0.5937610155432083 639.4654611461091 0.0
