e[MeV/fm^3], P[MeV/fm^3], rho[fm^-3], v2[1], mu_q[MeV], mu_e[MeV]
71.58195607221194 0.019376260638347076 0.07551183166112621 0.01806185032450322 316.57195128971085 89.92341642585284
74.10016491175249 0.06485977178396946 0.07815115873557246 0.01806185032450326 316.72146406873105 91.024765790619
76.70639143836377 0.11193304521937247 0.08088273688183939 0.018061850324503265 316.876202692721 92.16461006582368
79.40371208999426 0.16065164710631397 0.08370979050524349 0.018061850324503224 317.0363498180116 93.34429474471072
82.19531083378259 0.21107308578268988 0.08663565671212049 0.018061850324503186 317.2020944852288 94.56521234887349
85.08448292446792 0.26325687964638034 0.08966378924900394 0.018061850324503227 317.3736323424404 95.82880407201151
88.0746387941701 0.317264627411876 0.09279776257949199 0.018061850324503234 317.55116587610246 97.13656148114251
91.1693080781302 0.37316008082260077 0.09604127610361388 0.0180618503245032 317.7349046500787 98.49002827727713
94.37214378115249 0.4310092199045644 0.09939815852466523 0.018088487354544512 317.9250655530129 99.89080211763012
97.6869757993967 0.49106090179612444 0.10287237236868205 0.019255301458732603 318.1222990017657 101.33984570908403
101.11986451800226 0.5612123980307122 0.10646801866188291 0.021662464342603646 318.3451487000273 102.80997251328064
104.67528624500615 0.6427510757917515 0.11018934177159138 0.024237271178381786 318.59574432277356 104.30486344182296
108.35791622476958 0.736980624741799 0.11404073441636543 0.026920267095794273 318.8759904930379 105.82396075340817
112.1727714362078 0.844944139362974 0.11802674285124978 0.029903169158792375 319.1863342944128 107.33131489870814
116.12536221854529 0.9697012467608513 0.12215207223425231 0.033128604049492305 319.53184301002517 108.83594926945497
120.22058430169312 1.1120115025052542 0.12642159218040233 0.03642699727296762 319.9131521806471 110.36057643612367
124.4640269233187 1.2739597956119093 0.130840342509936 0.04005797794488111 320.3330553238233 111.91312631407268
128.8618971317408 1.458760515403257 0.13541353919739 0.044167339746025575 320.79588975142224 113.49907969978847
133.4208715816421 1.6702641954106736 0.1401465805286361 0.04845346643322773 321.30651694759945 115.12367962053304
138.14674713038173 1.9093441223752088 0.14504505347311691 0.052773525840877133 321.864973007233 116.79378000164584
143.046301157445 2.1790046101745664 0.1501147402788089 0.057528169039875315 322.47450701812625 118.51374226197309
148.1273960447996 2.4844335534151987 0.15536162529769304 0.06284216502195894 323.1410092423423 120.28727240461446
153.3980665613772 2.830586859448035 0.16079190204979565 0.06832610081857435 323.8695330774141 122.11815106148126
158.86527298295658 3.219172163942335 0.1664119805341341 0.07388078486914754 324.6608118435546 124.01003694966207
164.53733520637863 3.6547355939838426 0.17222849479519628 0.08003547718389081 325.5190968335605 125.96563778643767
170.4244790514288 4.145740845861174 0.17824831075389239 0.0868529844855449 326.4526563846883 127.98699818273994
176.53631225317216 4.698462512306701 0.18447853431221173 0.09382020158110449 327.46672096984696 130.0757416868159
182.8813754413206 5.316058719226849 0.19092651974116215 0.10090610940848843 328.5630444196908 132.23321948878043
189.47003531795517 6.005327445562022 0.19759987836188778 0.10878861147005087 329.74707517392477 134.4600859855788
196.31596471295904 6.779778757210621 0.2045064875302128 0.11740966184855067 331.0300349266862 136.75533593637135
203.43050851080594 7.646768440999467 0.2116544999352168 0.12608946577877583 332.4166501261103 139.11816799894396
210.8244028704521 8.611548461528256 0.2190523532228215 0.1349022716417198 333.9096258088783 141.54800776113123
218.51074020607123 9.683761637930058 0.2267087799557421 0.144675685399567 335.51527196244086 144.04316211894482
226.5082297443755 10.883905458890382 0.2346328179215674 0.15515575564888284 337.2475539070624 146.5980221258686
234.82991040706085 12.219142432571214 0.24283382080112978 0.165468793415954 339.10915812779723 149.21047258606862
243.4895649756236 13.697245910404929 0.251321469209763 0.17584512352042914 341.1031533419793 151.87844925539375
252.5038440061727 15.330749682934059 0.2601057821244808 0.18722157626269964 343.23564238728784 154.59823272020708
261.8986645589929 17.148496170258692 0.2691971287105613 0.1990941783168373 345.52172126130665 157.35874279741
271.6882403462793 19.154773742642355 0.2786062405615009 0.21042316819891171 347.9601724040327 160.15923345514636
281.89049785111735 21.359861900727388 0.28834422436678714 0.22164620815909453 350.553435966267 162.99688619016126
292.5265475405733 23.778386588672046 0.29842257502243846 0.2337246132981532 353.30588629997703 165.86712739404365
303.63223194734013 26.447522162853414 0.3088531891997931 0.24592594617416275 356.23075742095136 168.75397623493998
315.221644345916 29.365222005850605 0.3196483793885593 0.2571506414649065 359.3222217150829 171.66146423910627
327.3182001354512 32.54397588998893 0.3308208884307057 0.2680601823279971 362.5812187590644 174.58688764206116
339.94834281111105 35.99922256647753 0.34238390456234696 0.27953912812815473 366.0093102394057 177.52639819239948
353.1609909336148 39.77515980981052 0.35435107698138235 0.29073954455728535 369.6146067251103 180.46095093582716
366.9678973380775 43.86090014922628 0.36673653195926065 0.30065088098701787 373.38857293297076 183.40165313600272
381.39961501803265 48.271172544303795 0.37955488951589167 0.31015245142971803 377.3304189270836 186.34635558829183
396.4906533657989 53.02360113792524 0.3928212806773882 0.31982610479761786 381.43924800134255 189.29179087628498
412.3008527606959 58.16142376409454 0.40655136533700936 0.3301116344857489 385.715199445606 192.22134084195403
412.8593492515831 58.345900266106895 0.40703282202474483 0.04825060407511883 390.1519632333736 172.9338022591245
585.3888945174563 71.28386699002444 1.0200920347169788 0.10172911915407934 394.74706680995223 153.4788115157739
658.7728462163464 79.58377035026595 1.2813833108388184 0.1277502212962205 399.4973996827608 134.64751069794264
725.1595389460631 88.94438196513003 1.5180391768521764 0.15708765282157033 404.39704715862416 116.4195338972623
785.7534424990753 99.35261589698966 1.7334585835130927 0.18665844989261748 409.443966892103 98.85926953086555
842.9205663359991 110.82632133355722 1.9381958549653173 0.21100980808179226 414.635064288593 82.02259704915663
899.2397492097332 123.28199291173786 2.1441153936188 0.22804119903618347 419.965155467323 65.63733475604447
956.7923069486942 136.81092429830898 2.366831858619543 0.22692740870111172 425.42575827814784 49.69522408280443
1024.5462386144936 151.5365950347981 2.679063015954495 0.2872391448524523 431.0191767573046 33.82542992215694
1071.915070187188 167.4576116504602 2.837592823409334 0.38050008350772835 436.7425864142945 18.028279612346378
1112.2495689437515 184.3295471531451 2.929405953039592 0.41749173311501386 442.58863755631796 3.439299090833594
1154.8190499036295 202.06562313087684 3.024972583379841 0.41567079020345044 448.5493841174104 0.0
1199.9306572033581 220.7709484802463 3.12485328687387 0.4137153488470484 454.6305491184618 0.0
1247.66129506934 240.47087131120674 3.2291186551137843 0.41185142230606786 460.8299726039833 0.0
1298.0032212783851 261.1575531605419 3.337670248696907 0.4099560719870916 467.1378280933174 0.0
1351.2843023840765 282.945899345655 3.4508930205764803 0.4080819750261817 473.54898535308183 0.0
1407.496881933138 305.83482085368024 3.5687903696463206 0.40634112133210465 480.071280830431 0.0
1466.8072058249447 329.88223290956194 3.6915443979566973 0.4045432685628181 486.70328412661297 0.0
1529.4866390124962 355.17866780989505 3.819390168619651 0.4027647477957088 493.4322960810193 0.0
1595.4990449921063 381.7091607441981 3.9522323911477715 0.40109701980240153 500.25755711425035 0.0
1665.1110149399626 409.5712504574641 4.090436803572732 0.39945592134427477 507.1877539542807 0.0
1738.5186675039754 438.83301468133595 4.234206290292484 0.39782719219876084 514.2221043128914 0.0
1815.8094284983051 469.51685660030836 4.383488936249143 0.3962111232913208 521.3446486630854 0.0
1897.260657221438 501.721681126528 4.538614375571691 0.394644889333319 528.5600614898749 0.0
1983.0947946013723 535.5284836973899 4.699869756219491 0.39313369822626765 535.8768235754889 0.0
2073.54227811268 571.0170265447472 4.867481420704956 0.3916530271447449 543.2946808831524 0.0
2168.593194220264 608.1727594810325 5.041227407285633 0.39020749238570707 550.7940656725807 0.0
2268.6155171437267 647.1289650363171 5.221575720418841 0.3887953746885646 558.3858568647358 0.0
2373.9607818758036 688.011298701893 5.408940583582514 0.3874154115156654 566.0774961051789 0.0
2484.900566731077 730.9134991458067 5.603575403093081 0.3860677728256672 573.8691457199808 0.0
2601.3602373253602 775.7955646149226 5.805125762190187 0.38475643333263365 581.7373188974098 0.0
2723.8662085342594 822.8492416571177 6.014276456124429 0.38347824704217315 589.6997099959373 0.0
2852.8013054369967 872.2096335471831 6.23143711941829 0.38223222227851616 597.7620710944946 0.0
2988.4838459115326 923.9863330995752 6.4568905917471735 0.3810178129252848 605.9248908074412 0.0
3130.751206339858 978.1056195795754 6.690121295132726 0.3798365967845885 614.160475058444 0.0
3280.360296600269 1034.843121791463 6.932109367708425 0.3786687874456116 622.493868083454 0.0
3437.8975229900284 1094.4030726971248 7.183427254382921 0.37752987626784984 630.9286144231583 0.0
3603.5754789657008 1156.857504100629 7.444220364270071 0.37639578675366714 639.4654611461091 0.0
