e[MeV/fm^3], P[MeV/fm^3], rho[fm^-3], v2[1], mu_q[MeV], mu_e[MeV]
71.58195607221194 0.019376260638347076 0.07551183166112621 0.01806185032450322 316.57195128971085 89.92341642585284
74.10016491175249 0.06485977178396946 0.07815115873557246 0.01806185032450326 316.72146406873105 91.024765790619
76.70639143836377 0.11193304521937247 0.08088273688183939 0.018061850324503265 316.876202692721 92.16461006582368
79.40371208999426 0.16065164710631397 0.08370979050524349 0.018061850324503224 317.0363498180116 93.34429474471072
82.19531083378259 0.21107308578268988 0.08663565671212049 0.018061850324503186 317.2020944852288 94.56521234887349
85.08448292446792 0.26325687964638034 0.08966378924900394 0.018061850324503227 317.3736323424404 95.82880407201151
88.0746387941701 0.317264627411876 0.09279776257949199 0.018061850324503234 317.55116587610246 97.13656148114251
91.1693080781302 0.37316008082260077 0.09604127610361388 0.0180618503245032 317.7349046500787 98.49002827727713
94.37214378115249 0.4310092199045644 0.09939815852466523 0.018088487354544512 317.9250655530129 99.89080211763012
97.6869757993967 0.49106090179612444 0.10287237236868205 0.019255301458732603 318.1222990017657 101.33984570908403
101.11986451800226 0.5612123980307122 0.10646801866188291 0.021662464342603646 318.3451487000273 102.80997251328064
104.67528624500615 0.6427510757917515 0.11018934177159138 0.024237271178381786 318.59574432277356 104.30486344182296
108.35791622476958 0.736980624741799 0.11404073441636543 0.026920267095794273 318.8759904930379 105.82396075340817
112.1727714362078 0.844944139362974 0.11802674285124978 0.029903169158792375 319.1863342944128 107.33131489870814
116.12536221854529 0.9697012467608513 0.12215207223425231 0.033128604049492305 319.53184301002517 108.83594926945497
120.22058430169312 1.1120115025052542 0.12642159218040233 0.03642699727296762 319.9131521806471 110.36057643612367
124.4640269233187 1.2739597956119093 0.130840342509936 0.04005797794488111 320.3330553238233 111.91312631407268
128.8618971317408 1.458760515403257 0.13541353919739 0.044167339746025575 320.79588975142224 113.49907969978847
133.4208715816421 1.6702641954106736 0.1401465805286361 0.04845346643322773 321.30651694759945 115.12367962053304
138.14674713038173 1.9093441223752088 0.14504505347311691 0.052773525840877133 321.864973007233 116.79378000164584
143.046301157445 2.1790046101745664 0.1501147402788089 0.057528169039875315 322.47450701812625 118.51374226197309
148.1273960447996 2.4844335534151987 0.15536162529769304 0.06284216502195894 323.1410092423423 120.28727240461446
153.3980665613772 2.830586859448035 0.16079190204979565 0.06832610081857435 323.8695330774141 122.11815106148126
158.86527298295658 3.219172163942335 0.1664119805341341 0.07388078486914754 324.6608118435546 124.01003694966207
164.53733520637863 3.6547355939838426 0.17222849479519628 0.08003547718389081 325.5190968335605 125.96563778643767
170.4244790514288 4.145740845861174 0.17824831075389239 0.0868529844855449 326.4526563846883 127.98699818273994
176.53631225317216 4.698462512306701 0.18447853431221173 0.09382020158110449 327.46672096984696 130.0757416868159
182.8813754413206 5.316058719226849 0.19092651974116215 0.10090610940848843 328.5630444196908 132.23321948878043
189.47003531795517 6.005327445562022 0.19759987836188778 0.10878861147005087 329.74707517392477 134.4600859855788
196.31596471295904 6.779778757210621 0.2045064875302128 0.11740966184855067 331.0300349266862 136.75533593637135
203.43050851080594 7.646768440999467 0.2116544999352168 0.12608946577877583 332.4166501261103 139.11816799894396
210.8244028704521 8.611548461528256 0.2190523532228215 0.1349022716417198 333.9096258088783 141.54800776113123
218.51074020607123 9.683761637930058 0.2267087799557421 0.144675685399567 335.51527196244086 144.04316211894482
226.5082297443755 10.883905458890382 0.2346328179215674 0.15515575564888284 337.2475539070624 146.5980221258686
234.82991040706085 12.219142432571214 0.24283382080112978 0.165468793415954 339.10915812779723 149.21047258606862
243.4895649756236 13.697245910404929 0.251321469209763 0.17584512352042914 341.1031533419793 151.87844925539375
252.5038440061727 15.330749682934059 0.2601057821244808 0.18722157626269964 343.23564238728784 154.59823272020708
261.8986645589929 17.148496170258692 0.2691971287105613 0.1990941783168373 345.52172126130665 157.35874279741
271.6882403462793 19.154773742642355 0.2786062405615009 0.21042316819891171 347.9601724040327 160.15923345514636
281.89049785111735 21.359861900727388 0.28834422436678714 0.22164620815909453 350.553435966267 162.99688619016126
292.5265475405733 23.778386588672046 0.29842257502243846 0.2337246132981532 353.30588629997703 165.86712739404365
303.63223194734013 26.447522162853414 0.3088531891997931 0.24592594617416275 356.23075742095136 168.75397623493998
315.221644345916 29.365222005850605 0.3196483793885593 0.2571506414649065 359.3222217150829 171.66146423910627
327.3182001354512 32.54397588998893 0.3308208884307057 0.2680601823279971 362.5812187590644 174.58688764206116
339.94834281111105 35.99922256647753 0.34238390456234696 0.27953912812815473 366.0093102394057 177.52639819239948
353.1609909336148 39.77515980981052 0.35435107698138235 0.29073954455728535 369.6146067251103 180.46095093582716
366.9678973380775 43.86090014922628 0.36673653195926065 0.30065088098701787 373.38857293297076 183.40165313600272
381.39961501803265 48.271172544303795 0.37955488951589167 0.31015245142971803 377.3304189270836 186.34635558829183
396.4906533657989 53.02360113792524 0.3928212806773882 0.31982610479761786 381.43924800134255 189.29179087628498
412.3008527606959 58.16142376409454 0.40655136533700936 0.3289384922226952 385.715199445606 192.22134084195403
428.8422763195667 63.67123483078209 0.4207613507403866 0.3367997029933043 390.1519632333736 195.14960434240515
446.15280627746716 69.56858793441738 0.43546801061685736 0.3442133252339814 394.74706680995223 284.77605849193657
464.2780259448425 75.87458447409477 0.4506887049794844 0.35150975801747597 399.4973996827608 264.6527957227709
483.2864678357302 82.62794089575061 0.46644140061713574 0.35905415462949186 404.39704715862416 243.89700949198732
516.3596431516681 94.6317491875286 0.49341707009116115 0.07110233742783023 409.443966892103 222.51735154148324
556.4715333637347 97.61387153824276 0.6289291820629369 0.07758785567691084 414.635064288593 200.80795064932298
661.4364893851443 106.64857486650548 0.9816898391798575 0.09955642152894773 419.965155467323 179.64004855371203
755.8271116967852 117.1902171418736 1.297602818193944 0.12613517418545384 425.42575827814784 159.19045253494778
841.694215735157 129.15013934815278 1.5844052828950665 0.15339368920114116 431.0191767573046 139.441606391207
921.337949700563 142.40928090837858 1.8500137314167557 0.18240270797484004 436.7425864142945 120.33103877053303
995.3489513756575 157.0041528431159 2.096001475727247 0.20986864818336248 442.58863755631796 101.99299987259458
1066.4208106250999 172.78462596852205 2.333212869212754 0.23267872016155877 448.5493841174104 84.3461825646886
1136.6456251869015 189.86295888437718 2.573144071300643 0.24878609781980154 454.6305491184618 67.33065405676963
1208.9108211719517 208.25730653481585 2.8357523812846046 0.24547556340019794 460.8299726039833 50.78924350459807
1293.1075973285751 228.0363992128931 3.2016173009881252 0.3099677712493718 467.1378280933174 34.41365344745441
1352.0068305945838 249.38562344646095 3.38143240927505 0.39930883546187257 473.54898535308183 18.24415173314967
1403.9052835173613 271.793751489907 3.4904077102296176 0.4307906986898473 480.071280830431 4.081003274716255
1458.5834175873085 295.2922430986441 3.6035779305340876 0.42859599202305 486.70328412661297 0.0
1516.306612111047 319.96122216673376 3.7213156799949796 0.4263117796999887 493.4322960810193 0.0
1577.0417973891115 345.78592434785617 3.843539319068444 0.42416392136764536 500.25755711425035 0.0
1641.0292700179746 372.85714298764356 3.9705783404773083 0.4220464213191484 507.1877539542807 0.0
1708.4438974705874 401.23650238517683 4.102611636660578 0.4199409845213071 514.2221043128914 0.0
1779.3595112787766 430.9403072533275 4.23958222114236 0.4178481187870471 521.3446486630854 0.0
1854.0247767629494 462.05940004350225 4.381784871176026 0.4158162114395365 528.5600614898749 0.0
1932.6399850083067 494.6689866806829 4.5294794249219335 0.4138522490538623 535.8768235754889 0.0
2015.4104813595634 528.8411525321286 4.682865886593226 0.4119246961435308 543.2946808831524 0.0
2102.3216556568777 564.5571652848654 4.841734368283642 0.4100397664187425 550.7940656725807 0.0
2193.7044831400895 601.9404476383802 5.0065063290523275 0.40819542529077646 558.3858568647358 0.0
2289.8742841088438 641.1065570354482 5.1775532781551945 0.4063902228623708 566.0774961051789 0.0
2391.072925184613 682.1400765280847 5.355099443444984 0.4046245746634649 573.8691457199808 0.0
2497.2265340086624 724.9977389251625 5.538815069199688 0.4029038857282621 581.7373188974098 0.0
2608.8091545822967 769.8576221785992 5.729318078446882 0.40122422331241747 589.6997099959373 0.0
2726.1632699051647 816.8431271529683 5.926974749135342 0.3995844670997024 597.7620710944946 0.0
2849.57222593271 866.0530014459512 6.1320355664198525 0.39798407315596585 605.9248908074412 0.0
2978.882042480094 917.4118641063178 6.344025318681645 0.3964252884773569 614.160475058444 0.0
3114.7742903081426 971.1756605956188 6.5638282380523165 0.39488209831990284 622.493868083454 0.0
3257.7721722293477 1027.5295971261314 6.791953065330983 0.39337516434765085 630.9286144231583 0.0
3408.0643138713785 1086.537987780549 7.028528915717584 0.39187401780805864 639.4654611461091 0.0
