e[MeV/fm^3], P[MeV/fm^3], rho[fm^-3], v2[1], mu_q[MeV], mu_e[MeV]
71.58195607221194 0.019376260638347076 0.07551183166112621 0.01806185032450322 316.57195128971085 89.92341642585284
74.10016491175249 0.06485977178396946 0.07815115873557246 0.01806185032450326 316.72146406873105 91.024765790619
76.70639143836377 0.11193304521937247 0.08088273688183939 0.018061850324503265 316.876202692721 92.16461006582368
79.40371208999426 0.16065164710631397 0.08370979050524349 0.018061850324503224 317.0363498180116 93.34429474471072
82.19531083378259 0.21107308578268988 0.08663565671212049 0.018061850324503186 317.2020944852288 94.56521234887349
85.08448292446792 0.26325687964638034 0.08966378924900394 0.018061850324503227 317.3736323424404 95.82880407201151
88.0746387941701 0.317264627411876 0.09279776257949199 0.018061850324503234 317.55116587610246 97.13656148114251
91.1693080781302 0.37316008082260077 0.09604127610361388 0.0180618503245032 317.7349046500787 98.49002827727713
94.37214378115249 0.4310092199045644 0.09939815852466523 0.018088487354544512 317.9250655530129 99.89080211763012
97.6869757993967 0.49106090179612444 0.10287237236868205 0.019255301458732603 318.1222990017657 101.33984570908403
101.11986451800226 0.5612123980307122 0.10646801866188291 0.021662464342603646 318.3451487000273 102.80997251328064
104.67528624500615 0.6427510757917515 0.11018934177159138 0.024237271178381786 318.59574432277356 104.30486344182296
108.35791622476958 0.736980624741799 0.11404073441636543 0.026920267095794273 318.8759904930379 105.82396075340817
112.1727714362078 0.844944139362974 0.11802674285124978 0.029903169158792375 319.1863342944128 107.33131489870814
116.12536221854529 0.9697012467608513 0.12215207223425231 0.033128604049492305 319.53184301002517 108.83594926945497
120.22058430169312 1.1120115025052542 0.12642159218040233 0.03642699727296762 319.9131521806471 110.36057643612367
124.4640269233187 1.2739597956119093 0.130840342509936 0.04005797794488111 320.3330553238233 111.91312631407268
128.8618971317408 1.458760515403257 0.13541353919739 0.044167339746025575 320.79588975142224 113.49907969978847
133.4208715816421 1.6702641954106736 0.1401465805286361 0.04845346643322773 321.30651694759945 115.12367962053304
138.14674713038173 1.9093441223752088 0.14504505347311691 0.052773525840877133 321.864973007233 116.79378000164584
143.046301157445 2.1790046101745664 0.1501147402788089 0.057528169039875315 322.47450701812625 118.51374226197309
148.1273960447996 2.4844335534151987 0.15536162529769304 0.06284216502195894 323.1410092423423 120.28727240461446
153.3980665613772 2.830586859448035 0.16079190204979565 0.06832610081857435 323.8695330774141 122.11815106148126
158.86527298295658 3.219172163942335 0.1664119805341341 0.07388078486914754 324.6608118435546 124.01003694966207
164.53733520637863 3.6547355939838426 0.17222849479519628 0.08003547718389081 325.5190968335605 125.96563778643767
170.4244790514288 4.145740845861174 0.17824831075389239 0.0868529844855449 326.4526563846883 127.98699818273994
176.53631225317216 4.698462512306701 0.18447853431221173 0.09382020158110449 327.46672096984696 130.0757416868159
182.8813754413206 5.316058719226849 0.19092651974116215 0.10090610940848843 328.5630444196908 132.23321948878043
189.47003531795517 6.005327445562022 0.19759987836188778 0.10878861147005087 329.74707517392477 196.9536816890861
196.31596471295904 6.779778757210621 0.2045064875302128 0.11740966184855067 331.0300349266862 189.10180656158548
203.43050851080594 7.646768440999467 0.2116544999352168 0.12608946577877583 332.4166501261103 180.61554705707778
210.8244028704521 8.611548461528256 0.2190523532228215 0.1349022716417198 333.9096258088783 171.47834801068737
218.51074020607123 9.683761637930058 0.2267087799557421 0.14408969282309103 335.51527196244086 161.65159150520134
230.26260465304387 11.475255957814568 0.23834301055793353 0.015628926687459882 337.2475539070624 151.04980802328285
263.29909886822594 12.298442677648094 0.3620201255057481 0.03420606575887705 339.10915812779723 139.65655593834703
303.57678617235047 14.132308958840575 0.5125829871007719 0.04725552667385452 341.1031533419793 129.48527865910316
344.8577404284331 16.15604351922339 0.6669599723851345 0.06850502319691171 343.23564238728784 118.87053891579261
375.70984802175406 18.718772366211997 0.7852033271583797 0.08922616503213926 345.52172126130665 109.28639668953524
405.6310797590616 21.567317922951574 0.9002947315175508 0.10886508603130257 347.9601724040327 99.61615766272708
432.2978929820098 24.795137083154643 1.0036569411694576 0.13605063707150294 350.553435966267 90.2855936698786
456.7818673446838 28.46357632513312 1.0994802162495667 0.1593756865392144 353.30588629997703 81.31402270910421
480.85887191820586 32.52687157765921 1.1940488705222188 0.17935807606532006 356.23075742095136 72.34252003022513
504.4940515564638 37.011865008199315 1.28708773759882 0.19997575101709175 359.3222217150829 63.45477930600794
527.9876875465769 41.94860836961729 1.3795832990252752 0.22032775275996075 362.5812187590644 54.65586006562216
551.6223791400073 47.39842874409779 1.4725906088402454 0.23767424759406364 366.0093102394057 45.98272290994021
575.9748861165701 53.36426085243285 1.5687284706002522 0.2503022885427544 369.6146067251103 37.295007836274436
601.3860078370396 59.86589632488034 1.6708421026983546 0.255818555341522 373.38857293297076 28.588734049746026
629.0686147823269 66.94643523033992 1.7920961071724262 0.26431124033820175 377.3304189270836 19.803655187507644
657.3606312091675 74.67113621122986 1.913492920998036 0.3035403307041675 381.43924800134255 10.798691764171622
682.5710796936695 83.00881956956763 1.984816439002551 0.3347878590433617 385.715199445606 1.8702299274798717
709.0159104591374 91.9749765933683 2.0529603786054733 0.3389832982562353 390.1519632333736 0.0
737.3771528301257 101.58689250645982 2.125192394535986 0.3388442689815174 394.74706680995223 0.0
767.7251039890743 111.8679789800777 2.2015965377977627 0.338709010527225 399.4973996827608 0.0
800.1306745159719 122.8418006785681 2.282239907579435 0.33857325282724915 404.39704715862416 0.0
834.7602643456098 134.5639842938057 2.367363780723545 0.3384315690928117 409.443966892103 0.0
871.831083027158 147.10712670174829 2.457277828411596 0.33829555673328726 414.635064288593 0.0
911.262863797291 160.44417815497818 2.5517940843726685 0.33816534718427205 419.965155467323 0.0
953.2817521164915 174.65056953708947 2.6511931374741686 0.3380317355682241 425.42575827814784 0.0
998.0469027750039 189.7795765633277 2.755706128219682 0.33790460766370223 431.0191767573046 0.0
1045.6095206538416 205.84820556500745 2.8653598852127207 0.33777792435557386 436.7425864142945 0.0
1096.257035296829 222.95238592858567 2.980510612982081 0.33765348614097057 442.58863755631796 0.0
1149.903232850857 241.06299110405493 3.1009337206214767 0.33753400230632247 448.5493841174104 0.0
1206.9380372705932 260.31057185552356 3.2272095807763117 0.3374144415870677 454.6305491184618 0.0
1267.4699283453444 280.73128578941396 3.3594346065902077 0.3373017874387836 460.8299726039833 0.0
1331.49857738475 302.3246844251728 3.4974948181270142 0.337188306377447 467.1378280933174 0.0
1399.4813763385541 325.2435329227506 3.641954876570304 0.33707700212476244 473.54898535308183 0.0
1471.4044546157957 349.48333130830736 3.7927982728651926 0.33697452763237834 480.071280830431 0.0
1547.500471394406 375.12177330630453 3.950289408515303 0.3368695972122264 486.70328412661297 0.0
1628.1573390978776 402.28811758974285 4.114799201964148 0.3367666025916751 493.4322960810193 0.0
1713.329388791693 430.9669765001447 4.286193434573636 0.3366708266712135 500.25755711425035 0.0
1803.3802043148573 461.28008317106526 4.4649715782063115 0.33657729887029486 507.1877539542807 0.0
1898.5847671006939 493.31925491287893 4.651425997913765 0.3364851809677729 514.2221043128914 0.0
1999.0818829804305 527.1303125911281 4.845526009559945 0.33639446253914596 521.3446486630854 0.0
2105.255085003602 562.8414961783343 5.047730395592076 0.33630718006118965 528.5600614898749 0.0
2217.408564531638 600.5546366493917 5.258426773297993 0.336223569106902 535.8768235754889 0.0
2335.86590038363 640.3777678291341 5.477939624504107 0.3361422082671437 543.2946808831524 0.0
2460.6359067498183 682.31310696858 5.706004871936299 0.336063310381737 550.7940656725807 0.0
2592.223207293017 726.5295233984959 5.94326229597655 0.3359867407819461 558.3858568647358 0.0
2731.113300807516 773.1893742752649 6.190284129158642 0.3359123923244973 566.0774961051789 0.0
2877.688083897052 822.4201504173805 6.447432432823034 0.335840237152484 573.8691457199808 0.0
3031.8717400231694 874.1956201866866 6.714264357295441 0.3357704509349637 581.7373188974098 0.0
3194.3839713488546 928.7566995051961 6.991711191591404 0.3357028301102183 589.6997099959373 0.0
3365.7570473981928 986.2812731994594 7.280343218243939 0.3356372887965975 597.7620710944946 0.0
3546.4391665435405 1046.918950468594 7.5805637130840475 0.3355737667469838 605.9248908074412 0.0
3736.2376447374486 1110.6042739568124 7.891710776135593 0.3355123166173506 614.160475058444 0.0
3936.187459535426 1177.6836884962247 8.21511811356764 0.3354518909166564 622.493868083454 0.0
4147.109478489157 1248.431345485742 8.551594936266868 0.3353932613317747 630.9286144231583 0.0
4369.305437835263 1322.9478995401716 8.901347222144357 0.33533499379691634 639.4654611461091 0.0
