e[MeV/fm^3], P[MeV/fm^3], rho[fm^-3], v2[1], mu_q[MeV], mu_e[MeV]
71.58195607221194 0.019376260638347076 0.07551183166112621 0.01806185032450322 316.57195128971085 89.92341642585284
74.10016491175249 0.06485977178396946 0.07815115873557246 0.01806185032450326 316.72146406873105 91.024765790619
76.70639143836377 0.11193304521937247 0.08088273688183939 0.018061850324503265 316.876202692721 92.16461006582368
79.40371208999426 0.16065164710631397 0.08370979050524349 0.018061850324503224 317.0363498180116 93.34429474471072
82.19531083378259 0.21107308578268988 0.08663565671212049 0.018061850324503186 317.2020944852288 94.56521234887349
85.08448292446792 0.26325687964638034 0.08966378924900394 0.018061850324503227 317.3736323424404 95.82880407201151
88.0746387941701 0.317264627411876 0.09279776257949199 0.018061850324503234 317.55116587610246 97.13656148114251
91.1693080781302 0.37316008082260077 0.09604127610361388 0.0180618503245032 317.7349046500787 98.49002827727713
94.37214378115249 0.4310092199045644 0.09939815852466523 0.018088487354544512 317.9250655530129 99.89080211763012
97.6869757993967 0.49106090179612444 0.10287237236868205 0.019255301458732603 318.1222990017657 101.33984570908403
101.11986451800226 0.5612123980307122 0.10646801866188291 0.021662464342603646 318.3451487000273 102.80997251328064
104.67528624500615 0.6427510757917515 0.11018934177159138 0.024237271178381786 318.59574432277356 104.30486344182296
108.35791622476958 0.736980624741799 0.11404073441636543 0.026920267095794273 318.8759904930379 105.82396075340817
112.1727714362078 0.844944139362974 0.11802674285124978 0.029903169158792375 319.1863342944128 107.33131489870814
116.12536221854529 0.9697012467608513 0.12215207223425231 0.033128604049492305 319.53184301002517 108.83594926945497
120.22058430169312 1.1120115025052542 0.12642159218040233 0.03642699727296762 319.9131521806471 110.36057643612367
124.4640269233187 1.2739597956119093 0.130840342509936 0.04005797794488111 320.3330553238233 111.91312631407268
128.8618971317408 1.458760515403257 0.13541353919739 0.044167339746025575 320.79588975142224 113.49907969978847
133.4208715816421 1.6702641954106736 0.1401465805286361 0.04845346643322773 321.30651694759945 115.12367962053304
138.14674713038173 1.9093441223752088 0.14504505347311691 0.052773525840877133 321.864973007233 116.79378000164584
143.046301157445 2.1790046101745664 0.1501147402788089 0.057528169039875315 322.47450701812625 118.51374226197309
148.1273960447996 2.4844335534151987 0.15536162529769304 0.06284216502195894 323.1410092423423 120.28727240461446
153.3980665613772 2.830586859448035 0.16079190204979565 0.06832610081857435 323.8695330774141 122.11815106148126
158.86527298295658 3.219172163942335 0.1664119805341341 0.07388078486914754 324.6608118435546 124.01003694966207
164.53733520637863 3.6547355939838426 0.17222849479519628 0.08003547718389081 325.5190968335605 125.96563778643767
170.4244790514288 4.145740845861174 0.17824831075389239 0.0868529844855449 326.4526563846883 127.98699818273994
176.53631225317216 4.698462512306701 0.18447853431221173 0.09382020158110449 327.46672096984696 130.0757416868159
182.8813754413206 5.316058719226849 0.19092651974116215 0.10090610940848843 328.5630444196908 132.23321948878043
189.47003531795517 6.005327445562022 0.19759987836188778 0.10878861147005087 329.74707517392477 134.4600859855788
196.31596471295904 6.779778757210621 0.2045064875302128 0.11740966184855067 331.0300349266862 136.75533593637135
203.43050851080594 7.646768440999467 0.2116544999352168 0.12608946577877583 332.4166501261103 139.11816799894396
210.8244028704521 8.611548461528256 0.2190523532228215 0.1349022716417198 333.9096258088783 141.54800776113123
218.51074020607123 9.683761637930058 0.2267087799557421 0.144675685399567 335.51527196244086 144.04316211894482
226.5082297443755 10.883905458890382 0.2346328179215674 0.15515575564888284 337.2475539070624 146.5980221258686
234.82991040706085 12.219142432571214 0.24283382080112978 0.165468793415954 339.10915812779723 149.21047258606862
243.4895649756236 13.697245910404929 0.251321469209763 0.17590821328352613 341.1031533419793 151.87844925539375
259.428119500639 16.659158622948308 0.2667083320318481 0.00788867824072374 343.23564238728784 168.42926579693903
418.092554635475 18.197316568086652 0.8161767311995591 0.011500139975925614 345.52172126130665 133.01571094021017
682.5711793250765 22.034933876764836 1.7497108516489108 0.020257761526706677 347.9601724040327 97.29766132855619
911.2479667568318 27.803844653678794 2.614247944605995 0.11036002832476943 350.553435966267 62.85910587535207
969.2622163380074 35.4592771546141 2.830106612482196 0.3081886615632654 353.30588629997703 30.472348065050262
991.707147437247 43.90687604819727 2.9070030698716973 0.5849356172210869 356.23075742095136 8.394760698753966
1004.5384066748392 52.94223636556404 2.9429183692340035 0.7033428926425769 359.3222217150829 0.0
1018.2650247056315 62.584641448915974 2.980981886588809 0.7007716229747509 362.5812187590644 0.0
1032.996984710292 72.88168041617658 3.0214032460043208 0.6974556673299155 366.0093102394057 0.0
1048.7705124784293 83.8576239998205 3.064278218118341 0.6942723226305718 369.6146067251103 0.0
1065.595072438208 95.51021267648308 3.1095645327880135 0.6909525888460681 373.38857293297076 0.0
1083.5169515198415 107.8620463129412 3.1573152698556517 0.6875069299469803 377.3304189270836 0.0
1102.5830675613345 120.93570758864311 3.207583049888541 0.6839588660140081 381.43924800134255 0.0
1122.8463602987922 134.75744106470256 3.2604341017773004 0.680160282656086 385.715199445606 0.0
1144.373708314799 149.35496663750612 3.315910579280178 0.67619678890143 390.1519632333736 0.0
1167.1893947276576 164.73702870098023 3.374023872653777 0.6723129020095651 394.74706680995223 0.0
1191.3225565750772 180.9141996065093 3.434787105153187 0.6684435779404216 399.4973996827608 0.0
1216.7975994754727 197.89211243003007 3.498188949464631 0.6644525931347589 404.39704715862416 0.0
1243.695097214642 215.70742086475397 3.564311980231927 0.6601690201180688 409.443966892103 0.0
1272.1190907924745 234.40682877487663 3.633259143880071 0.655951056572099 414.635064288593 0.0
1302.0143159076395 253.95616919475975 3.7049226610941033 0.6517887731472927 419.965155467323 0.0
1333.4782162856334 274.39312862690974 3.7793593930719607 0.6474050267050071 425.42575827814784 0.0
1366.5918146852293 295.7567487477276 3.856675772526994 0.6431196225160871 431.0191767573046 0.0
1401.3709447396927 318.0493017115584 3.93686432454041 0.6387233492773321 436.7425864142945 0.0
1437.9426805554635 341.32193207551126 4.02001915845849 0.6342960919368155 442.58863755631796 0.0
1476.2425035792014 365.5327525485536 4.106000256767479 0.6299198579049348 448.5493841174104 0.0
1516.4715192358635 390.78002813526126 4.195074461799763 0.625427877133923 454.6305491184618 0.0
1558.6729905822388 417.0783438214726 4.287266153689215 0.6210829357828942 460.8299726039833 0.0
1602.8215454479716 444.4022764753404 4.382467115222342 0.6165822654785718 467.1378280933174 0.0
1649.1258256385265 472.839681791532 4.480868352141036 0.6120629624060729 473.54898535308183 0.0
1697.5872087965456 502.3956506036143 4.582513579719813 0.6077894146708154 480.071280830431 0.0
1748.3100574633233 533.1130992840866 4.687498470109079 0.6032990940223106 486.70328412661297 0.0
1801.4488174305934 565.043912748413 4.79588866144948 0.5987880551183906 493.4322960810193 0.0
1856.9712464556328 598.1678516597809 4.907626062406906 0.5944849664818532 500.25755711425035 0.0
1915.0632707025472 632.5749464027408 5.022964445256509 0.5901827062020253 507.1877539542807 0.0
1975.8470043705843 668.3146827350631 5.142014728138762 0.5858442809535935 514.2221043128914 0.0
2039.34520457349 705.372942367232 5.264662390462194 0.5814713796244462 521.3446486630854 0.0
2105.7410329787554 743.8316591133392 5.391119338052946 0.5771676959040519 528.5600614898749 0.0
2175.1880301583924 783.7641344305226 5.521593668585495 0.572950498826855 535.8768235754889 0.0
2247.828749064925 825.2274523104933 5.6562124241570775 0.5687563852266546 543.2946808831524 0.0
2323.612675988055 868.1684749048261 5.794745394756748 0.5646011662898065 550.7940656725807 0.0
2402.791038096741 912.7052983016818 5.937516050523291 0.560482814862354 558.3858568647358 0.0
2485.597164045649 958.9431199356345 6.0847990318410465 0.5564005219528312 566.0774961051789 0.0
2572.1979902554685 1006.9479972802104 6.236738953269338 0.5523576652479392 573.8691457199808 0.0
2662.4907698242823 1056.6368336975029 6.393009580612598 0.5483692518678556 581.7373188974098 0.0
2756.839196820638 1108.1834788881713 6.554093688664356 0.5444288718186909 589.6997099959373 0.0
2855.490427392498 1161.6945677130418 6.720254309112496 0.5405364787819984 597.7620710944946 0.0
2958.6390059007076 1217.2462450435019 6.891654492608977 0.5366933156301172 605.9248908074412 0.0
3066.114705855575 1274.718718293332 7.067854160535057 0.5329072755340007 614.160475058444 0.0
3178.4401766331584 1334.36162576465 7.249542799510703 0.529116298942423 622.493868083454 0.0
3295.9831821880243 1396.325944932117 7.437064028725609 0.5253743042349912 630.9286144231583 0.0
3418.868975109355 1460.6571912512015 7.630504320048072 0.5216343822820626 639.4654611461091 0.0
