e[MeV/fm^3], P[MeV/fm^3], rho[fm^-3], v2[1], mu_q[MeV], mu_e[MeV]
71.58195607221194 0.019376260638347076 0.07551183166112621 0.01806185032450322 316.57195128971085 89.92341642585284
74.10016491175249 0.06485977178396946 0.07815115873557246 0.01806185032450326 316.72146406873105 91.024765790619
76.70639143836377 0.11193304521937247 0.08088273688183939 0.018061850324503265 316.876202692721 92.16461006582368
79.40371208999426 0.16065164710631397 0.08370979050524349 0.018061850324503224 317.0363498180116 93.34429474471072
82.19531083378259 0.21107308578268988 0.08663565671212049 0.018061850324503186 317.2020944852288 94.56521234887349
85.08448292446792 0.26325687964638034 0.08966378924900394 0.018061850324503227 317.3736323424404 95.82880407201151
88.0746387941701 0.317264627411876 0.09279776257949199 0.018061850324503234 317.55116587610246 97.13656148114251
91.1693080781302 0.37316008082260077 0.09604127610361388 0.0180618503245032 317.7349046500787 98.49002827727713
94.37214378115249 0.4310092199045644 0.09939815852466523 0.018088487354544512 317.9250655530129 99.89080211763012
97.6869757993967 0.49106090179612444 0.10287237236868205 0.019255301458732603 318.1222990017657 101.33984570908403
101.11986451800226 0.5612123980307122 0.10646801866188291 0.021662464342603646 318.3451487000273 102.80997251328064
104.67528624500615 0.6427510757917515 0.11018934177159138 0.024237271178381786 318.59574432277356 104.30486344182296
108.35791622476958 0.736980624741799 0.11404073441636543 0.026920267095794273 318.8759904930379 105.82396075340817
112.1727714362078 0.844944139362974 0.11802674285124978 0.029903169158792375 319.1863342944128 107.33131489870814
116.12536221854529 0.9697012467608513 0.12215207223425231 0.033128604049492305 319.53184301002517 108.83594926945497
120.22058430169312 1.1120115025052542 0.12642159218040233 0.03642699727296762 319.9131521806471 110.36057643612367
124.4640269233187 1.2739597956119093 0.130840342509936 0.04005797794488111 320.3330553238233 111.91312631407268
128.8618971317408 1.458760515403257 0.13541353919739 0.044167339746025575 320.79588975142224 113.49907969978847
133.4208715816421 1.6702641954106736 0.1401465805286361 0.04845346643322773 321.30651694759945 115.12367962053304
138.14674713038173 1.9093441223752088 0.14504505347311691 0.052773525840877133 321.864973007233 116.79378000164584
143.046301157445 2.1790046101745664 0.1501147402788089 0.057528169039875315 322.47450701812625 118.51374226197309
148.1273960447996 2.4844335534151987 0.15536162529769304 0.06284216502195894 323.1410092423423 120.28727240461446
153.3980665613772 2.830586859448035 0.16079190204979565 0.06832610081857435 323.8695330774141 122.11815106148126
158.86527298295658 3.219172163942335 0.1664119805341341 0.07388078486914754 324.6608118435546 124.01003694966207
164.53733520637863 3.6547355939838426 0.17222849479519628 0.08003547718389081 325.5190968335605 125.96563778643767
170.4244790514288 4.145740845861174 0.17824831075389239 0.0868529844855449 326.4526563846883 127.98699818273994
176.53631225317216 4.698462512306701 0.18447853431221173 0.09382020158110449 327.46672096984696 130.0757416868159
182.8813754413206 5.316058719226849 0.19092651974116215 0.10090610940848843 328.5630444196908 132.23321948878043
189.47003531795517 6.005327445562022 0.19759987836188778 0.10878861147005087 329.74707517392477 134.4600859855788
196.31596471295904 6.779778757210621 0.2045064875302128 0.11740966184855067 331.0300349266862 136.75533593637135
203.43050851080594 7.646768440999467 0.2116544999352168 0.12608946577877583 332.4166501261103 139.11816799894396
210.8244028704521 8.611548461528256 0.2190523532228215 0.1349022716417198 333.9096258088783 141.54800776113123
218.51074020607123 9.683761637930058 0.2267087799557421 0.144675685399567 335.51527196244086 144.04316211894482
226.5082297443755 10.883905458890382 0.2346328179215674 0.15515575564888284 337.2475539070624 146.5980221258686
234.82991040706085 12.219142432571214 0.24283382080112978 0.16574984691000338 339.10915812779723 149.21047258606862
237.75887707674465 12.705068023187824 0.24554816226328566 0.029226881832885354 341.1031533419793 144.123772764706
294.9935029150982 15.571926319509755 0.45863426802854107 0.0709522756029905 343.23564238728784 135.55200471862884
322.3423142272392 17.78502604977567 0.5616033420593485 0.08679992988806184 345.52172126130665 127.865047226114
348.99542028696106 20.251213328822402 0.6621678396632271 0.10533842646610148 347.9601724040327 120.11787995557701
372.9952505034435 23.056136501085692 0.7531268743491937 0.13289186751296023 350.553435966267 112.65896970335051
394.64265142793596 26.2456845996051 0.8343718522401077 0.15734640865240235 353.30588629997703 105.60694793765734
415.76508132970224 29.775437983884594 0.9130653028330561 0.1780714916634516 356.23075742095136 98.6424453853081
436.38014518641336 33.66695222891296 0.9892349380683394 0.19903347091141466 359.3222217150829 91.83362479472585
456.835554236155 37.94657235716407 1.0642771311275019 0.21954989178182083 362.5812187590644 85.15393820061655
477.3560347178261 42.66455122706507 1.1387592246032696 0.2373455524999113 366.0093102394057 78.63207035516945
498.40824332490735 47.82166900336498 1.2144086223435815 0.25151555963797323 369.6146067251103 72.14732172422289
520.126701878979 53.43090217124959 1.2916435042708299 0.26391637940035473 373.38857293297076 65.69927183545148
542.690845150252 59.51830844873494 1.3710611253071463 0.27456114697735456 377.3304189270836 59.269724834471354
566.2733412768995 66.11092917076779 1.4532586346263936 0.2835564247681728 381.43924800134255 52.837631721187044
591.0440778294484 73.23892545839662 1.5388535549627924 0.291336310346197 385.715199445606 46.379430041849176
617.1749595679362 80.95041801493902 1.6284895402586161 0.2978556436165132 390.1519632333736 39.89627567757394
644.8132793740242 89.26290117555959 1.7230036992387627 0.30280536900243704 394.74706680995223 33.35412428626688
674.116140848723 98.1995298945975 1.823780378295721 0.30602246953328427 399.4973996827608 26.727368139170316
705.3322155584156 107.78719593589707 1.934614597763414 0.3054796227932093 404.39704715862416 19.992627962255348
739.2769440801306 118.09537741251287 2.0712271573071326 0.31388403481949867 409.443966892103 13.088606258230325
773.5399211720505 129.2030339600041 2.177053975227611 0.3298784803655537 414.635064288593 5.996076092264829
808.7416502046462 141.02111878301864 2.2614372395845534 0.33569124731744693 419.965155467323 0.5929275947122901
846.2563802014193 153.61315364743302 2.35018219233098 0.335622071630014 425.42575827814784 0.0
886.2269166345123 167.0267135894262 2.443502001789048 0.3355548798809014 431.0191767573046 0.0
928.6991970076889 181.27708158731429 2.541420982875262 0.335488165063917 436.7425864142945 0.0
973.9306905620227 196.4501012007309 2.644258820764695 0.3354228725184685 442.58863755631796 0.0
1021.8444231682665 212.51995701212365 2.7518147227304723 0.33536042705474367 448.5493841174104 0.0
1072.7893974421645 229.60320539050764 2.8646084665933524 0.3352981700463322 454.6305491184618 0.0
1126.862829731075 247.7322477183075 2.982726588320202 0.3352397256503483 460.8299726039833 0.0
1184.0646676587335 266.90692027872444 3.106067542058604 0.33518107364947114 467.1378280933174 0.0
1244.8045634417485 287.2638679640916 3.2351376930404614 0.3351237505357707 473.54898535308183 0.0
1309.0700182740975 308.798995145247 3.369921758857692 0.3350711654012559 480.071280830431 0.0
1377.069423994853 331.58181445435 3.5106567823363406 0.3350175088594618 486.70328412661297 0.0
1449.1504209772563 355.7281566900231 3.6576759610698746 0.3349650241358475 493.4322960810193 0.0
1525.2722151395678 381.2243666417203 3.810859051457419 0.3349163889364837 500.25755711425035 0.0
1605.760247053733 408.1791448221146 3.970653142408074 0.33486904848778165 507.1877539542807 0.0
1690.860827776993 436.6746523340488 4.137320296778672 0.33482257339696764 514.2221043128914 0.0
1780.6986642811057 466.75225706168305 4.310833995306048 0.33477695419092335 521.3446486630854 0.0
1875.6171778083858 498.52659163841116 4.491605107390781 0.3347332037817754 528.5600614898749 0.0
1975.8886659016464 532.0886047585732 4.679980489975695 0.3346914248287991 535.8768235754889 0.0
2081.802980733768 567.5349796803757 4.87625095578448 0.3346508925656946 543.2946808831524 0.0
2193.368539451 604.8682134181336 5.080181040531637 0.3346117037426324 550.7940656725807 0.0
2311.037091194814 644.2391607929637 5.292343441485434 0.33457378206148825 558.3858568647358 0.0
2435.2433445114198 685.792937900759 5.513250531068054 0.33453706551981766 566.0774961051789 0.0
2566.329403197047 729.6436533278109 5.7432267745662955 0.33450153177287634 573.8691457199808 0.0
2704.228017683419 775.7684855035783 5.981876733121568 0.3344672586627362 581.7373188974098 0.0
2849.5834279907654 824.3825994124297 6.230033933544838 0.33443413777067743 589.6997099959373 0.0
3002.8723033092806 875.6450714577592 6.488209104213108 0.33440211922722396 597.7620710944946 0.0
3164.496153704796 929.6898200589885 6.75676362628459 0.3343711662323683 605.9248908074412 0.0
3334.2831961698353 986.4590703467056 7.035106007394671 0.33434129745071406 614.160475058444 0.0
3513.1598925936937 1046.262239721347 7.324429966693894 0.3343119994155561 622.493868083454 0.0
3701.86149235468 1109.3446184239783 7.625460493929121 0.3342836404426901 630.9286144231583 0.0
3900.6583542987423 1175.7963592135252 7.938382136932677 0.3342554918122751 639.4654611461091 0.0
