e[MeV/fm^3], P[MeV/fm^3], rho[fm^-3], v2[1], mu_q[MeV], mu_e[MeV]
71.58195607221194 0.019376260638347076 0.07551183166112621 0.01806185032450322 316.57195128971085 89.92341642585284
74.10016491175249 0.06485977178396946 0.07815115873557246 0.01806185032450326 316.72146406873105 91.024765790619
76.70639143836377 0.11193304521937247 0.08088273688183939 0.018061850324503265 316.876202692721 92.16461006582368
79.40371208999426 0.16065164710631397 0.08370979050524349 0.018061850324503224 317.0363498180116 93.34429474471072
82.19531083378259 0.21107308578268988 0.08663565671212049 0.018061850324503186 317.2020944852288 94.56521234887349
85.08448292446792 0.26325687964638034 0.08966378924900394 0.018061850324503227 317.3736323424404 95.82880407201151
88.0746387941701 0.317264627411876 0.09279776257949199 0.018061850324503234 317.55116587610246 97.13656148114251
91.1693080781302 0.37316008082260077 0.09604127610361388 0.0180618503245032 317.7349046500787 98.49002827727713
94.37214378115249 0.4310092199045644 0.09939815852466523 0.018088487354544512 317.9250655530129 99.89080211763012
97.6869757993967 0.49106090179612444 0.10287237236868205 0.019255301458732603 318.1222990017657 101.33984570908403
101.11986451800226 0.5612123980307122 0.10646801866188291 0.021662464342603646 318.3451487000273 102.80997251328064
104.67528624500615 0.6427510757917515 0.11018934177159138 0.024237271178381786 318.59574432277356 104.30486344182296
108.35791622476958 0.736980624741799 0.11404073441636543 0.026920267095794273 318.8759904930379 105.82396075340817
112.1727714362078 0.844944139362974 0.11802674285124978 0.029903169158792375 319.1863342944128 107.33131489870814
116.12536221854529 0.9697012467608513 0.12215207223425231 0.033128604049492305 319.53184301002517 108.83594926945497
120.22058430169312 1.1120115025052542 0.12642159218040233 0.03642699727296762 319.9131521806471 110.36057643612367
124.4640269233187 1.2739597956119093 0.130840342509936 0.04005797794488111 320.3330553238233 111.91312631407268
128.8618971317408 1.458760515403257 0.13541353919739 0.044167339746025575 320.79588975142224 113.49907969978847
133.4208715816421 1.6702641954106736 0.1401465805286361 0.04845346643322773 321.30651694759945 115.12367962053304
138.14674713038173 1.9093441223752088 0.14504505347311691 0.052773525840877133 321.864973007233 116.79378000164584
143.046301157445 2.1790046101745664 0.1501147402788089 0.057528169039875315 322.47450701812625 118.51374226197309
148.1273960447996 2.4844335534151987 0.15536162529769304 0.06284216502195894 323.1410092423423 120.28727240461446
153.3980665613772 2.830586859448035 0.16079190204979565 0.06832610081857435 323.8695330774141 122.11815106148126
158.86527298295658 3.219172163942335 0.1664119805341341 0.07388078486914754 324.6608118435546 124.01003694966207
164.53733520637863 3.6547355939838426 0.17222849479519628 0.08003547718389081 325.5190968335605 125.96563778643767
170.4244790514288 4.145740845861174 0.17824831075389239 0.0868529844855449 326.4526563846883 127.98699818273994
176.53631225317216 4.698462512306701 0.18447853431221173 0.09382020158110449 327.46672096984696 130.0757416868159
182.8813754413206 5.316058719226849 0.19092651974116215 0.10090610940848843 328.5630444196908 132.23321948878043
189.47003531795517 6.005327445562022 0.19759987836188778 0.10878861147005087 329.74707517392477 134.4600859855788
196.31596471295904 6.779778757210621 0.2045064875302128 0.11740966184855067 331.0300349266862 136.75533593637135
203.43050851080594 7.646768440999467 0.2116544999352168 0.12608946577877583 332.4166501261103 139.11816799894396
210.8244028704521 8.611548461528256 0.2190523532228215 0.1349022716417198 333.9096258088783 141.54800776113123
218.51074020607123 9.683761637930058 0.2267087799557421 0.144675685399567 335.51527196244086 144.04316211894482
226.5082297443755 10.883905458890382 0.2346328179215674 0.15515575564888284 337.2475539070624 146.5980221258686
234.82991040706085 12.219142432571214 0.24283382080112978 0.165468793415954 339.10915812779723 149.21047258606862
243.4895649756236 13.697245910404929 0.251321469209763 0.17584512352042914 341.1031533419793 151.87844925539375
252.5038440061727 15.330749682934059 0.2601057821244808 0.18722157626269964 343.23564238728784 154.59823272020708
261.8986645589929 17.148496170258692 0.2691971287105613 0.1990941783168373 345.52172126130665 157.35874279741
271.6882403462793 19.154773742642355 0.2786062405615009 0.21042316819891171 347.9601724040327 160.15923345514636
281.89049785111735 21.359861900727388 0.28834422436678714 0.22164620815909453 350.553435966267 162.99688619016126
292.5265475405733 23.778386588672046 0.29842257502243846 0.2337246132981532 353.30588629997703 165.86712739404365
303.63223194734013 26.447522162853414 0.3088531891997931 0.24592594617416275 356.23075742095136 168.75397623493998
315.221644345916 29.365222005850605 0.3196483793885593 0.2571506414649065 359.3222217150829 171.66146423910627
327.3182001354512 32.54397588998893 0.3308208884307057 0.2680601823279971 362.5812187590644 174.58688764206116
339.94834281111105 35.99922256647753 0.34238390456234696 0.27953912812815473 366.0093102394057 177.52639819239948
353.1609909336148 39.77515980981052 0.35435107698138235 0.29073954455728535 369.6146067251103 180.46095093582716
366.9678973380775 43.86090014922628 0.36673653195926065 0.30065088098701787 373.38857293297076 183.40165313600272
381.39961501803265 48.271172544303795 0.37955488951589167 0.3105407308338153 377.3304189270836 219.3686103105576
410.6537029129722 57.61735509552421 0.4051018746822645 0.07281804580917954 381.43924800134255 205.0409852309352
417.8794978609142 58.161566075540556 0.43206178138293894 0.07781201882373508 385.715199445606 190.13059883012681
477.20377025620957 63.99388060389461 0.6461642671611288 0.11335839386146185 390.1519632333736 175.8913682315686
529.9332561881546 70.67638089409682 0.8352692974229878 0.14261147510498484 394.74706680995223 162.38585851822106
577.5468805099104 78.1493644991577 1.0048714484871075 0.17336194266474514 399.4973996827608 149.55732724089256
621.1992931179284 86.37382862585257 1.1589630967677418 0.20562424900302867 404.39704715862416 137.378356065564
661.7091430446704 95.3508552124134 1.3002033717330699 0.2394876824760328 409.443966892103 125.8606185478284
699.7408588921637 105.09762694880757 1.4306064798432214 0.27105288010546236 414.635064288593 115.03544597334486
736.329865905362 115.5351998916477 1.5536125689526563 0.29981091917031977 419.965155467323 104.76315406202649
771.8469565372998 126.68509569815491 1.6705477084906573 0.3259958130881879 425.42575827814784 95.14054198609885
806.997971381146 138.56391823652078 1.7849916260750966 0.34807674214740003 431.0191767573046 86.07449387802804
842.1585546911406 151.15912179193813 1.8984240091737314 0.36811652240796877 436.7425864142945 77.49179042878394
877.4908551880258 164.51692078521825 2.0114819490662494 0.3858530863398837 442.58863755631796 69.43832739320686
913.2444407782771 178.59443403582344 2.1254795858471587 0.401048021758744 448.5493841174104 61.82770966083075
949.6482921928532 193.46511269478046 2.2419335291145415 0.41453190337789847 454.6305491184618 54.669394349277695
986.898699053292 209.1368192004132 2.363158045094248 0.42580114155602145 460.8299726039833 47.91333279901488
1025.084491669504 225.59557202451774 2.492201508295696 0.43616458370169475 467.1378280933174 41.520579866857105
1064.348916234246 242.9291209184663 2.637932291061893 0.4468259644215338 473.54898535308183 35.502913125847186
1104.6160136183053 261.1432254408911 2.809004674665894 0.46238737464079094 480.071280830431 29.740788239006502
1145.0881126445686 280.2660391284786 2.9283354948053897 0.4740792732875394 486.70328412661297 24.255617139846986
1187.1593978456417 300.2805043439741 3.014276672407636 0.474275971911176 493.4322960810193 19.25771601221019
1231.3375573870157 321.1658090530937 3.103254086066854 0.47131060076583076 500.25755711425035 14.676720708299843
1277.79128544064 342.9895456857932 3.1955206054593606 0.4683637246933614 507.1877539542807 10.47492184734704
1326.6400913643392 365.7950252756753 3.2912104845118804 0.4654172021540348 514.2221043128914 6.626243163456974
1377.9280209184212 389.5876984695659 3.3902786951535315 0.4624757659252987 521.3446486630854 3.119916633255837
1431.8261766159965 414.43339511596105 3.4929335240764146 0.45960958177225164 528.5600614898749 0.2503725199007103
1488.4736294804284 440.38782061525666 3.5993606993058167 0.45682914417934484 535.8768235754889 0.0
1548.0097373687413 467.5014602866916 3.709693832511922 0.4540903683076478 543.2946808831524 0.0
1610.4156575319855 495.7527346103877 3.823771780515398 0.4514025565491795 550.7940656725807 0.0
1675.920781395834 525.2325791641302 3.941887440503953 0.44876337730265004 558.3858568647358 0.0
1744.7423201995373 556.0249478888406 4.064296675875956 0.4461713083359 566.0774961051789 0.0
1817.044224432781 588.1888743423588 4.1911492393457435 0.44362748778130134 573.8691457199808 0.0
1892.7649763941595 621.6832691095966 4.322199791887884 0.4411402647885603 581.7373188974098 0.0
1972.233980969728 656.6401003639055 4.45787964800582 0.43870451668526567 589.6997099959373 0.0
2055.6857742846773 693.1477604001494 4.5984393564640484 0.4363191479276698 597.7620710944946 0.0
2143.3121984977365 731.2749529511053 4.744046538496444 0.4339838767599913 605.9248908074412 0.0
2234.994740632442 770.9556083445939 4.89435428324553 0.43170247467217804 614.160475058444 0.0
2331.2069538377223 812.3793496521823 5.049979489948649 0.4294371340353531 622.493868083454 0.0
2432.304963436057 855.6768388350815 5.211265352514189 0.42721875881377347 630.9286144231583 0.0
2538.4155407754206 900.8919200218241 5.378298812786464 0.42500695365474606 639.4654611461091 0.0
