e[MeV/fm^3], P[MeV/fm^3], rho[fm^-3], v2[1], mu_q[MeV], mu_e[MeV]
71.58195607221194 0.019376260638347076 0.07551183166112621 0.01806185032450322 316.57195128971085 89.92341642585284
74.10016491175249 0.06485977178396946 0.07815115873557246 0.01806185032450326 316.72146406873105 91.024765790619
76.70639143836377 0.11193304521937247 0.08088273688183939 0.018061850324503265 316.876202692721 92.16461006582368
79.40371208999426 0.16065164710631397 0.08370979050524349 0.018061850324503224 317.0363498180116 93.34429474471072
82.19531083378259 0.21107308578268988 0.08663565671212049 0.018061850324503186 317.2020944852288 94.56521234887349
85.08448292446792 0.26325687964638034 0.08966378924900394 0.018061850324503227 317.3736323424404 95.82880407201151
88.0746387941701 0.317264627411876 0.09279776257949199 0.018061850324503234 317.55116587610246 97.13656148114251
91.1693080781302 0.37316008082260077 0.09604127610361388 0.0180618503245032 317.7349046500787 98.49002827727713
94.37214378115249 0.4310092199045644 0.09939815852466523 0.018088487354544512 317.9250655530129 99.89080211763012
97.6869757993967 0.49106090179612444 0.10287237236868205 0.019255301458732603 318.1222990017657 101.33984570908403
101.11986451800226 0.5612123980307122 0.10646801866188291 0.021662464342603646 318.3451487000273 102.80997251328064
104.67528624500615 0.6427510757917515 0.11018934177159138 0.024237271178381786 318.59574432277356 104.30486344182296
108.35791622476958 0.736980624741799 0.11404073441636543 0.026920267095794273 318.8759904930379 105.82396075340817
112.1727714362078 0.844944139362974 0.11802674285124978 0.029903169158792375 319.1863342944128 107.33131489870814
116.12536221854529 0.9697012467608513 0.12215207223425231 0.033128604049492305 319.53184301002517 108.83594926945497
120.22058430169312 1.1120115025052542 0.12642159218040233 0.03642699727296762 319.9131521806471 110.36057643612367
124.4640269233187 1.2739597956119093 0.130840342509936 0.04005797794488111 320.3330553238233 111.91312631407268
128.8618971317408 1.458760515403257 0.13541353919739 0.044167339746025575 320.79588975142224 113.49907969978847
133.4208715816421 1.6702641954106736 0.1401465805286361 0.04845346643322773 321.30651694759945 115.12367962053304
138.14674713038173 1.9093441223752088 0.14504505347311691 0.052773525840877133 321.864973007233 116.79378000164584
143.046301157445 2.1790046101745664 0.1501147402788089 0.057528169039875315 322.47450701812625 118.51374226197309
148.1273960447996 2.4844335534151987 0.15536162529769304 0.06284216502195894 323.1410092423423 120.28727240461446
153.3980665613772 2.830586859448035 0.16079190204979565 0.06832610081857435 323.8695330774141 122.11815106148126
158.86527298295658 3.219172163942335 0.1664119805341341 0.07388078486914754 324.6608118435546 752.6592609674785
164.53733520637863 3.6547355939838426 0.17222849479519628 0.08003547718389081 325.5190968335605 737.1912287330814
170.4244790514288 4.145740845861174 0.17824831075389239 0.0868529844855449 326.4526563846883 720.3665965914035
176.53631225317216 4.698462512306701 0.18447853431221173 0.09382020158110449 327.46672096984696 702.0911008369146
182.8813754413206 5.316058719226849 0.19092651974116215 0.10090610940848843 328.5630444196908 682.3331338924002
189.47003531795517 6.005327445562022 0.19759987836188778 0.10878861147005087 329.74707517392477 660.9945038496194
196.31596471295904 6.779778757210621 0.2045064875302128 0.11740966184855067 331.0300349266862 637.8729730734483
203.43050851080594 7.646768440999467 0.2116544999352168 0.12608946577877583 332.4166501261103 612.883361404661
210.8244028704521 8.611548461528256 0.2190523532228215 0.1349022716417198 333.9096258088783 585.9769186087008
218.51074020607123 9.683761637930058 0.2267087799557421 0.144675685399567 335.51527196244086 557.0399259436301
226.5082297443755 10.883905458890382 0.2346328179215674 0.15515575564888284 337.2475539070624 525.8207000798701
234.82991040706085 12.219142432571214 0.24283382080112978 0.165468793415954 339.10915812779723 492.27082512071826
243.4895649756236 13.697245910404929 0.251321469209763 0.17584512352042914 341.1031533419793 456.3349965703569
252.5038440061727 15.330749682934059 0.2601057821244808 0.18722157626269964 343.23564238728784 417.9032289448933
261.8986645589929 17.148496170258692 0.2691971287105613 0.1990941783168373 345.52172126130665 376.70346182155953
271.6882403462793 19.154773742642355 0.2786062405615009 0.21042316819891171 347.9601724040327 332.7576380953076
281.89049785111735 21.359861900727388 0.28834422436678714 0.22164620815909453 350.553435966267 286.02178131112845
292.5265475405733 23.778386588672046 0.29842257502243846 0.23313254119975158 353.30588629997703 236.41705679519603
310.8210281588685 28.232558247218268 0.3155951378790668 0.0034670660555160063 356.23075742095136 183.70496080435797
700.9188485550767 31.077994764224513 1.6183822731132795 0.011121257017482598 359.3222217150829 128.74557850344857
1212.3679466229075 39.332211358074254 3.3940404689858488 0.15779125516458797 362.5812187590644 73.83066964479418
1282.6481332990124 51.78981386019199 3.6393499985319684 0.47298336327899193 366.0093102394057 22.24198412647408
1305.9302579440719 65.08275682053653 3.7092166497684533 0.7000230705340065 369.6146067251103 2.839347909896519
1323.5900769459147 79.17399186650593 3.7567652825874145 0.7968093184631686 373.38857293297076 0.0
1342.326928247626 94.081483332178 3.8066882099423394 0.7941574609505773 377.3304189270836 0.0
1362.1934776090984 109.82775678020059 3.8590671413972983 0.7910864187069788 381.43924800134255 0.0
1383.2348542209143 126.43952078566235 3.9139483813865192 0.7877747229589782 385.715199445606 0.0
1405.502649935376 143.94132118466538 3.9713338602092088 0.7842956094065276 390.1519632333736 0.0
1429.0142723081506 162.33983793905654 4.031220782519883 0.7808607023070384 394.74706680995223 0.0
1453.790689844987 181.64322138199077 4.093604803515194 0.7774130830541912 399.4973996827608 0.0
1479.8462494678472 201.85284689852125 4.158452632431877 0.7738294392708673 404.39704715862416 0.0
1507.246347035322 223.00379976934067 4.225812451965952 0.7699518622967796 409.443966892103 0.0
1536.0748000266035 245.14032633223732 4.295741969554376 0.7661054505511635 414.635064288593 0.0
1566.2777289225567 268.2230947075818 4.368144467168662 0.7622751700705384 419.965155467323 0.0
1597.927588250532 292.2833015642508 4.443022648640859 0.7582091184866089 425.42575827814784 0.0
1631.0923069016958 317.3599241692131 4.5204598604152055 0.7542010091551283 431.0191767573046 0.0
1665.7798000862474 343.45151879596256 4.6004387614267435 0.7500512740934395 436.7425864142945 0.0
1702.0865405433399 370.6021507788799 4.682992622524562 0.7458390853010632 442.58863755631796 0.0
1739.9476313251093 398.76252033780236 4.767990586675294 0.7416356589712958 448.5493841174104 0.0
1779.5330442223005 428.03167168113424 4.855641403416195 0.7372845578291694 454.6305491184618 0.0
1820.8727851853816 458.4198272367047 4.9459525685826735 0.7330385150338623 460.8299726039833 0.0
1863.9323864386731 489.89246017357783 5.038807071671805 0.7285976119968298 467.1378280933174 0.0
1908.874106767535 522.5284907613137 5.134314578723585 0.7241019530606474 473.54898535308183 0.0
1955.7035042738553 556.3360740812691 5.232538982593655 0.7198099813880372 480.071280830431 0.0
2004.5007031712375 591.3529473655185 5.333540109476372 0.715257761376642 486.70328412661297 0.0
2055.372666762412 627.6152900209598 5.4373085146235285 0.7106456482418588 493.4322960810193 0.0
2108.287644785917 665.0996401457812 5.543800824440989 0.7062039674141589 500.25755711425035 0.0
2163.4019444004366 703.8961868159512 5.653229519884263 0.7017230433303165 507.1877539542807 0.0
2220.8085826371675 744.0478517756825 5.7656677306598345 0.6971630326072971 514.2221043128914 0.0
2280.501557601287 785.5231568692594 5.880967666791097 0.6925247069216578 521.3446486630854 0.0
2342.6280930794933 828.3995205912847 5.9992956339015855 0.6879184501732798 528.5600614898749 0.0
2407.316214805487 872.749653285653 6.120831711592512 0.6833630373499835 535.8768235754889 0.0
2474.6738202007023 918.6225039175895 6.245662424600159 0.6787916851984273 543.2946808831524 0.0
2544.629760692454 965.9450667245954 6.373544622573648 0.6742219611832949 550.7940656725807 0.0
2617.3916825396136 1014.8331955879138 6.504748306998077 0.669652145143318 558.3858568647358 0.0
2693.1479529611747 1065.3869049942768 6.6394949816859725 0.6650818831265886 566.0774961051789 0.0
2772.0241314059303 1117.6621799174357 6.777885084283866 0.6605155697901033 573.8691457199808 0.0
2853.900485597598 1171.5527865370564 6.9195923326920985 0.6559709890575354 581.7373188974098 0.0
2939.0805049441624 1227.2313232847532 7.065025989247506 0.6514418023773327 589.6997099959373 0.0
3027.7589203285966 1284.7956193099842 7.214392265842129 0.6469288936981332 597.7620710944946 0.0
3120.081216760399 1344.30950288365 7.367805721392455 0.642434675930402 605.9248908074412 0.0
3215.8669063442303 1405.6272082209848 7.524843409115754 0.6379693909955906 614.160475058444 0.0
3315.5519292681083 1468.9964410942903 7.686088856628328 0.633459674357737 622.493868083454 0.0
3419.4183503445392 1534.5497572536158 7.85179434482104 0.6289714397963211 630.9286144231583 0.0
3527.556318829009 1602.3223187153746 8.022022722878699 0.6244747347818844 639.4654611461091 0.0
