e[MeV/fm^3], P[MeV/fm^3], rho[fm^-3], v2[1], mu_q[MeV], mu_e[MeV]
71.58195607221194 0.019376260638347076 0.07551183166112621 0.01806185032450322 316.57195128971085 89.92341642585284
74.10016491175249 0.06485977178396946 0.07815115873557246 0.01806185032450326 316.72146406873105 91.024765790619
76.70639143836377 0.11193304521937247 0.08088273688183939 0.018061850324503265 316.876202692721 92.16461006582368
79.40371208999426 0.16065164710631397 0.08370979050524349 0.018061850324503224 317.0363498180116 93.34429474471072
82.19531083378259 0.21107308578268988 0.08663565671212049 0.018061850324503186 317.2020944852288 94.56521234887349
85.08448292446792 0.26325687964638034 0.08966378924900394 0.018061850324503227 317.3736323424404 95.82880407201151
88.0746387941701 0.317264627411876 0.09279776257949199 0.018061850324503234 317.55116587610246 97.13656148114251
91.1693080781302 0.37316008082260077 0.09604127610361388 0.0180618503245032 317.7349046500787 98.49002827727713
94.37214378115249 0.4310092199045644 0.09939815852466523 0.018088487354544512 317.9250655530129 99.89080211763012
97.6869757993967 0.49106090179612444 0.10287237236868205 0.019255301458732603 318.1222990017657 101.33984570908403
101.11986451800226 0.5612123980307122 0.10646801866188291 0.021662464342603646 318.3451487000273 102.80997251328064
104.67528624500615 0.6427510757917515 0.11018934177159138 0.024237271178381786 318.59574432277356 104.30486344182296
108.35791622476958 0.736980624741799 0.11404073441636543 0.026920267095794273 318.8759904930379 105.82396075340817
112.1727714362078 0.844944139362974 0.11802674285124978 0.029903169158792375 319.1863342944128 107.33131489870814
116.12536221854529 0.9697012467608513 0.12215207223425231 0.033128604049492305 319.53184301002517 108.83594926945497
120.22058430169312 1.1120115025052542 0.12642159218040233 0.03642699727296762 319.9131521806471 110.36057643612367
124.4640269233187 1.2739597956119093 0.130840342509936 0.04005797794488111 320.3330553238233 111.91312631407268
128.8618971317408 1.458760515403257 0.13541353919739 0.044167339746025575 320.79588975142224 113.49907969978847
133.4208715816421 1.6702641954106736 0.1401465805286361 0.04845346643322773 321.30651694759945 115.12367962053304
138.14674713038173 1.9093441223752088 0.14504505347311691 0.052773525840877133 321.864973007233 116.79378000164584
143.046301157445 2.1790046101745664 0.1501147402788089 0.057528169039875315 322.47450701812625 118.51374226197309
148.1273960447996 2.4844335534151987 0.15536162529769304 0.06284216502195894 323.1410092423423 120.28727240461446
153.3980665613772 2.830586859448035 0.16079190204979565 0.06832610081857435 323.8695330774141 122.11815106148126
158.86527298295658 3.219172163942335 0.1664119805341341 0.07388078486914754 324.6608118435546 124.01003694966207
164.53733520637863 3.6547355939838426 0.17222849479519628 0.08003547718389081 325.5190968335605 125.96563778643767
170.4244790514288 4.145740845861174 0.17824831075389239 0.0868529844855449 326.4526563846883 127.98699818273994
176.53631225317216 4.698462512306701 0.18447853431221173 0.09382020158110449 327.46672096984696 130.0757416868159
182.8813754413206 5.316058719226849 0.19092651974116215 0.10090610940848843 328.5630444196908 132.23321948878043
189.47003531795517 6.005327445562022 0.19759987836188778 0.10878861147005087 329.74707517392477 134.4600859855788
196.31596471295904 6.779778757210621 0.2045064875302128 0.11740966184855067 331.0300349266862 136.75533593637135
203.43050851080594 7.646768440999467 0.2116544999352168 0.12608946577877583 332.4166501261103 139.11816799894396
210.8244028704521 8.611548461528256 0.2190523532228215 0.1349022716417198 333.9096258088783 141.54800776113123
218.51074020607123 9.683761637930058 0.2267087799557421 0.144675685399567 335.51527196244086 144.04316211894482
226.5082297443755 10.883905458890382 0.2346328179215674 0.15515575564888284 337.2475539070624 146.5980221258686
234.82991040706085 12.219142432571214 0.24283382080112978 0.165468793415954 339.10915812779723 149.21047258606862
243.4895649756236 13.697245910404929 0.251321469209763 0.17584512352042914 341.1031533419793 151.87844925539375
252.5038440061727 15.330749682934059 0.2601057821244808 0.18722157626269964 343.23564238728784 154.59823272020708
261.8986645589929 17.148496170258692 0.2691971287105613 0.1990941783168373 345.52172126130665 157.35874279741
271.6882403462793 19.154773742642355 0.2786062405615009 0.21042316819891171 347.9601724040327 160.15923345514636
281.89049785111735 21.359861900727388 0.28834422436678714 0.22164620815909453 350.553435966267 162.99688619016126
292.5265475405733 23.778386588672046 0.29842257502243846 0.23313254119975158 353.30588629997703 165.86712739404365
303.8791987454594 26.50881045413274 0.30896249516319646 0.0426345721029357 356.23075742095136 168.05970503851913
362.91320435680194 29.629361903227398 0.531627037568232 0.06308589923486191 359.3222217150829 154.1488469395509
414.8819923021305 33.375674925376565 0.7262641750475822 0.08585685755700323 362.5812187590644 140.6283787386324
460.37039362213073 37.829398311408 0.8973096370506177 0.11000173952783138 366.0093102394057 127.610377436028
502.3578097287931 42.9167523319048 1.0549856270181364 0.13398245250533614 369.6146067251103 114.8222265341739
541.5084927577931 48.630210266373695 1.2006912628964266 0.1575352247406504 373.38857293297076 102.30846335352024
579.1414859099754 54.978357641831074 1.339916676843862 0.17867936301516774 377.3304189270836 90.04669300184796
616.3099395076363 61.98645751663848 1.4772026358115047 0.1974400419400114 381.43924800134255 77.94581886987942
653.6128461675748 69.68438113234181 1.6147633187625248 0.21490464406870302 385.715199445606 65.94874026817702
691.3972353321361 78.13134490637134 1.7537782261530408 0.23058693034226807 390.1519632333736 54.07410474045647
730.1233119893666 87.34009961429702 1.8960529751137913 0.24349185538620444 394.74706680995223 42.256458749064365
770.1988746500929 97.33455381267217 2.0437372026960317 0.2522086518536979 399.4973996827608 30.452440462315845
812.5755967668697 108.14862283684619 2.204967804616821 0.2563477329164836 404.39704715862416 18.6224952461594
858.1703859620002 119.89359290893215 2.388701662723457 0.29925634255353195 409.443966892103 6.752013803093282
896.0848104272379 132.55322913971335 2.480667926974484 0.3338948291947401 414.635064288593 0.0
936.4188953216383 146.02033845046896 2.5773467248376094 0.33387840558078286 419.965155467323 0.0
979.4063600787224 160.3724369393924 2.6790367713131125 0.333856894611986 425.42575827814784 0.0
1025.2107177178034 175.66404139474093 2.785975740860984 0.3338367208148896 431.0191767573046 0.0
1073.884761403371 191.91274132893506 2.898191582863539 0.33381691859135865 436.7425864142945 0.0
1125.724137481833 209.21705690947582 3.016051829686211 0.33379773940820634 442.58863755631796 0.0
1180.6406467940462 227.54755965037927 3.1393262121088976 0.3337796038683669 448.5493841174104 0.0
1239.0348426309918 247.03779489938162 3.2686115114094836 0.3337617159036905 454.6305491184618 0.0
1301.0183931208737 267.7249809534252 3.4040072321479937 0.33374510634958976 460.8299726039833 0.0
1366.5914179295257 289.6091205555971 3.5453971855476585 0.33372862551371774 467.1378280933174 0.0
1436.2242711098263 312.8469833086568 3.69336323934973 0.3337126924587772 473.54898535308183 0.0
1509.9025529123257 337.4338059839156 3.847887497501367 0.3336982392008856 480.071280830431 0.0
1587.865549365955 363.4493498381266 4.009242309101585 0.3336836536076433 486.70328412661297 0.0
1670.5125745172088 391.02667470176726 4.177810980797715 0.33366954395309767 493.4322960810193 0.0
1757.7968746536437 420.15019654347196 4.353455440360441 0.33365661715915707 500.25755711425035 0.0
1850.0919767874834 450.94446708670193 4.536688850286261 0.3336441675445059 507.1877539542807 0.0
1947.6807179746402 483.50376871125184 4.72781227255015 0.33363207782436577 514.2221043128914 0.0
2050.706574432334 517.8758671856007 4.926795977921148 0.3336203420018622 521.3446486630854 0.0
2159.563803466191 554.1922089902882 5.134111709519779 0.3336092109092488 528.5600614898749 0.0
2274.5649532652246 592.5570184332079 5.350157509788805 0.33359869696545363 535.8768235754889 0.0
2396.042867992426 633.0812501016038 5.575267442293406 0.3335886049831607 543.2946808831524 0.0
2524.0076020008514 675.7681796611798 5.809171938056494 0.33357895085192224 550.7940656725807 0.0
2658.9777038133343 720.790710653057 6.052528343553113 0.3335697074287247 558.3858568647358 0.0
2801.4522214124217 768.3152323397615 6.305924869452648 0.3335608516427637 566.0774961051789 0.0
2951.8240108857112 818.4727058523683 6.569734217152763 0.33355237043327923 573.8691457199808 0.0
3110.0163448376434 871.2374623926448 6.843503241193045 0.3335442746074304 581.7373188974098 0.0
3276.768687420538 926.8560745545357 7.128188582923198 0.3335365309575966 589.6997099959373 0.0
3452.628320011216 985.5110031247613 7.424376642731182 0.3335291207846418 597.7620710944946 0.0
3638.056328497233 1047.355954538157 7.732482512027009 0.3335220289065579 605.9248908074412 0.0
3832.856062861033 1112.325266510146 8.051828038796303 0.3335152532547716 614.160475058444 0.0
4038.090925959862 1180.7735254019535 8.383783269425885 0.33350867342937507 622.493868083454 0.0
4254.6051794644745 1252.982181278142 8.729180821808558 0.3335023668704391 630.9286144231583 0.0
4482.709341041602 1329.054748848381 9.088232653516137 0.3334961398141232 639.4654611461091 0.0
