e[MeV/fm^3], P[MeV/fm^3], rho[fm^-3], v2[1], mu_q[MeV], mu_e[MeV]
71.58195607221194 0.019376260638347076 0.07551183166112621 0.01806185032450322 316.57195128971085 89.92341642585284
74.10016491175249 0.06485977178396946 0.07815115873557246 0.01806185032450326 316.72146406873105 91.024765790619
76.70639143836377 0.11193304521937247 0.08088273688183939 0.018061850324503265 316.876202692721 92.16461006582368
79.40371208999426 0.16065164710631397 0.08370979050524349 0.018061850324503224 317.0363498180116 93.34429474471072
82.19531083378259 0.21107308578268988 0.08663565671212049 0.018061850324503186 317.2020944852288 94.56521234887349
85.08448292446792 0.26325687964638034 0.08966378924900394 0.018061850324503227 317.3736323424404 95.82880407201151
88.0746387941701 0.317264627411876 0.09279776257949199 0.018061850324503234 317.55116587610246 97.13656148114251
91.1693080781302 0.37316008082260077 0.09604127610361388 0.0180618503245032 317.7349046500787 98.49002827727713
94.37214378115249 0.4310092199045644 0.09939815852466523 0.018088487354544512 317.9250655530129 99.89080211763012
97.6869757993967 0.49106090179612444 0.10287237236868205 0.019255301458732603 318.1222990017657 101.33984570908403
101.11986451800226 0.5612123980307122 0.10646801866188291 0.021662464342603646 318.3451487000273 102.80997251328064
104.67528624500615 0.6427510757917515 0.11018934177159138 0.024237271178381786 318.59574432277356 104.30486344182296
108.35791622476958 0.736980624741799 0.11404073441636543 0.026920267095794273 318.8759904930379 105.82396075340817
112.1727714362078 0.844944139362974 0.11802674285124978 0.029903169158792375 319.1863342944128 107.33131489870814
116.12536221854529 0.9697012467608513 0.12215207223425231 0.033128604049492305 319.53184301002517 108.83594926945497
120.22058430169312 1.1120115025052542 0.12642159218040233 0.03642699727296762 319.9131521806471 110.36057643612367
124.4640269233187 1.2739597956119093 0.130840342509936 0.04005797794488111 320.3330553238233 111.91312631407268
128.8618971317408 1.458760515403257 0.13541353919739 0.044167339746025575 320.79588975142224 113.49907969978847
133.4208715816421 1.6702641954106736 0.1401465805286361 0.04845346643322773 321.30651694759945 115.12367962053304
138.14674713038173 1.9093441223752088 0.14504505347311691 0.052773525840877133 321.864973007233 116.79378000164584
143.046301157445 2.1790046101745664 0.1501147402788089 0.057528169039875315 322.47450701812625 118.51374226197309
148.1273960447996 2.4844335534151987 0.15536162529769304 0.06284216502195894 323.1410092423423 120.28727240461446
153.3980665613772 2.830586859448035 0.16079190204979565 0.06832610081857435 323.8695330774141 122.11815106148126
158.86527298295658 3.219172163942335 0.1664119805341341 0.07388078486914754 324.6608118435546 124.01003694966207
164.53733520637863 3.6547355939838426 0.17222849479519628 0.08003547718389081 325.5190968335605 125.96563778643767
170.4244790514288 4.145740845861174 0.17824831075389239 0.0868529844855449 326.4526563846883 127.98699818273994
176.53631225317216 4.698462512306701 0.18447853431221173 0.09382020158110449 327.46672096984696 130.0757416868159
182.8813754413206 5.316058719226849 0.19092651974116215 0.10090610940848843 328.5630444196908 132.23321948878043
189.47003531795517 6.005327445562022 0.19759987836188778 0.10878861147005087 329.74707517392477 134.4600859855788
196.31596471295904 6.779778757210621 0.2045064875302128 0.11740966184855067 331.0300349266862 136.75533593637135
203.43050851080594 7.646768440999467 0.2116544999352168 0.12608946577877583 332.4166501261103 139.11816799894396
210.8244028704521 8.611548461528256 0.2190523532228215 0.1349022716417198 333.9096258088783 141.54800776113123
218.51074020607123 9.683761637930058 0.2267087799557421 0.144675685399567 335.51527196244086 144.04316211894482
226.5082297443755 10.883905458890382 0.2346328179215674 0.15515575564888284 337.2475539070624 146.5980221258686
234.82991040706085 12.219142432571214 0.24283382080112978 0.165468793415954 339.10915812779723 149.21047258606862
243.4895649756236 13.697245910404929 0.251321469209763 0.17584512352042914 341.1031533419793 151.87844925539375
252.5038440061727 15.330749682934059 0.2601057821244808 0.18722157626269964 343.23564238728784 154.59823272020708
261.8986645589929 17.148496170258692 0.2691971287105613 0.1990941783168373 345.52172126130665 157.35874279741
271.6882403462793 19.154773742642355 0.2786062405615009 0.21042316819891171 347.9601724040327 160.15923345514636
281.89049785111735 21.359861900727388 0.28834422436678714 0.22164620815909453 350.553435966267 162.99688619016126
292.5265475405733 23.778386588672046 0.29842257502243846 0.2337246132981532 353.30588629997703 165.86712739404365
303.63223194734013 26.447522162853414 0.3088531891997931 0.24592594617416275 356.23075742095136 168.75397623493998
315.221644345916 29.365222005850605 0.3196483793885593 0.2571506414649065 359.3222217150829 171.66146423910627
327.3182001354512 32.54397588998893 0.3308208884307057 0.2680601823279971 362.5812187590644 174.58688764206116
339.94834281111105 35.99922256647753 0.34238390456234696 0.27953912812815473 366.0093102394057 177.52639819239948
353.1609909336148 39.77515980981052 0.35435107698138235 0.29073954455728535 369.6146067251103 180.46095093582716
366.9678973380775 43.86090014922628 0.36673653195926065 0.30065088098701787 373.38857293297076 183.40165313600272
381.39961501803265 48.271172544303795 0.37955488951589167 0.31015245142971803 377.3304189270836 186.34635558829183
396.4906533657989 53.02360113792524 0.3928212806773882 0.31982610479761786 381.43924800134255 189.29179087628498
412.3008527606959 58.16142376409454 0.40655136533700936 0.3301116344857489 385.715199445606 192.22134084195403
433.0765334329337 65.0973731801178 0.4242856216581011 0.08662015062649131 390.1519632333736 199.04341711654953
479.9705880965877 69.76449481332111 0.5935313995718282 0.11242945882519984 394.74706680995223 184.63947195420124
534.3909856072958 76.69794013326472 0.7869744183499976 0.14521904286813248 399.4973996827608 171.13039498808274
582.4347608160946 84.43037039948449 0.9565822862217046 0.18119882124801134 404.39704715862416 158.50163894160204
625.1458538551503 92.93859451358281 1.1058714456799543 0.22196482128973916 409.443966892103 146.78340990581182
663.4223832704985 102.21538532437387 1.2376485073332713 0.2621459983479937 414.635064288593 136.02838724359887
698.8886534938061 112.16286209487787 1.3576328990584299 0.3018707346753666 419.965155467323 126.05056964565436
731.9168020577393 122.79111104497156 1.4667010132593659 0.34194571583494016 425.42575827814784 116.93519170651544
763.21177443976 134.08985644258917 1.5670265665125938 0.37869638239321235 431.0191767573046 108.6306207685594
793.3666861987552 146.02243509027264 1.660230415445744 0.41247862154376724 436.7425864142945 101.08671998029199
822.7282887332358 158.61288966235304 1.747941957839536 0.44201386802206155 442.58863755631796 94.3555442617749
851.7400715644945 171.81509579874665 1.8319463870486867 0.46759422582579413 448.5493841174104 88.30916450898282
880.6180203312907 185.67844757745843 1.912444385283783 0.4902484356461456 454.6305491184618 82.97892656649515
909.6267166601044 200.1966014105208 1.9900282544428947 0.5086432821009308 460.8299726039833 78.31352344867526
938.9323377897967 215.34450841340683 2.0650236707878293 0.5239860037595729 467.1378280933174 74.27288077581906
968.7223136040382 231.16879371440936 2.1371967972430435 0.5357887852111198 473.54898535308183 70.91562848275383
999.232416565773 247.6593106004122 2.2072424995528737 0.5436844265283689 480.071280830431 68.13693892513437
1030.635304870612 264.83570358230185 2.2752012059934676 0.5487822323354288 486.70328412661297 65.93125938152168
1063.1231459153153 282.7254111334538 2.3407607583870913 0.5509516467531137 493.4322960810193 64.33927515989012
1096.8381603835116 301.31100878593236 2.4043052638652993 0.5504859879787327 500.25755711425035 63.28897332701822
1132.004607066459 320.6414075342381 2.466015807519458 0.5480157557955834 507.1877539542807 62.76547100545333
1168.8042983577398 340.7440136990408 2.5259998580959087 0.543835240383121 514.2221043128914 62.7571681428541
1207.3571172830525 361.6120140198427 2.584236169876373 0.538275985717946 521.3446486630854 63.257710532277784
1247.8749778059657 383.2937410756328 2.6409415732549886 0.5318328252574718 528.5600614898749 64.252314656964
1290.5328238822112 405.833165157539 2.6964230892458465 0.5248621852237321 535.8768235754889 65.71306636616117
1335.4980370084313 429.2671128727749 2.750828893949446 0.5175018479394877 543.2946808831524 67.62729167056715
1382.8140989330486 453.57125956477546 2.8041543463726284 0.5099390351826649 550.7940656725807 69.97564243303233
1432.7094233344542 478.8193003969793 2.856595187956519 0.502288435733039 558.3858568647358 72.74666129209032
1485.4032105531148 505.0791119704514 2.9082917690533714 0.4946356460357997 566.0774961051789 75.92998973942684
1541.0745137730062 532.3978088394592 2.9593126785523127 0.487053152133198 573.8691457199808 79.51333849471092
1599.7275741251196 560.7387364590791 3.009563225391707 0.47962135142419804 581.7373188974098 83.47215163383248
1661.6680927029665 590.2129020605098 3.0592076269615975 0.47237049335467596 589.6997099959373 87.80148557916678
1727.1300803993665 620.8947455553129 3.108323566165865 0.4653349484408613 597.7620710944946 92.49222085843554
1796.3145313985042 652.8428530451281 3.1569546890715006 0.4585446161821549 605.9248908074412 97.53279837979757
1869.1747885775715 686.0041524120406 3.2049841894860225 0.45184442319159857 614.160475058444 102.89310014769119
1946.1928299298438 720.5363772146773 3.252391935882748 0.444824210107555 622.493868083454 108.58419674788857
2027.847936889452 756.5519801782642 3.298821070557043 0.4379547119854239 630.9286144231583 114.60247498285639
2114.23310673234 794.1000854341758 3.344565812701096 0.43136360559621423 639.4654611461091 120.92249419295877
