e[MeV/fm^3], P[MeV/fm^3], rho[fm^-3], v2[1], mu_q[MeV], mu_e[MeV]
71.58195607221194 0.019376260638347076 0.07551183166112621 0.01806185032450322 316.57195128971085 89.92341642585284
74.10016491175249 0.06485977178396946 0.07815115873557246 0.01806185032450326 316.72146406873105 91.024765790619
76.70639143836377 0.11193304521937247 0.08088273688183939 0.018061850324503265 316.876202692721 92.16461006582368
79.40371208999426 0.16065164710631397 0.08370979050524349 0.018061850324503224 317.0363498180116 93.34429474471072
82.19531083378259 0.21107308578268988 0.08663565671212049 0.018061850324503186 317.2020944852288 94.56521234887349
85.08448292446792 0.26325687964638034 0.08966378924900394 0.018061850324503227 317.3736323424404 95.82880407201151
88.0746387941701 0.317264627411876 0.09279776257949199 0.018061850324503234 317.55116587610246 97.13656148114251
91.1693080781302 0.37316008082260077 0.09604127610361388 0.0180618503245032 317.7349046500787 98.49002827727713
94.37214378115249 0.4310092199045644 0.09939815852466523 0.018088487354544512 317.9250655530129 99.89080211763012
97.6869757993967 0.49106090179612444 0.10287237236868205 0.019255301458732603 318.1222990017657 101.33984570908403
101.11986451800226 0.5612123980307122 0.10646801866188291 0.021662464342603646 318.3451487000273 102.80997251328064
104.67528624500615 0.6427510757917515 0.11018934177159138 0.024237271178381786 318.59574432277356 104.30486344182296
108.35791622476958 0.736980624741799 0.11404073441636543 0.026920267095794273 318.8759904930379 105.82396075340817
112.1727714362078 0.844944139362974 0.11802674285124978 0.029903169158792375 319.1863342944128 107.33131489870814
116.12536221854529 0.9697012467608513 0.12215207223425231 0.033128604049492305 319.53184301002517 108.83594926945497
120.22058430169312 1.1120115025052542 0.12642159218040233 0.03642699727296762 319.9131521806471 110.36057643612367
124.4640269233187 1.2739597956119093 0.130840342509936 0.04005797794488111 320.3330553238233 111.91312631407268
128.8618971317408 1.458760515403257 0.13541353919739 0.044167339746025575 320.79588975142224 113.49907969978847
133.4208715816421 1.6702641954106736 0.1401465805286361 0.04845346643322773 321.30651694759945 115.12367962053304
138.14674713038173 1.9093441223752088 0.14504505347311691 0.052773525840877133 321.864973007233 116.79378000164584
143.046301157445 2.1790046101745664 0.1501147402788089 0.057528169039875315 322.47450701812625 118.51374226197309
148.1273960447996 2.4844335534151987 0.15536162529769304 0.06284216502195894 323.1410092423423 120.28727240461446
153.3980665613772 2.830586859448035 0.16079190204979565 0.06832610081857435 323.8695330774141 122.11815106148126
158.86527298295658 3.219172163942335 0.1664119805341341 0.07388078486914754 324.6608118435546 124.01003694966207
164.53733520637863 3.6547355939838426 0.17222849479519628 0.08003547718389081 325.5190968335605 125.96563778643767
170.4244790514288 4.145740845861174 0.17824831075389239 0.0868529844855449 326.4526563846883 127.98699818273994
176.53631225317216 4.698462512306701 0.18447853431221173 0.09382020158110449 327.46672096984696 130.0757416868159
182.8813754413206 5.316058719226849 0.19092651974116215 0.10090610940848843 328.5630444196908 132.23321948878043
189.47003531795517 6.005327445562022 0.19759987836188778 0.10878861147005087 329.74707517392477 134.4600859855788
196.31596471295904 6.779778757210621 0.2045064875302128 0.11740966184855067 331.0300349266862 136.75533593637135
203.43050851080594 7.646768440999467 0.2116544999352168 0.12608946577877583 332.4166501261103 139.11816799894396
210.8244028704521 8.611548461528256 0.2190523532228215 0.1349022716417198 333.9096258088783 141.54800776113123
218.51074020607123 9.683761637930058 0.2267087799557421 0.144675685399567 335.51527196244086 144.04316211894482
226.5082297443755 10.883905458890382 0.2346328179215674 0.15515575564888284 337.2475539070624 146.5980221258686
234.82991040706085 12.219142432571214 0.24283382080112978 0.165468793415954 339.10915812779723 149.21047258606862
243.4895649756236 13.697245910404929 0.251321469209763 0.17584512352042914 341.1031533419793 151.87844925539375
252.5038440061727 15.330749682934059 0.2601057821244808 0.18722157626269964 343.23564238728784 219.56448615747593
261.8986645589929 17.148496170258692 0.2691971287105613 0.1990941783168373 345.52172126130665 208.13873876266175
271.6882403462793 19.154773742642355 0.2786062405615009 0.21042316819891171 347.9601724040327 195.95143975560472
281.89049785111735 21.359861900727388 0.28834422436678714 0.221851386141509 350.553435966267 182.99039334246098
295.1454786303057 24.401489656622935 0.30092807654090153 0.04451460862717371 353.30588629997703 169.23373665525864
338.70695733511127 26.654922071730184 0.4660060492114534 0.058945259224311986 356.23075742095136 155.58213866976226
388.57905149136633 30.006618360154135 0.6543650823762188 0.08197310734567875 359.3222217150829 142.56432050299566
430.3228007692744 33.9444541585738 0.8143138008679078 0.11476111048203108 362.5812187590644 130.274005010606
464.81859236382854 38.485543755712555 0.9481784797318311 0.1504274408230849 366.0093102394057 118.85282049811687
495.19813357036344 43.558059040804146 1.066626566612844 0.18755980880328682 369.6146067251103 107.99576323987769
522.2797522801848 49.13452105883395 1.1720223390558784 0.22547353752746124 373.38857293297076 97.79563993453753
547.2635215763895 55.21853556598281 1.269929919545401 0.2621981479896929 377.3304189270836 88.16643166302272
570.8358283420658 61.81459305239424 1.3632593243207094 0.29753089622725803 381.43924800134255 79.05842201453265
593.4582513803612 68.92993057499658 1.4540115183536326 0.3320738498877176 385.715199445606 70.43860988690345
615.3894698045295 76.58580442061638 1.54406961717782 0.363610139595532 390.1519632333736 62.34940320676297
637.0658225412138 84.7787250479954 1.6367855944574035 0.38982709430577933 394.74706680995223 54.709667487692315
658.810581479984 93.51415554540138 1.7367953569221006 0.41093099435895186 399.4973996827608 47.46015373797417
680.9123863494682 102.80326444016508 1.8525158774030228 0.43057945000572406 404.39704715862416 40.5490180511867
703.3275755114203 112.68875485240044 1.9922322965455153 0.5016055507019508 409.443966892103 33.92616388913766
722.2805724466043 123.1666413174219 2.038540245971744 0.5513411190463726 414.635064288593 27.782561399167513
742.2735919292163 134.1581018089536 2.0866670808456296 0.5479928800269653 419.965155467323 22.193770166922576
763.3944081701749 145.69262085889812 2.136743081584741 0.5443102499451955 425.42575827814784 17.177378452003445
785.71011202813 157.7965954895256 2.1889028558454373 0.5406511107225849 431.0191767573046 12.671501508636018
809.238413727512 170.47388379796897 2.2431776860797243 0.5368905634092327 436.7425864142945 8.605821829818312
834.0850245039134 183.76342643243348 2.2996828522088038 0.5331185460000611 442.58863755631796 5.001959854544181
860.2069352288976 197.64158324367457 2.358328968671921 0.5294192130692168 448.5493841174104 1.783365599799039
887.7594217500696 212.17420164338165 2.4193368638605226 0.525651608326311 454.6305491184618 -1.043085843990122
916.7799597872174 227.37385715910887 2.4827355243672224 0.5220370653566135 460.8299726039833 -3.5148050362051255
947.2571249672279 243.22907727133898 2.548457527432471 0.518325572125053 467.1378280933174 -5.6597505773346555
979.3608249603492 259.80475009407934 2.6166828086813023 0.5146258295389932 473.54898535308183 -7.453997812609686
1013.0893553259716 277.10240999988343 2.6874281860270455 0.5111568611350523 480.071280830431 -8.956454994866371
1048.5283496245154 295.15426767812573 2.7607807036924292 0.5075419194609578 486.70328412661297 -10.173444386703611
1085.8118254248689 314.00516110970824 2.8368317523279045 0.5039370786638573 493.4322960810193 -11.087777910315298
1124.9177045753402 333.6434500344297 2.915532870565651 0.5005266946912581 500.25755711425035 -11.737423121929204
1165.9900375012087 354.12982064569934 2.9970812142291376 0.4971431347772266 507.1877539542807 -12.131193779288774
1209.129482130855 375.501787420101 3.0815753292988184 0.49375747725252817 514.2221043128914 -12.275477005524507
1254.3694307164556 397.7606702185656 3.1689587779981236 0.4903710059477069 521.3446486630854 -12.173194930303113
1301.8560290247485 420.9646119032687 3.259403158894203 0.4870631442661866 528.5600614898749 -11.831216836695628
1351.7088930599036 445.1634771377906 3.35306647172087 0.483846344838442 535.8768235754889 -11.262482621734131
1404.0459576755836 470.400894737834 3.4500598521884847 0.48067063436014923 543.2946808831524 -10.471983732748217
1458.846066999369 496.6534127047223 3.5502360290485124 0.4775472189469161 550.7940656725807 -9.467322053338176
1516.3060939650413 524.0021697903715 3.6538468289302823 0.4744737347126349 558.3858568647358 -8.252600555701221
1576.6116974534907 552.521434809442 3.76111091410278 0.47144874583634166 566.0774961051789 -6.831075584169631
1639.9014808468287 582.2621084442015 3.872153572026716 0.46847391456942233 573.8691457199808 -5.206583482519404
1706.116745410597 613.1825586811365 3.9867546364572073 0.46555935827047623 581.7373188974098 -3.388403526024337
1775.5406889958783 645.4009483348225 4.1052860174292745 0.4626994255572896 589.6997099959373 -1.3766850796716892
1848.3729829513595 678.9947834289995 4.227960839415592 0.4598929185030203 597.7620710944946 0.8268285278239667
1924.7757640625941 714.0231802025946 4.354919154128308 0.45713911551114084 605.9248908074412 3.2194958123072794
2004.6408389275684 750.4215069815394 4.485852054706443 0.45444201512023863 614.160475058444 5.7899496835417
2088.3757184590804 788.3595225761334 4.621289609418962 0.45175641710760583 622.493868083454 8.543400127533324
2176.2829796015963 827.95068492507 4.761518434982149 0.44911874078050396 630.9286144231583 11.483002960364178
2268.469942587643 869.2322061823256 4.906608699178933 0.4464855815682789 639.4654611461091 14.602784818047589
