M[M_sun], R[km], Lambda[1], P_c[MeV/fm^3], rho_c[fm^-3]
0.24162668629717493 15.618656898711224 2160425.4255784233 3.5677272577965504 0.1711233750220791
0.25364499896474324 15.277235957662882 1723282.1308261869 3.7848376809469713 0.17388839834858189
0.26604122801348234 14.981244687999785 1382834.8905728967 4.011439483596391 0.17666712031898663
0.278817345168159 14.72348073707709 1116349.2726914904 4.247788196234341 0.17945820991502728
0.2919733594984618 14.498345586452569 888607.9659447046 4.494509237085334 0.1822682376306669
0.3055102061826367 14.301159462454098 738587.9581609243 4.7517589073266056 0.18509292335582664
0.31942807191404804 14.128065229826875 605049.2218782986 5.020218400806737 0.18793886184101885
0.3337252631563774 13.97594586949626 497643.283517806 5.300113234594486 0.19080270463340795
0.34840964532197033 13.8419544483914 410960.44689171616 5.592170407181344 0.1936907154929659
0.3634743170135199 13.723892400773261 335688.18159664073 5.896559261449307 0.1965979954200616
0.3789274584434174 13.619962520427821 283259.5727272722 6.2141430704658305 0.19953220800125498
0.3947626064681405 13.52838487867402 236369.9216556782 6.5451772109135415 0.20248949513195633
0.41098877924957017 13.447821992407857 197835.55631941636 6.890368221101951 0.2054736377195768
0.4275983142428054 13.377017724647809 166054.05035095586 7.250419482700586 0.20848767697339782
0.444595167565245 13.314866935766373 139778.06038335685 7.625587158064386 0.21152711424188947
0.46197824713602964 13.260523479267217 117956.12222092527 8.016825927390782 0.21459819865037905
0.4797444911196523 13.213106840396087 99794.40656080379 8.424838375063077 0.2177025363113014
0.49790450473846143 13.171925558226752 83748.58270086239 8.85006168837306 0.22083754132598904
0.5164442128226593 13.136356666116445 71926.5404314089 9.293376598046265 0.2240067257368028
0.5353637649161476 13.105806221073443 61262.556168337476 9.755664711132464 0.2272129593992206
0.5546730917367276 13.07978495303457 52292.965735868005 10.237735490156192 0.23045758888778212
0.5743572779039101 13.057809669451457 44719.89657371059 10.740055701912478 0.23373725393265615
0.5944158107341241 13.039511118623913 38320.32919392751 11.263880092513615 0.23705826743109973
0.6148549200082675 13.024480360499792 32893.62683646111 11.810141711526834 0.24042218275626204
0.6356615596000729 13.012414049805276 28284.453967860256 12.379819884330644 0.24383063343308692
0.6568338630504318 13.002999616689214 24364.34786010496 12.973596265438227 0.2472814858207979
0.6783675043299406 12.99597879381954 21022.53790312591 13.592812554724787 0.25077969077051776
0.7002580082851918 12.991057214299115 18167.246804063416 14.23865980526378 0.25432780582984815
0.7224950176724735 12.987986433457621 15724.433061649848 14.91232812271858 0.25792781641802015
0.7450833469958559 12.986645141712344 13630.110533829746 15.614836403704105 0.26157950927132745
0.7680019718996451 12.986783587403815 11832.092753638359 16.347472732890207 0.26528499637802205
0.791252909674599 12.988156477000143 10286.588776048462 17.111843293946055 0.2690488638789127
0.8148318438120176 12.990674556836028 8953.406078471768 17.90940368272268 0.272873545436107
0.8387162397512797 12.994142378161019 7805.233554499694 18.74150241298003 0.27675996940987996
0.8628991506689541 12.998406297851384 6811.993055743755 19.609518088375612 0.28070891957864746
0.887381931007217 13.00336496016897 5953.330939181807 20.515520968846022 0.2847266098807036
0.9121404596399143 13.00885669248947 5209.280162674312 21.461305906461632 0.2888160551027086
0.9371635532406462 13.014748824584906 4563.712336181306 22.448335514820315 0.292977001351196
0.9624478721221154 13.020967241048737 4003.1077043055075 23.478679067913394 0.2972135972057505
0.987971109992593 13.027348874195015 3515.251427931681 24.554738921727463 0.3015317742339473
1.0137165961929337 13.033805569548061 3090.6786642370175 25.67843168619167 0.3059329702266929
1.0396819429296933 13.040266340481026 2720.3981694182553 26.851771164137908 0.31041883113126273
1.065835714051367 13.04659221146473 2397.215618157909 28.077830238443184 0.314997905703496
1.0921709844695244 13.052722063127145 2114.8409281625254 29.35863268581711 0.319670421440149
1.118670604533613 13.058556552454242 1867.6754372414043 30.69699825161876 0.3244414984263753
1.1453042328561565 13.064008239032425 1651.42536114314 32.0962622909081 0.32931875559128276
1.172068791685396 13.069018691408791 1461.4442672949008 33.558434924311605 0.3343003361031098
1.1989279628868363 13.073473568317956 1294.8833867771987 35.08802731544193 0.33939959242066947
1.2258749214991327 13.077341081348232 1148.5665001736731 36.68702326056432 0.3446130417357159
1.2528726933903371 13.080500291465942 1019.737392917241 38.360514634478086 0.34995536367550745
1.2799171010962427 13.08293885325895 906.3122700879412 40.1107858285772 0.35542338759493436
1.3069621195598322 13.084526562570797 806.4663784317181 41.943226419542434 0.3610311923415681
1.3340016265720074 13.085236377658614 718.2819749345193 43.86140673908118 0.3667811899610501
1.3610112310100013 13.085030325541714 640.3492975536811 45.86993183985173 0.37268066519412724
1.3879435680659908 13.083766331577117 571.5602402136427 47.97417908526527 0.3787398140400055
1.4147946269600535 13.081455325817501 510.60957464711794 50.17895651604713 0.3849645424883529
1.4415268113650654 13.078015670039632 456.6929495808942 52.489390429224336 0.3913613296670338
1.4681222884753353 13.073414577574695 408.84156624310214 54.911946794697336 0.39794211738983015
1.4945327784686282 13.067543620900457 366.3698281095407 57.452818282229785 0.40471597137901844
1.5207447309175202 13.060392725843679 328.69572877594413 60.11863592157059 0.41169266783019826
1.5467312799803976 13.051899460376097 295.16350849997497 62.916508566717965 0.41888275191729996
1.57244590165314 13.042012982437265 265.3391149214365 65.85406613903224 0.426297601075124
1.5978607323744995 13.030671003716336 238.80766348014973 68.93950703287341 0.4339494936186151
1.6229577815148206 13.017851044131636 215.1430612505022 72.18165011514284 0.44185168332657543
1.6477105114105641 13.003504953976178 194.00185363471277 75.58999180418621 0.450018480693375
1.6720587967030238 12.987563581521792 175.15157587726776 79.17438917596942 0.45846375652418825
1.6959947369920945 12.970004457882332 158.29090245583834 82.9452083019054 0.4672015013000344
1.7194756961811088 12.950785004116579 143.21261976785385 86.91511076844621 0.4762529251164897
1.7424552181007356 12.929828365338258 129.71230748118285 91.09559220560746 0.48563202711135084
1.7649385675580878 12.907178001938117 117.61665026369886 95.50092464590902 0.49536143782288067
1.786865158707583 12.882739656824123 106.76866471381463 100.14460465025297 0.5054579848137736
1.8082018591294913 12.856469685853465 97.0389929388748 105.04325561570003 0.5159477343572837
1.8289156726315794 12.828335176640033 88.29031991372953 110.21342855939939 0.5268532381690417
1.8489887705865156 12.798344453903862 80.42515126453821 115.67287675169213 0.5381982940246961
1.8683621616013908 12.766399501114085 73.352254155978 121.44160419760837 0.5500114498974362
1.887037897761838 12.732570862281081 66.97523521408705 127.54105173681276 0.5623225560096581
1.9049598729838626 12.696742508749697 61.22830597706243 133.99385610946732 0.5751615841548838
1.9220996650236193 12.658913795773932 56.047260357546996 140.82564744480786 0.5885646015122096
1.9384097176541357 12.619013893837355 51.36681779238572 148.06411312793742 0.6025698700096461
1.9539039965900549 12.577157388811257 47.142552281959134 155.73765143117225 0.617212770529884
1.9685170173908255 12.5332174422426 43.32115124771975 163.8800425673091 0.6325413216267515
1.9822286803476508 12.4872044296272 39.860410535040785 172.52521945921146 0.6485975721118181
1.9950123422227286 12.439111612234782 36.72694530729752 181.71223340567263 0.6654338316979383
2.0068459801737304 12.388942109330696 33.88616672971429 191.4832482710533 0.6831050019246645
2.0176894881610523 12.336654474599984 31.31364637823217 201.88433095091517 0.7016703590686215
2.027521721658616 12.282260179593049 28.978129845250486 212.96531154916764 0.7211921157656476
2.0363267479615703 12.225777211135808 26.857087593266108 224.78202218442956 0.7417416550710905
2.044065727238803 12.167170439862526 24.930966655133602 237.3953576352626 0.7633951387312042
2.0507210397935554 12.106447874689461 23.176921254770466 250.87238955375508 0.786235731799831
2.0562889831007483 12.043686098755156 21.584338898408294 265.2864416595195 0.8103522070655885
2.060729943417619 11.978823540912067 20.132993508112406 280.7188362720328 0.8358427625882312
2.064029253691637 11.91191484287905 18.813061530924386 297.25984995223024 0.8628159992335893
2.0661852248480725 11.842998242537844 17.611267576233576 315.00980087405236 0.8913920403171658
2.0671703220072346 11.772094217037248 16.516141591929696 334.07797925981515 0.9216961654184195
