M[M_sun], R[km], Lambda[1], P_c[MeV/fm^3], rho_c[fm^-3]
0.24162668629717493 15.618656898711224 2160425.4255784233 3.5677272577965504 0.1711233750220791
0.2536463713249429 15.277244175810129 1723036.1450083568 3.7848697863180667 0.17388879852654446
0.2660460201980971 14.981133210642566 1382840.9729338377 4.011506976432264 0.17666793593007662
0.2788228954451338 14.723389220111786 1116267.4358744642 4.24789336088845 0.1794594296665352
0.29198113857468116 14.498232611232869 905750.7623999574 4.49465483415703 0.18226985888785155
0.3055207724762225 14.301014765346014 738470.918810713 4.751949881665834 0.18509498624317033
0.3194410230366542 14.12789781917445 604923.3843046088 5.020456160225188 0.18794132868675198
0.3337434659887601 13.975663466578453 497529.264180802 5.30040403999926 0.1908056325613006
0.3484269060281557 13.841808940639025 410871.16626002995 5.592514985716213 0.19369404938508106
0.3634927692273796 13.723777202613409 340513.6958138594 5.8969653561507265 0.19660180954743614
0.37895061104149075 13.619794995778271 283188.5838600466 6.214615597198955 0.19953651687610185
0.39478805206390155 13.52824100631243 236312.4077740517 6.545715680144155 0.2024942167796725
0.41101748344834266 13.447668502788042 197773.32344796852 6.890983030041606 0.20547887369050147
0.42763033504780246 13.3768585429473 165990.95894903567 7.251116402487712 0.20849344241219148
0.4446306742285463 13.314739400818572 139734.0640384172 7.6263642634704265 0.21153330050059868
0.4620146166304881 13.26039194955579 117909.35958461932 8.017696775747675 0.21460493536647027
0.47978625876289455 13.213012677500696 99748.58799116824 8.425809759326173 0.21770983976298958
0.4979486425445872 13.171844818600631 84593.8293384041 8.851130027708184 0.2208452765592416
0.5164929511893656 13.13628020073044 71895.23805293407 9.2945591851394 0.2240150512236642
0.5354165456731425 13.10573148915215 61240.13299511997 9.756969566884363 0.2272218931323985
0.5547296288856274 13.079718080254061 52267.57102378341 10.23915716022914 0.23046697011407913
0.5744163941116414 13.05775964414855 44698.149729364115 10.741615874370558 0.23374727072311796
0.5944804777271113 13.0394365336259 38298.45328938422 11.265588272563287 0.2370689401709618
0.6149238476881246 13.024433064447628 32876.03290520406 11.812007993690496 0.24043353286564015
0.6357340775079519 13.012395405124943 28037.778553098313 12.381854993047652 0.24384268346281143
0.6569114383241034 13.002968947670468 24351.08288631138 12.975790854942808 0.2472940291944723
0.6784496263972092 12.995940124747186 21012.63640425859 13.595197796074807 0.2507929711553103
0.7003451390533803 12.991026335053906 18157.298964108115 14.241248492152785 0.2543418495825619
0.7225856980081942 12.987984900881584 15716.225621277084 14.915133871043482 0.2579426514670487
0.7451800053447583 12.986637862838164 13621.758844970784 15.617846322665264 0.2615948939804988
0.7681073108084788 12.986766239076376 11825.509717146853 16.3507275934404 0.26530122104151754
0.7913605013083029 12.988155401342915 10280.178430965358 17.115359437332074 0.26906596169353286
0.8149420146352643 12.99069021596092 8947.776636321503 17.913198533836482 0.2728915517332971
0.8388299120986088 12.99415929237963 7799.907473207155 18.74555913792027 0.2767786079619745
0.8630185546106411 12.99842858271076 6807.498196338685 19.613889448780075 0.28072853111590956
0.8875068185351994 13.003398192947628 5949.186966126745 20.520228011578624 0.2847472368717963
0.9122713694740427 13.00889308802104 5205.809854302204 21.466371119946476 0.2888377428800307
0.9372988077382981 13.01478397229788 4560.925456494839 22.453737795577183 0.2929994393498678
0.9625886249566713 13.020996428605294 4000.2352943150554 23.484486230457065 0.2972371818183165
0.9881164708779345 13.027382872082665 3512.7973573626473 24.56097830996087 0.3015565603614219
1.01386689278617 13.03384413417878 3088.799205395521 25.68507914343586 0.3059586240444262
1.0398371273742206 13.040307871387302 2718.5378276668757 26.85890798177785 0.31044579274318296
1.0659958501237976 13.046631884254047 2395.6480692583077 28.085489836288712 0.315026241886575
1.0923320765753177 13.052751936984263 2113.231059142038 29.460499495087113 0.3197815029984212
1.102314450202635 13.046082265912153 2003.8674353471226 31.2759689154464 1.4207717310148762
