M[M_sun], R[km], Lambda[1], P_c[MeV/fm^3], rho_c[fm^-3]
0.24162668629717493 15.618656898711224 2160425.4255784233 3.5677272577965504 0.1711233750220791
0.25363843443746253 15.277450837853102 1723359.8178338928 3.784731286039724 0.17388707218738966
0.26602941697194105 14.981490722987676 1383226.9438484095 4.011215822964202 0.1766644175122421
0.2787992335478362 14.723824630186098 1116666.5088010232 4.247439705866137 0.1794541679519199
0.2919484723901722 14.498740657917482 906158.8472688956 4.494026775201006 0.18226286530561134
0.30547767179751495 14.301592246417218 739000.919772739 4.751126095448441 0.18508608777980284
0.31938672349710306 14.128543161084702 605331.6913390914 5.019430580518709 0.18793068790145986
0.3336786990620727 13.976338668280272 497972.0580456151 5.299149668714225 0.19079300312383865
0.3483527993239771 13.842424781961352 411247.22494051047 5.591028693047468 0.1936796690946459
0.3634090549437418 13.724358552639417 340868.5128855662 5.895213753621363 0.19658535812580172
0.378853947773974 13.62038368453901 283512.3994839091 6.212577491009437 0.19951793180169305
0.39467643687060383 13.528867222144621 236598.34642096268 6.543393188409176 0.2024738516646894
0.410894519692608 13.44822997497958 198031.2574312106 6.88833132144657 0.2054562906273598
0.4274936933546086 13.377398949365102 166235.53223756768 7.2481105974987 0.2084685761578392
0.44447952284740766 13.315271814010671 139937.32653153135 7.623012671695036 0.21150661967500015
0.46185180448332536 13.260881643529096 118097.8250983005 8.013940943113509 0.21457588096458471
0.47960610328195735 13.213444254579247 99919.8447753946 8.421620403001382 0.2176783416600399
0.4977539770916639 13.17225763784273 84741.3503499163 8.846522596033392 0.220811916785312
0.5162814005058209 13.136647883413694 72029.96607350773 9.289459123071685 0.2239791464687557
0.5351901550363584 13.106051511729836 61356.72910075365 9.75134230021686 0.22718336588610696
0.5544859901328765 13.080012559203857 52370.70621190926 10.232980346537758 0.2304259237776722
0.5741540463107547 13.058009163994893 44788.90918112418 10.734887750111685 0.23370407408126395
0.5942048751226386 13.03968291344953 38044.544585504686 11.25822199985487 0.23702291556577734
0.6146267262274262 13.02463243041827 32949.547227085524 11.803960063275388 0.2403845880210409
0.6354169511331451 13.012536691127709 28334.640766049346 12.373079181541549 0.24379072123169251
0.6565722316255034 13.003091020259651 24409.962402842993 12.966327461786642 0.24723994031983867
0.6780959652667603 12.996041692351085 21061.809032504858 13.584912454652642 0.2507357051298795
0.6999720043410713 12.991110096692012 18201.972612293775 14.230086063426912 0.25428129286194157
0.7221921878594756 12.98801824030063 15754.800327554729 14.903035673576138 0.25787868373658884
0.7447672306997661 12.986661031145003 13657.301073971437 15.604867933670041 0.26152855706486083
0.7676743478362377 12.986744839993744 11856.069657202039 16.336693280662473 0.26523126351224674
0.7909057678491249 12.988116651573037 10307.085612346438 17.100198777603673 0.26899224053910376
0.8144666746562332 12.99062027711154 8972.918453102066 17.89683643552551 0.27281391474675765
0.8383340213938792 12.994085188362716 7821.504228563759 18.728068168563535 0.2766982460078509
0.8625021457015969 12.998339226361505 6827.444547321915 19.595042214608448 0.28064397546251
0.8869625062751534 13.00327237006468 5966.949867291882 20.499933817458412 0.28465830456649704
0.9117089423016973 13.008760608248064 5221.290482414844 21.444533060836285 0.2887442386349387
0.9367154932197459 13.01465180543769 4574.765444363205 22.430446832742767 0.29290270195011686
0.9619788167119476 13.020838219770928 4012.5089664171282 23.459450122728565 0.29713550274587863
0.9874904411438163 13.027228999531134 3523.760414414146 24.534079236585193 0.30144970311249003
1.0132210361782994 13.033682077919101 3098.398484947056 25.656421216214056 0.3058480275840721
1.0391681844743221 13.040140597744989 2727.3028738736302 26.82814090776654 0.31032956027778125
1.065309188283243 13.046477780446867 2403.3462999312396 28.05246962359671 0.3149040857615384
1.0916237739976629 13.052600928453174 2120.376571301568 29.331631574884256 0.31957323401955734
1.1181085736840226 13.058434141759085 1872.6043899243207 30.66803438158293 0.32433932649801195
1.1447257934300028 13.06389429611234 1655.8467647965463 32.06534112734931 0.3292122434216472
1.1714760937041193 13.068922348400873 1465.4025166898725 33.52537301751211 0.3341889140683702
1.198323760902191 13.07339683008041 1298.4348483615054 35.052579637262944 0.3392823765588188
1.2252527986032853 13.077262393421808 1151.7260235764784 36.64929264990419 0.34449132862629933
1.2522354716994626 13.080440602554559 1022.5883598555317 38.32011846430805 0.3498275359623047
1.2792670307849143 13.082892433494257 908.8898983349663 40.0677268459502 0.3552901774877631
1.3062992282002062 13.08449451836037 808.7455129512012 41.8973780301865 0.36089258571454463
1.3333245430095733 13.085229739622854 720.2979152730572 43.81225509801272 0.3666350858644377
1.3603232174444801 13.085046589564051 642.282907319647 45.81757990400836 0.37252843287616766
1.3872452286557395 13.083816969825575 573.1871325692312 47.91840332719311 0.3785810582277257
1.414084782945798 13.081532642309318 512.1160581666663 50.119145577349904 0.38479694564682154
1.4408157907332309 13.078137764829364 458.03650514012844 52.425639226009395 0.3911862927485173
1.467395673506259 13.07355570092153 410.07676357871935 54.84397315343982 0.39775914457235767
1.4937985322002174 13.06772358758213 367.49164999061554 57.380317178373794 0.4045245285202426
1.5200037569920724 13.060619589964995 329.67952991080205 60.041277434152406 0.41149217932143334
1.5459823509348636 13.052165224654265 296.0719856954856 62.83393562895115 0.41867259722584377
1.571696012062975 13.04232122531966 266.17586477542835 65.76589206214084 0.4260771109414345
1.5971119158862794 13.031032140820656 239.54768813052502 68.84531277769338 0.43371794587097473
1.6222049421920952 13.018251184996817 215.80943090973693 72.08098128288013 0.441608298271421
1.6469539862972429 13.00396723231099 194.62469733964323 75.48235531417588 0.4497624160344439
1.6713082356340447 12.988086114178266 175.70843411627092 79.05962919310328 0.45819568687036866
1.695231074785017 12.970568638557449 158.79616787179066 82.82257177555412 0.4669196829196547
1.718707968651617 12.951396386830444 143.6830633402613 86.78378452663245 0.4759555357925218
1.7417254678781873 12.930572015382575 130.14466255683433 90.95552157378623 0.4853204215136948
1.7642056220801183 12.907974531073505 118.00462900411893 95.35076092379144 0.49503194508662485
1.7861365272659493 12.883589677694834 107.1226807732712 99.98421710605112 0.5051118754516026
1.8074825276628264 12.857396276938928 97.34848750350879 104.8718129318899 0.5155836754588549
1.8282136760820313 12.829351346024952 88.57881285271331 110.0295084261942 0.526467868687426
1.8482955504441978 12.799431641608633 80.68805558928771 115.47577158853824 0.5377911427733829
1.8676940091026022 12.767598332537615 73.58914480038196 121.23043994476272 0.5495815968617082
1.8863734847607474 12.733800528409061 67.19460258431656 127.31474562083244 0.5618685214313882
1.9043177320382672 12.69808471049 61.426199509295195 133.7517388342214 0.5746835694768017
1.9214677445430373 12.660320394791269 56.23098390058497 140.56559989040161 0.5880579299851392
1.937811825373001 12.620545876660746 51.528276548045824 147.7845788145516 0.6020321718501491
1.9533316693642584 12.57879189294522 47.29466147829836 155.43784097095386 0.61664459969632
1.9679710053206838 12.53494617696316 43.46046345518573 163.55749699604388 0.6319378279041697
1.9817142799407015 12.489039766863897 39.99047279376484 172.17826264270815 0.6479569542856183
1.9945260381435688 12.441047099696053 36.84442680692626 181.33896511334868 0.6647539183278123
2.0063877249480955 12.390971724336683 33.997143374357734 191.08124586394499 0.6823823173761122
2.017277738998118 12.338827913510226 31.41459287648613 201.45092205940654 0.7009011010384555
2.027135125414563 12.284510411921003 29.068834525878046 212.49845001895926 0.7203750834010406
2.035971337743714 12.228116800438404 26.940993615751065 224.27776562388252 0.7408700356015387
2.043763674064145 12.169664013916439 25.00713174353871 236.8510634171072 0.7624670670895307
2.050467426814587 12.109082136634013 23.248812087208286 250.28320396564388 0.7852429019986366
2.056066824996429 12.046394986521097 21.648411968516676 264.64867069871764 0.8092909649775105
2.0605609030387417 11.981671890550434 20.19413221121373 280.0283350877913 0.8347089761105064
2.0639140225680332 11.914901952690444 18.868621413272653 296.51152878112697 0.8616035848513802
2.066112530801195 11.846089178744776 17.662005913530166 314.196914062046 0.8900907684136743
2.0671515207150195 11.77530883580715 16.564018214368783 333.1951684987353 0.9203018363397198
