M[M_sun], R[km], Lambda[1], P_c[MeV/fm^3], rho_c[fm^-3]
0.24162668629717493 15.618656898711224 2160425.4255784233 3.5677272577965504 0.1711233750220791
0.2536446777275754 15.277249829795958 1723134.7239564436 3.7848325978661377 0.17388833499043146
0.26604075057381116 14.981256582133003 1382891.1471097188 4.011428797871943 0.17666699118831297
0.27881714912622846 14.723482385867896 1116361.8951761515 4.2477715462753425 0.17945801680059387
0.29197222216581575 14.498374649527296 905814.0163441435 4.494486185905388 0.1822679809504283
0.3055085326176668 14.30118371888791 738627.7256151957 4.75172867214045 0.18509259675811143
0.3194261022791495 14.12809076044998 605063.6523808959 5.020180758812122 0.18793847129079624
0.3337231450111182 13.975972391240845 497652.5571584764 5.300067194675026 0.19080224108781302
0.34840690061107815 13.84197786641539 410975.9319380925 5.592115854302422 0.19369018767885535
0.36347068434659713 13.723929311162793 340633.6483627889 5.896494969880298 0.19659739158003992
0.3789253583384957 13.619950569951659 283287.7685797392 6.2140682620681025 0.19953152583874287
0.39475835459221204 13.52841098326508 236396.74153905254 6.545091963273427 0.20248874762531643
0.4109842198810814 13.447821596621406 197838.6008894303 6.890270888357643 0.20547280879308216
0.42759210418839205 13.377033034056907 166066.505801855 7.250309151351861 0.20848676423042534
0.4445896265046298 13.314898958049469 139788.77137545837 7.62546413297823 0.2115261348830988
0.4619722337832969 13.260527674145516 117970.04647900931 8.016688062504995 0.2145971321540285
0.47973788166733955 13.213133861488396 99810.79897910576 8.424684595159265 0.2177013801014051
0.49789627885779075 13.171959228844331 84630.80748302615 8.849892560397869 0.22083631676718582
0.5164359133750989 13.136370612867367 71928.99345684018 9.293189384705657 0.22400540774321354
0.5353558281579344 13.105816090417274 61266.145104061725 9.755458142869303 0.22721154512354805
0.5546639691595903 13.079793028560628 52297.86092377515 10.237508589931169 0.23045608011219887
0.5743478953544738 13.057829428343386 44321.36159035763 10.739808717840072 0.23373566821840522
0.594405626657374 13.039528229149807 38321.61209846656 11.26360967958541 0.23705657788623083
0.6148437840968793 13.024486867807523 32896.35970307553 11.809846272013287 0.24042038599108975
0.6356499690946937 13.012419234773944 28287.594365348228 12.379497720812877 0.24382872587899274
0.6568217865754982 13.003004130988826 24366.1277665417 12.973248857359192 0.24727950017867953
0.6783549687187795 12.995981499034812 21024.26952687832 13.592434968251956 0.25077758847019854
0.7002441918226803 12.991059949952382 18168.870840550782 14.23825001550441 0.2543255827004038
0.722481011682442 12.987987265155258 15725.950879181551 14.911883974662809 0.2579254680398264
0.7450693892473608 12.986639244464445 13631.284488619234 15.61435993786644 0.26157707389401763
0.7679918868182367 12.986759818837614 11752.457775441359 16.34695749614672 0.2652824280520816
0.7912384362400123 12.988144855196518 10286.81525440303 17.111286699991588 0.26904615735099063
0.8148125070363321 12.990673530257412 8954.248392584246 17.908802973765038 0.2728706951150557
0.838697172785325 12.994141543597133 7806.079663723452 18.740860253569032 0.2767570190196486
0.8628802447247927 12.998410829091819 6812.832062867817 19.608826127803162 0.28070581518795557
0.8873631508614104 13.003359597449235 5954.088876787185 20.514775876146473 0.2847233447689657
0.9121201720363228 13.008856306221253 5210.156140766772 21.460504122548485 0.28881262209617864
0.9371402184512687 13.014747129681098 4564.046342093487 22.44748037990424 0.2929734496075946
0.9624267490940372 13.020955969182841 4003.6597083976158 23.477759849191276 0.2972098639853935
0.9879485166287546 13.027348958987886 3515.676916882881 24.553751291760772 0.30152785084893957
1.013691976253619 13.03380321251477 3091.323822337407 25.677379468322254 0.3059289095152891
1.0396576685197128 13.040263138341418 2720.7883549760218 26.85064149294843 0.31041456343692825
1.0658112091473662 13.04658324686407 2397.63658935887 28.076617825039804 0.31499342045911916
1.0921450255027418 13.052711697711144 2115.127340127105 29.35734182766165 0.3196657751433803
1.1186435354989719 13.058549837653059 1867.915541457993 30.695613534874244 0.32443661374833166
1.1452765109863223 13.064004327468185 1651.6579440254309 32.094788235513214 0.3293136908821345
1.172040605820767 13.0690133815401 1461.6567912703742 33.55685423712199 0.3342950090243051
1.198898299338989 13.073474155101419 1295.068418126713 35.08633253460773 0.3393939882399069
1.2258451624478424 13.077343865294278 1148.7280202706327 36.6852193048156 0.3446072224537169
1.2528418278344267 13.080496413479738 1019.8643158549019 38.35859418175555 0.34994931635399135
1.279886294347624 13.082943200456505 906.4498819123213 40.10872704736983 0.3554170184136731
1.3069297902645842 13.084526675724291 806.5334579205434 41.941034235044434 0.36102456503571617
1.3339686741066639 13.08524226360931 718.3890446588299 43.85905656915546 0.36677420404061245
1.3609781301971844 13.085031855296792 640.4305024201986 45.86742860958116 0.3726733861405386
1.38791052526417 13.083767653388636 571.6424552140554 47.9715121008456 0.37873222294142583
1.4147604882113864 13.08146265419562 510.6704217256697 50.17609652800908 0.38495652848669304
1.4414920276551688 13.07802169052795 456.748261824757 52.48634197840827 0.3913529597632487
1.4680875499850077 13.073420985138087 408.8881660247284 54.908696380567484 0.3979333678595668
1.4944974166874192 13.067550911967231 366.41740125105144 57.449351310574464 0.404706816663715
1.520708917514321 13.060402176105445 328.73458778005914 60.114936606570744 0.41168308038643453
1.546693720880793 13.051913465870177 295.2025819719369 62.91255982324285 0.4188727020512168
1.5724099439936237 13.042027315979825 265.38414655610967 65.84984946407397 0.42628705676030887
1.5978232870778106 13.030689846200602 238.83872262315685 68.93500237489948 0.43393842029566393
1.6229217085080172 13.017867691609323 215.16385360620416 72.17683572999444 0.44184004368232266
1.6476737612570032 13.003525822820716 194.03691024025343 75.58484409598374 0.45000623441755333
1.6720224478198307 12.987590918440105 175.17441798540133 79.16890940655719 0.45845097228484216
1.6959603511298253 12.970030323537385 158.31691061997049 82.93934299701137 0.46718802284647043
1.7194399767829587 12.9508158345761 143.23418556435644 86.90882972907254 0.4762387016526385
1.7424164800395965 12.92984037406821 129.74618759522917 91.0888928175423 0.485617123438862
1.7649039951403938 12.907217338424267 117.64181288080012 95.49374235819434 0.4953456782799077
1.7868304574951908 12.882776858379419 106.79078898260632 100.13693320865332 0.5054414301756176
1.8081680511473381 12.8565135870184 97.05604584730659 105.03505523227977 0.5159303208259021
1.828876504130675 12.828371715379992 88.30107512638205 110.20465583470563 0.5268348967353199
1.8489558574206468 12.798396916216605 80.43918840785088 115.66344845707277 0.5381788184214669
1.8683304975678319 12.766454867946036 73.36486800832881 121.43150317633457 0.5499908879197342
1.8870076718270743 12.732628747267025 66.98684648517569 127.53025967817989 0.5623009565587521
1.9049299513097286 12.696806236432007 61.23680338915383 133.9822739423052 0.5751387173606748
1.9220688654862965 12.65898309849345 56.0559174539362 140.8132072389022 0.5885403632603341
1.938381670730736 12.619087189928637 51.37482635392756 148.05074036914797 0.6025441468427783
1.9538756840461604 12.577238175824158 47.149707347052896 155.72330833552564 0.6171855889278696
1.9684907933648526 12.533297761204294 43.325344081803294 163.86464219780564 0.6325125536085331
1.9822048557186862 12.487291169850065 39.86727115683592 172.50861998244034 0.6485669229929095
1.994989433134009 12.439206579742816 36.73263723375356 181.69437463599974 0.6654013017013533
2.0068244187970175 12.389039758732805 33.89222607792001 191.4640142099959 0.6830704246224237
2.0176683457357947 12.33675758093998 31.315903661323656 201.8635936369591 0.7016335523819168
2.0275028158848807 12.282366574588366 28.982252089724078 212.94298198128487 0.7211530515225723
2.036310583616648 12.22588980170011 26.86109434583885 224.75789363063822 0.7416999482914427
2.0440516331455836 12.167289040480561 24.934288886774677 237.36931252308446 0.7633507294223957
2.050709325454961 12.106572288472503 23.18084162429734 250.84423966907306 0.7861883662659345
2.056278915652782 12.043817153978901 21.587890728594 265.2559489792418 0.8103015113184272
2.0607217552352455 11.978963127290628 20.136510106579966 280.6858272512557 0.8357886201113746
2.0640241676072133 11.91205759174134 18.81611810904815 297.22403724097535 0.8627579762243948
2.066180976953173 11.843146564909189 17.613291672738487 314.9708968204824 0.8913297625792387
2.067169549297306 11.772244608167789 16.518977352427925 334.0357272106993 0.9216294316819109
