M[M_sun], R[km], Lambda[1], P_c[MeV/fm^3], rho_c[fm^-3]
0.24162668629717493 15.618656898711224 2160425.4255784233 3.5677272577965504 0.1711233750220791
0.2536441103867984 15.277283342858022 1723274.838788615 3.7848211908225937 0.17388819280713663
0.26604008675273927 14.98125503847621 1383007.337874355 4.011404817897714 0.1766667014044764
0.2788146928654014 14.723536339208852 1116432.7839442168 4.247734181995796 0.1794575834312579
0.29196973558362205 14.498416806388184 905823.5174946404 4.494434456755434 0.18226740493433785
0.3055047568027066 14.301249738967115 738700.652876479 4.751660821563271 0.18509186384238313
0.3194219685116525 14.128127077174895 605097.1256008212 5.020096286901718 0.18793759486212264
0.33371888523793314 13.975995137458927 497677.32382719056 5.2999638773879285 0.19080120085416635
0.3484007642984869 13.84202858282973 411006.66601849534 5.591993433576984 0.19368900322465996
0.3634641815279559 13.72397326160096 340670.9506873409 5.896350695214111 0.19659603652184332
0.3789166002473254 13.620002829813826 283308.75561423914 6.21390038738929 0.19952999502380636
0.3947487638392348 13.528458298998167 236417.0647334817 6.544900662775407 0.20248707017838313
0.41097423850003334 13.447865937518577 197861.90055546767 6.89005246880363 0.205470948640504
0.4275820200142428 13.377062954008593 166083.72887988732 7.250061562951463 0.20848471599504032
0.44457708960326675 13.314947575837333 139805.97352854456 7.625188059944615 0.21152393716423684
0.46195845381290757 13.260569152264514 117980.17619912722 8.016378689216461 0.21459473890152414
0.479723331565991 13.2131723630453 99813.19979937594 8.424339508971057 0.2176987855356914
0.49788079223435266 13.17198268306645 84644.97895457801 8.849513033617534 0.2208335688311369
0.5164177107060123 13.136410414471888 71935.89638185466 9.292769275083343 0.22400245014528167
0.5353377409585065 13.105836047295277 61276.50037820289 9.754994601716112 0.22720837147544665
0.5546444952019142 13.079816749527227 52299.54009975185 10.236998595449377 0.23045268374789962
0.5743267651436437 13.057835963321583 44730.80595737121 10.739254485914959 0.23373210987776644
0.5943828461453857 13.039548603545615 38329.14443345037 11.263002874909757 0.23705278655963644
0.614819889379249 13.024510936378094 32902.62837632854 11.809183309572708 0.24041635407332262
0.6356231659548356 13.012438010881466 28291.94512031215 12.378774791920138 0.24382444536337536
0.6567938462594834 13.00301713586079 24371.59182078769 12.972469281838134 0.24727504444468115
0.6783266759273139 12.995986747672715 21028.33741088416 13.5915876753067 0.2507728709700827
0.7002133163028919 12.991053283352695 18172.271570735586 14.237330461697168 0.2543205940761207
0.7224478357048518 12.98800631097697 15729.976941979756 14.910887324615022 0.25792019837533364
0.7450359696295459 12.986638933037016 13634.475919937724 15.61329077031913 0.2615716090187226
0.767955941277203 12.986762213447056 11836.643641738057 16.34580133143977 0.26527666486099355
0.7912000734556325 12.988142936763401 10289.035113897418 17.110037735062697 0.2690400840574764
0.8147751687717761 12.990662575109937 8956.576237169353 17.90745502079475 0.2728642991745949
0.8386555627985898 12.994143045432812 7807.56094423608 18.73941929145425 0.276750398544305
0.8628380501828002 12.998394730704717 6814.800278553487 19.60727341931265 0.2806988491642006
0.8873175438691469 13.003351983894936 5955.419994119877 20.513103947464497 0.28471601811824465
0.9120735198502805 13.00885529386663 5211.252176027282 21.45870498804226 0.28880491872322894
0.9370933130318131 13.014744437705577 4565.270845114231 22.445561534416143 0.29296547981586196
0.9623771169164337 13.020957423810774 4004.641801673382 23.47569721092775 0.29720148699853577
0.9878969387580817 13.02732886858784 3516.61219167456 24.551535151204 0.3015190471745588
1.0136397038088267 13.033790354681209 3091.9038647192824 25.675018404254043 0.3059197977143346
1.039603017851972 13.04023994627651 2721.505544365404 26.848106638837564 0.31040498721454746
1.0657535182470537 13.046574831138571 2398.350532743744 28.073897314256612 0.31498335610676337
1.0920858540709082 13.052701417385528 2115.886747471784 29.35444530267986 0.31965534943192125
1.118583560499143 13.058536910134567 1868.6316934443148 30.69250641159988 0.3244256531696448
1.145214040526023 13.063997471764962 1652.1424708932045 32.09148065551134 0.32930232636303164
1.1719770160851843 13.069006087076135 1462.0993742269761 33.55330739999471 0.3342830558174919
1.1988330116665704 13.073461049669564 1295.4566423021085 35.08252969857571 0.3393814132921002
1.225778621926577 13.077329944380978 1149.0747061908892 36.681171506074854 0.344594164881565
1.2527737824340437 13.080494358038845 1020.19052453816 38.354284992075726 0.3499357471287967
1.2798160497965168 13.08293753326036 906.7518484663022 40.1041074844814 0.3554027270293926
1.3068595338169262 13.084523531450014 806.7651524396026 41.93611534949219 0.36100969449948384
1.3338972871321846 13.085237895016508 718.6031190547653 43.85378320769382 0.36675852888316673
1.3609042247347327 13.08503440624355 640.6380285422271 45.861811822402096 0.3726570532864047
1.387835488676454 13.08377479993121 571.8177415189439 47.96552789512297 0.3787151899601956
1.4146920002870689 13.08148648691187 510.83432021559366 50.1696792795775 0.38493854664939237
1.4414152122691053 13.078034669911778 456.8799983416226 52.47950187520508 0.39133417940261794
1.4680083627666183 13.073436793815095 409.0193578707881 54.90140313290888 0.39791373574853184
1.494418333348163 13.06757042692716 366.5358137033034 57.44157217515063 0.4046862754602693
1.520630383014755 13.060426333342575 328.8441994417245 60.106636166754306 0.411661568295694
1.5466137777779352 13.051940574838099 295.2933814111049 62.903699747474576 0.4188501524539793
1.5723299600344927 13.042062588160357 265.4698694469182 65.8403882398837 0.4262633978045236
1.5977540181167322 13.03073342342828 238.92155553382014 68.92489501582604 0.43391357444680007
1.6228401143427493 13.017915643741782 215.2408778603973 72.16603345232724 0.4418139272281359
1.6475928047702624 13.003575739767728 194.10497345883456 75.57329396187042 0.44997875692221645
1.6719410069023584 12.987643090313275 175.23756958246685 79.15661424625563 0.4584222878165244
1.695878508028361 12.970096616531096 158.3628492231055 82.92618284109625 0.4671577808465061
1.7193593658645925 12.9508873097748 143.2793180251625 86.89473682643761 0.4762067881620104
1.7423451545506843 12.929945001525665 129.78041896612322 91.07386130235174 0.4855836838504648
1.76482527341951 12.90730228968358 117.68157887606753 95.47762741276487 0.49531031849134305
1.7867510988633624 12.882864917728641 106.8221849310228 100.11972080081975 0.5054042865462519
1.8080902991681036 12.856612671474146 97.08288466866387 105.0166560991898 0.5158912502282194
1.8288007987021893 12.82847997964095 88.33226642611216 110.18497261173525 0.526793744351979
1.8488811722596938 12.798517484103654 80.46532497688581 115.64229442790324 0.5381351214968969
1.8682573192697078 12.766580915926296 73.39002372103427 121.40883984997339 0.5499447536924453
1.8869382371404322 12.732762526972174 67.01179495859883 127.50602359663428 0.5622524148025887
1.904860268788631 12.696951018643817 61.256825421748914 133.95628760484158 0.5750874122618355
1.9220035140008327 12.659135293745559 56.07605535839214 140.78529587468591 0.5884859813086855
1.9383174153465013 12.619252630020348 51.392974096111224 148.02073681523694 0.6024864335140606
1.9538144105243238 12.577410730507005 47.16322501631629 155.691127825933 0.6171246036408771
1.9684322515154704 12.533482495004629 43.34144306051659 163.83008970140315 0.632448009258102
1.9821487552485693 12.487488124897975 39.88086179592625 172.47137732199113 0.6484981584924183
1.994938714993761 12.439415833887317 36.7452755519825 181.65430679261323 0.6653283175690526
2.006776121226044 12.389258442585412 33.90414250291897 191.42086096259308 0.6829928475120224
2.017624636738406 12.336988799866926 31.32911244007459 201.817067929692 0.7015509738409004
2.0274613280528615 12.282607467583556 28.991400618220595 212.89288415458824 0.7210654083720243
2.0362731647319974 12.226145982626827 26.870596344010224 224.7037599330491 0.7416063769064193
2.044020078720155 12.16755500350123 24.943407828856387 237.31087920456696 0.7632510952465473
2.050680648003397 12.106853098033811 23.188156141878533 250.7810845193917 0.7860821002042164
2.0562542715158982 12.044111471943364 21.593591594021028 265.1874735583295 0.810187564239691
2.0607037540322843 11.97926558983381 20.142473958482068 280.61177126394716 0.8356671510558085
2.06401134878879 11.912374087766771 18.82204833457962 297.1436916055871 0.8626278018986453
2.0661733305607157 11.843478584651653 17.61952746286573 314.8836162853945 0.891190043609323
2.0671682176564365 11.772592362178349 16.524154319498166 333.9409360555855 0.9214797166242726
