M[M_sun], R[km], Lambda[1], P_c[MeV/fm^3], rho_c[fm^-3]
0.24162668629717493 15.618656898711224 2160425.4255784233 3.5677272577965504 0.1711233750220791
0.2536440443008473 15.277292736429834 1723231.0136824057 3.7848208309998355 0.17388818832211952
0.2660401173090479 14.98125604457918 1383033.0473216188 4.011404061477223 0.1766666922635812
0.27881510234270257 14.723514317877259 1116482.7364414728 4.247733003385437 0.17945756976115385
0.291969668406595 14.498395090065554 905842.4820399663 4.494432825026245 0.18226738676465462
0.30550472608137524 14.301231341263579 738625.1600310403 4.751658681308996 0.18509184072355223
0.31942170778241996 14.128121248568364 605089.9910575558 5.020093622355375 0.1879375672164259
0.3337208582513449 13.975887983210201 497666.53932144516 5.29996061839767 0.1908011680415421
0.3484005707463321 13.842030222003938 411007.6530299074 5.591989572004526 0.19368896586288414
0.36346341341142047 13.723987469340202 340639.479838365 5.896346144302026 0.19659599377871392
0.37891634779631655 13.620010122741313 283298.0077015359 6.213895092063342 0.1995299467368097
0.3947489291417754 13.528469086644664 236416.6672553298 6.54489462853215 0.20248701726622162
0.4109730981391674 13.447900097462643 197864.81158988105 6.890045579150108 0.20547088996532345
0.42758164953093075 13.377061899751048 166084.58318883352 7.250053753234091 0.20848465138724995
0.4445767571300627 13.314928746364938 139804.78617491046 7.625179351747403 0.21152386784138769
0.4619579723599749 13.260580186428713 117982.76288174381 8.016368930644825 0.21459466341108308
0.47972291589099314 13.213152827544837 99811.4138038558 8.424328623926957 0.2176987036953768
0.49788022810974697 13.171982247759626 84644.68126620002 8.849501062234776 0.22083348215321072
0.516417969518619 13.13640316176666 71221.54944905598 9.292756023624086 0.22400235685418238
0.5353355479006813 13.105887885467984 61275.88524862711 9.754979980329455 0.22720827136969407
0.5546442173550913 13.079794772557536 51815.483401368474 10.23698250882455 0.23045257661725368
0.5743255894641894 13.057838780155778 44729.74762222622 10.739237003947807 0.23373199763812208
0.594381769878987 13.039525002758309 37994.74795698413 11.262983734691833 0.23705266697120847
0.6148191440465878 13.024502898053514 32902.5093220794 11.809162398029537 0.24041622689625
0.6356224250453549 13.01243727886908 28292.364721814134 12.37875198892261 0.24382431034513494
0.6567932400147873 13.003014742663723 24371.2773827423 12.97244469210144 0.2472749038998297
0.6783254196066971 12.995986813379197 21028.304069412185 13.59156094964427 0.2507727221687545
0.7002124795021797 12.991053846943444 18172.67337179467 14.237301456806176 0.25432043672317145
0.722447249577473 12.987992645502784 15730.028434036802 14.910855887984996 0.25792003215802056
0.7450350272618382 12.986659069833888 13634.189491931693 15.613257046372013 0.26157143664427496
0.7679549176980408 12.986759750375171 11836.72816916279 16.345764863473814 0.26527648307732976
0.7911988984673805 12.988142961241145 10288.888842496355 17.109998340047238 0.26903989249285654
0.8147737997076515 12.990665494441375 8956.668651294094 17.907412503564263 0.2728640974333764
0.8386556120508157 12.99413329390919 7807.666802013268 18.73937384059134 0.2767501897211069
0.862836605563294 12.99840668167355 6814.771276087183 19.60722444383391 0.28069862944211477
0.8873159110034203 13.003358452482576 5955.488546325921 20.5130512116452 0.28471578702170763
0.9120704669505717 13.008846812372285 5211.2233523293025 21.458648240015382 0.2888046757446113
0.9370926482907289 13.014734934875323 4565.419263177076 22.445501010576077 0.29296522843428735
0.9623702326347432 13.020942934511197 4004.5319296155394 23.47563215172848 0.29720122277379657
0.9878949529414947 13.027333798567277 3516.5338740306156 24.551465250409212 0.3015187694918846
1.013637568028986 13.033786966181815 3091.9173884607494 25.674943932443888 0.30591951031327674
1.0396019207393898 13.040242957768175 2721.5173933424526 26.848026685561415 0.3104046851654673
1.0657521497697098 13.04656987130819 2398.397091449581 28.07381150524599 0.31498303866192046
1.0920834464289852 13.052699137413759 2115.858273030707 29.35435394206132 0.31965502058979023
1.118581393656042 13.058533875371184 1868.6459152374716 30.692408408599974 0.32442530745771214
1.1452118210799662 13.06398986961364 1652.1327338748495 32.09137632999606 0.32930196791083677
1.1719751838284507 13.069004168977273 1462.1040142222394 33.5531955282165 0.3342826787980649
1.19883133203538 13.073460928166247 1295.5430873317841 35.08240975251222 0.33938101666298565
1.2257770007862463 13.07732675038268 1149.1149903784737 36.681043833805305 0.3445937530305867
1.2527715941181485 13.080492033077896 1020.2038060883449 38.354149075464896 0.3499353191404191
1.2798135780585391 13.08293509759984 906.7509775102573 40.103961778667895 0.3554022762642828
1.3068576390127962 13.084523620255048 806.7669084520951 41.935960203004285 0.36100922546814634
1.3338948983200116 13.085231798300207 718.6203907092048 43.853616881053064 0.3667580344743726
1.360901935565042 13.085034186059659 640.6415603007405 45.86163466412328 0.372656538134195
1.387833010531328 13.083773647213796 571.8238129741278 47.96533914849919 0.3787146527263756
1.4146900082056024 13.081487635710586 510.83137813024234 50.16947687490689 0.3849379794891999
1.4414131423303065 13.078032658079596 456.8974837614468 52.47928613380445 0.39133358705756316
1.4680070157100935 13.07343692418867 409.0307860796075 54.901173099483614 0.3979131165399216
1.4944158462966555 13.06757135957723 366.53481574481896 57.44132681702561 0.4046856275796388
1.520627715413606 13.060429193409075 328.8490704254879 60.106374366945296 0.41166088979414805
1.546611192248453 13.05194051831424 295.2989624458762 62.90342029706843 0.4188494412304783
1.5723270932304618 13.042062422076958 265.46780934615356 65.84008982965119 0.42626265159300225
1.5977511701960403 13.030734689901859 238.93122883255128 68.924576226979 0.43391279080198686
1.6228377909519016 13.017916409721762 215.2443036590421 72.16569274632455 0.4418131035099364
1.647590756855063 13.00357667538537 194.10948161492976 75.57292966916334 0.44997789027849944
1.671939281398706 12.987644195460499 175.23822932906685 79.15622645608835 0.4584213831065007
1.695876254095998 12.970098940925224 158.36842623188227 82.92576776991268 0.46715682701413513
1.7193567468153852 12.95088770559973 143.2815633804055 86.89429233753187 0.4762057816133316
1.7423426834642874 12.92994914630424 129.78275946465033 91.07338721071 0.4855826291710688
1.7648220751278165 12.907303382045734 117.68217085729013 95.47711915122551 0.49530920325203637
1.7867494024854527 12.882866497502663 106.82228547504974 100.11917792682273 0.5054031150477183
1.808089236452617 12.856616120193344 97.08899573318197 105.01607579762256 0.515890017956625
1.8287984113013245 12.828483396503518 88.3332373301118 110.1843518119881 0.5267924464248452
1.8488784012835684 12.798521543268619 80.46568324516765 115.64162724153621 0.5381337433200909
1.8682658037075601 12.766614553416394 73.38511702957994 121.40812506307202 0.5499432986482543
1.8869347536475722 12.73276763704061 67.0097941619137 127.50525719605352 0.5622508766427383
1.9048580893195015 12.696955384056618 61.25765173581186 133.95546801648732 0.5750857941399442
1.9220014721580023 12.65914116993979 56.076828916419345 140.78441557505445 0.5884842661502423
1.9383163892891426 12.619257391964961 51.39222063829223 148.01979053261016 0.6024846132923475
1.953813104219045 12.57741483290975 47.16383508782934 155.6901128870402 0.6171226802300783
1.968431194159107 12.533487843819694 43.34095550893301 163.82899995568388 0.632445973604042
1.9821471259530337 12.487494106094669 39.88079633078424 172.47020273545553 0.648495989746807
1.9949376875055675 12.439422146483942 36.74617549898844 181.6530431072482 0.6653260157486383
2.0067740717993874 12.389265751266027 33.90366556586003 191.41949997211094 0.68299040084311
2.0176224003354672 12.336996823048707 31.32888816681396 201.8156005815948 0.7015483694427698
2.027460555515624 12.282613833485316 28.992428142207725 212.89130415239495 0.7210626442527157
2.0362725876789445 12.226153075659083 26.870210341439424 224.70205265227426 0.7416034258309554
2.0440179876207005 12.16756368189501 24.94285179109452 237.30903632767917 0.7632479529721641
2.050679660851538 12.106862131429793 23.18873813436358 250.77909273193842 0.7860787487845854
2.0562534682678275 12.044120926815747 21.594064074547042 265.1853139887014 0.8101839705903615
2.060702894788581 11.979275560606212 20.14215910341066 280.6094357035222 0.8356633201931146
2.0640109424672533 11.912383212090722 18.82199406200683 297.14115769389804 0.8626236965076799
2.066173258703498 11.843488544498499 17.619386691362042 314.8808636748391 0.8911856372212206
2.067168771539742 11.772602632971164 16.52448656821846 333.93794659110193 0.9214749950039176
