M[M_sun], R[km], Lambda[1], P_c[MeV/fm^3], rho_c[fm^-3]
0.24162668629717493 15.618656898711224 2160425.4255784233 3.5677272577965504 0.1711233750220791
0.2536448102631029 15.277246946361537 1723106.457286481 3.78483551780419 0.17388837138605065
0.2660410056319842 14.981249025381617 1382972.6666547894 4.011434936204536 0.17666706536643975
0.2788173236655525 14.723485118111366 1116420.0290087776 4.247781110713058 0.17945812773365805
0.29197279640380325 14.49834878725701 905855.8701644929 4.494499427468978 0.18226812839831208
0.30550925076337476 14.301166242885742 738612.8669710606 4.751746040491492 0.1850927843694507
0.3194279776637174 14.128054751208097 605046.4016250471 5.020202381934723 0.187938695639039
0.33372742225317453 13.97586530519219 497604.66169211385 5.300093641903912 0.19080250736752402
0.3484084560479749 13.841966983838098 410970.207429012 5.592147191715349 0.19369049087694604
0.36347144308082435 13.723941292366733 340623.9955743744 5.896531901582961 0.1965977384504069
0.37892621995531367 13.619961298110388 283274.7902104203 6.214111235050914 0.19953191770060327
0.3947604089171648 13.528390799728284 236380.00056136542 6.545140932964793 0.20248917702335492
0.4109868637292345 13.447810839558105 197838.71564952054 6.8903268002014455 0.20547328496180647
0.42759610027746825 13.37700866509354 166065.28969439308 7.250372530094351 0.20848728854651938
0.44459185195747636 13.314886836900904 139776.9071660071 7.6255348034889705 0.2115266974658053
0.46197571995325226 13.260519156901921 117964.2918864834 8.01676725756006 0.21459774479180588
0.4797413962593654 13.213136744931465 99793.24057900469 8.424772932400693 0.21770204427396744
0.49789998976939953 13.171972753016211 84629.20076010136 8.849989714146972 0.22083702020183993
0.5164393985293699 13.13637168042607 71928.59687967243 9.293296927361672 0.22400616485021638
0.5353604831429161 13.105814778129469 61264.71212516435 9.75557680370813 0.2272123575384615
0.5546683465566593 13.079798175298507 52294.05401282124 10.237639142547454 0.23045694954169457
0.5743532401155959 13.057815606906908 44720.18218731185 10.739950595000199 0.23373657911372128
0.5944123475671405 13.039507883821 38321.4807839201 11.263765015129604 0.23705754842552196
0.614850562296028 13.02448050419708 32894.61039643823 11.810015983729212 0.24042141812148032
0.6356562365609127 13.012439123585498 28053.748606175246 12.379682783752585 0.24382982165039097
0.6568287187002626 13.00302272185727 24365.539788389786 12.973448421675197 0.2472806408064746
0.6783617157039258 12.99597764758642 21022.26777257957 13.592651868103523 0.2507787961104611
0.7002520455616283 12.991061616063073 18168.077140343634 14.238485414053773 0.2543268597490227
0.7224882166047993 12.988002191896975 15725.145385818756 14.912139109815136 0.25792681703555065
0.7450780957897385 12.986644455380503 13630.5795416445 15.614633637477391 0.2615784728648767
0.7680002299265917 12.986764690391817 11833.252952056806 16.347253467100845 0.26528390339305585
0.7912475414716245 12.988141252194666 10287.395270741908 17.11160642794184 0.26904771207974376
0.8148229549490617 12.990672916890766 8953.586651138867 17.909148042871223 0.2728723324432909
0.8387085386335698 12.994143047642428 7805.53099115924 18.741229133222834 0.27675871383079437
0.8628900336296811 12.998412552018696 6812.156551704212 19.609223614914193 0.28070759846194077
0.8873732096954928 13.003363735681948 5953.666843139817 20.515203884120503 0.28472522036627157
0.9121282629580989 13.008869989527616 5209.303831086532 21.460964695829837 0.28881459413759336
0.9371537646470399 13.01475151997629 4563.912554798373 22.447971599767044 0.29297548985524646
0.962439536964542 13.020967959873952 4003.3649737250466 23.478287880883354 0.29721200847898854
0.9879615629413522 13.027346111309635 3515.461837707612 24.554318621087624 0.3015301045790313
1.0137062273032695 13.033801931332857 3090.815888876278 25.67798389903568 0.305931242129819
1.0396720340388725 13.040264169621864 2720.619555412585 26.851290415323685 0.31041701494881085
1.0658252698592836 13.046588087519297 2397.439020115178 28.07731427716594 0.3149959969383743
1.0921592314964013 13.052725153112007 2114.977496984328 29.3580833409457 0.3196684441359114
1.1186594633901716 13.058550624966024 1867.766798884186 30.696408963465196 0.32443941967422874
1.1452920050276558 13.06400844216956 1651.5412125158148 32.09563498302358 0.3293166002231789
1.1720575107666673 13.069018865575387 1461.5208973349077 33.557762237218604 0.3342980690782494
1.198915313483949 13.073480745463144 1294.9818440124166 35.087306073576954 0.3393972074693511
1.225862510459245 13.077341887464566 1148.6481278200217 36.68625555719757 0.3446105652434927
1.2528595264673423 13.080504354758084 1019.8589540795547 38.35969735354028 0.3499527901361842
1.2799039667672991 13.082944606061316 906.3782379336033 40.1099096791622 0.35542067708134695
1.306948734358964 13.08452449654957 806.5180019613099 41.942293497676424 0.36102837197743015
1.3339872652356841 13.085239236843321 718.3433161700268 43.86040658324956 0.366778216980676
1.3609975153212173 13.085032550993539 640.3767958886923 45.86886654603685 0.3726775674644228
1.3879293382069968 13.083766863001264 571.5980889281474 47.97304410245949 0.37873658351255984
1.414780017924408 13.0814623290615 510.6232365127604 50.17773939641266 0.3849611319850077
1.4415118909503386 13.078019100795451 456.7096215331573 52.48809310522523 0.3913577677013976
1.4681074682484372 13.073415998769015 408.8625501568032 54.91056352084067 0.3979383938653844
1.4945176015545232 13.067546322917957 366.3858395959175 57.45134284757673 0.40471207541864135
1.5207300292081298 13.060395844529433 328.7209464732192 60.1170616080582 0.41168858771205014
1.5467143336836924 13.051904864660132 295.1773427317364 62.91482810332225 0.4188784750043551
1.5724305836005805 13.0420203333207 265.3631484388265 65.852271651308 0.4262931137376641
1.59784455075844 13.030679374340206 238.82071351528145 68.9375899873533 0.43394478114892726
1.6229421623421083 13.017857216706227 215.1529571430867 72.17960125800897 0.44184672984499307
1.6476944092943389 13.003512544240813 194.01998103141224 75.58780109356208 0.45001326904471634
1.6720415450616046 12.987576599347623 175.15382218474267 79.17205714889172 0.4584583159316961
1.6959803332378829 12.970015507949554 158.30649168668506 82.94271220088378 0.46719576526715656
1.7194604907492848 12.950798144362556 143.22181290551185 86.91243774143251 0.47624687202545796
1.7424431534327216 12.929854051788157 129.73104999996957 91.09274114007837 0.4856256845399881
1.7649239226346987 12.907193720183463 117.63057560494059 95.49786807030084 0.49535473101349614
1.7868503210471722 12.882756151048499 106.78310025459082 100.14133990292554 0.505450939630678
1.8081877146090954 12.856487128004254 97.04655521537255 105.03976576372699 0.5159403236493039
1.8289014299054622 12.828355382554788 88.2985365037792 110.20969513284894 0.5268454325672451
1.848974296046288 12.798367056788317 80.4291537170143 115.66886433001949 0.5381900057461007
1.8683494137573018 12.766422403745809 73.35791229169918 121.43730547927902 0.5500026992822222
1.8870244079796823 12.73259620170611 66.97800334512696 127.53645892921597 0.5623133638688829
1.9049470839887592 12.696770150638054 61.231093661144335 133.98892704969234 0.5751518526604286
1.9220858856802028 12.658943446133543 56.05037780286534 140.82035322297347 0.5885542863547853
1.9383983902434543 12.61904438410316 51.37170627794094 148.0584220321263 0.6025589229037037
1.9538917532159898 12.577192569699806 47.14390813056178 155.73154738126811 0.6172012027442916
1.9685053066769251 12.53324982689372 43.322023884058176 163.87348856441199 0.6325290786948722
1.9822182345037027 12.487242364487539 39.86334908877078 172.51815514123285 0.6485845286210672
1.995003467400023 12.439151524473164 36.730792870812344 181.70463315866104 0.6654199877426233
2.006837105654763 12.388982828543721 33.89022977422308 191.47506272785506 0.6830902866754862
2.017680101202868 12.336698519173389 31.315435189994567 201.87550565302612 0.7016546950354123
2.027514003701306 12.282305322414386 28.980497629852703 212.9558086192082 0.7211754909582258
2.0363206173009476 12.225824032144878 26.85924128956559 224.77175364002738 0.7417239056476319
2.04406001085642 12.167221078728055 24.93246987900037 237.3842734393279 0.7633762391589239
2.050715153429969 12.106501487112595 23.178892415585175 250.86040960483678 0.78621557410885
2.0562845313060394 12.043742437005157 21.585599071029606 265.2734770939306 0.8103306726118773
2.0607261960910845 11.978882044310138 20.134390700257672 280.70478835918715 0.8358197207415413
2.0640272296408715 11.911975549336946 18.81449593823964 297.2446088352099 0.8627913058930959
2.0657945681376533 11.845787743726623 17.676891930810353 315.5164047621012 1.459294252636602
