M[M_sun], R[km], Lambda[1], P_c[MeV/fm^3], rho_c[fm^-3]
0.24162668629717493 15.618656898711224 2160425.4255784233 3.5677272577965504 0.1711233750220791
0.2536420980159311 15.277373568706599 1723163.7945987543 3.784805395317943 0.17388799592379114
0.2660382346824683 14.981277527655404 1383094.9448463842 4.011371612636282 0.1766663001384884
0.278812045221526 14.723591614476927 1116445.2301933113 4.2476824436349405 0.17945698334424
0.2919651163501646 14.498490946808229 905950.3172178712 4.49436282768582 0.18226660732802347
0.3055001926247206 14.301300005349676 738690.5297139634 4.751566869699253 0.18509084898294192
0.3194156362424926 14.128205046597428 605150.3988135878 5.019979320219239 0.18793638128764692
0.3337119834886721 13.976019796554345 497707.5980881608 5.299820816541829 0.190799760468827
0.348392636053053 13.842090341714192 411052.5568194657 5.591823921430713 0.1936873631480136
0.3634545432547356 13.724042340654625 340687.0596142145 5.89615092352644 0.19659416022387652
0.3789058629661421 13.620092183875643 279424.76263307495 6.213667938724152 0.19952787537186673
0.3947361641463077 13.528520169484864 236433.7928997536 6.544635778524749 0.20248474750134596
0.41096001363208323 13.447956554201028 197899.71040866978 6.889750035514329 0.2054683729917011
0.4275663770153332 13.377116213508966 166105.99451226983 7.249718742736234 0.208481879931257
0.4445602875579853 13.314973743677646 139825.94295472727 7.624805800369396 0.211520894132226
0.4619401577066093 13.260632595819539 118004.71715234607 8.015950322929942 0.21459142514197865
0.4797027713998212 13.213211331778554 99834.55396828835 8.4238616957745 0.2176951930484239
0.4978572034315917 13.172038898902256 84660.6308080643 8.848987535319978 0.22082976399893442
0.5163946868813192 13.136441199203267 71956.02469147326 9.292187587712911 0.22399835502992985
0.5353115130268893 13.105876873526954 61290.852169710146 9.7543527814491 0.22720397723416344
0.5546153135764692 13.07985106195172 52310.52478637075 10.236292458826247 0.23044798115345436
0.5742960831249497 13.05788470448477 44741.213152086224 10.738487101116164 0.23372718302965212
0.5943513033029943 13.039550560844507 38339.31199196964 11.262162701915026 0.23704753714356133
0.6147855707048865 13.024525982533003 32909.3010638504 11.808265385260794 0.2404107715619833
0.6355849239388772 13.012463130826294 28302.12963254075 12.377773843542691 0.24381851867375914
0.6567558111464233 13.00303051042912 24377.037436212362 12.971389905894027 0.24726887517440357
0.6782855227505203 12.99598561722951 21033.912554436632 13.590414544905078 0.2507663392943069
0.7001715088915762 12.991056751640585 18041.172564057466 14.236057286989176 0.2543136870411925
0.7224034209528335 12.988000284200083 15734.622386728863 14.909507411629043 0.2579129022552147
0.7449882318327391 12.98664258838708 13638.405296367777 15.611810458350847 0.2615640426458705
0.7679061381183618 12.986759926252066 11839.219591136472 16.344200574681683 0.2652686854900382
0.7911486165743506 12.98812333089798 10293.314384568763 17.108308500021202 0.26903167537303774
0.814720773408713 12.990651977424704 8959.248169126839 17.90558874138117 0.2728554438122229
0.8386005831236609 12.994113858594634 7809.503628622707 18.73742424519976 0.2767412323390303
0.8627791536399831 12.998384248146216 6816.86875661039 19.60512366679555 0.2806892045804344
0.8872513859604652 13.003332175395995 5957.212647841333 20.510789142482736 0.2847058742838984
0.9120114478160699 13.008829490355716 5213.062451545861 21.456214075931534 0.28879425335890657
0.9370275952443554 13.014719371699696 4566.954161475327 22.44290489113341 0.2929544456321288
0.9623028243996398 13.020922989911147 4006.149300371767 23.472841498969636 0.2971898891037592
0.9878248280772265 13.027313402344651 3517.849747484132 24.548466929705793 0.3015068585870996
1.0135650356900716 13.033769706188242 3093.373351167641 25.671749549514768 0.30590718257434985
1.0395269982739317 13.040224547911135 2722.515699497546 26.84459719037782 0.31039172915021135
1.0656761838770952 13.046554475623443 2399.281137867826 28.070130845389993 0.31496942230063957
1.092003899374031 13.052679864490512 2116.5327185294423 29.35043516195239 0.3196409153875413
1.1185009317459942 13.058518248005907 1869.3475725948495 30.688204724527413 0.32441047868975426
1.1451282495860473 13.06397558448365 1652.7436116568542 32.08690146134323 0.3292865927029025
1.171889257079115 13.068995712786371 1462.7688287827916 33.548396988350966 0.3342665072239679
1.1987424017907973 13.073446275197329 1295.974234336254 35.07726489487137 0.33936400401354144
1.2256857652509232 13.077318319125407 1149.5285497914106 36.675567587672646 0.3445760875082674
1.2526799745290567 13.080482719483786 1020.6008363113248 38.348285233558 0.3499167621125188
1.2797185767838304 13.082933446448846 907.1015370070519 40.097712052096604 0.3553829416981699
1.3067594968210967 13.08452120416019 807.1197816923938 41.92930555546208 0.36098910746045154
1.3337961104773604 13.085231447692085 718.8655770288763 43.8464827079416 0.3667368280223627
1.36080272537662 13.085034374034247 640.9177748113808 45.85403591307512 0.3726344419983593
1.3877319243225725 13.083785395536328 572.0589882111511 47.95724336522119 0.3786916095137907
1.414587088454092 13.081495853757776 511.06779012065545 50.160795292939184 0.3849136527397962
1.44130845396472 13.07804992959466 457.07085461387754 52.47003253407382 0.391308180139727
1.4679012038419095 13.073460359656963 409.2059159767174 54.89130651100515 0.39788655745820484
1.4943092482502023 13.067596964466857 366.7024845096553 57.43080295025453 0.40465783877322237
1.5205202815156187 13.060458877633826 328.98675333355965 60.09514531667174 0.4116317876798316
1.5465025534966454 13.051980064533284 295.4286438244 62.891434215667665 0.41881893570037765
1.5722181115874 13.042107962072551 265.5905201453536 65.82729056738872 0.42623064546209766
1.5976415400264279 13.030789462998193 239.03930593991058 68.91090293566745 0.43387917920009067
1.6227221630711455 13.017949432182858 215.3390866394604 72.15107944217553 0.4417777732120045
1.6474809340699228 13.003645839850316 194.197580605461 75.5573047501592 0.44994071896647286
1.6718291671114645 12.98772285089516 175.32029046014466 79.13959374872312 0.4583825791905081
1.6953636636885496 12.97024050607397 158.6965775092458 82.94065036989112 0.5535171920609454
1.7135694157722008 12.94887906796968 146.11477860215743 87.2372478565506 0.7655568056939812
1.7263524260527632 12.920434371297054 136.5294974397686 92.10344670683092 0.9663084421159285
1.734776324761422 12.884330869519435 128.87166242314413 97.54699212110556 1.1566521871763153
1.7396656756974227 12.840648430322599 122.50549515568343 103.57655553805348 1.337688807943934
1.7417281858223084 12.789760877045648 117.02323255910336 110.20215684313658 1.5109330609009082
