M[M_sun], R[km], Lambda[1], P_c[MeV/fm^3], rho_c[fm^-3]
0.24162668629717493 15.618656898711224 2160425.4255784233 3.5677272577965504 0.1711233750220791
0.25364779910938995 15.277155539842257 1722985.8480619595 3.784881188933472 0.1738889406546447
0.26604638017583976 14.9811090749141 1382772.0923254634 4.011530947534265 0.1766682256066975
0.27882671253158364 14.723263199190805 1116175.4247206815 4.24793071200101 0.17945986288315396
0.291983704661746 14.498223289051014 905731.5564287956 4.494706545964652 0.1822704347108311
0.30552388928894514 14.300953560197962 738460.8660618303 4.752017710675381 0.18509571892592705
0.31944412726920374 14.127895171600262 604894.2894092833 5.020540606672991 0.18794220485124127
0.3337462293912898 13.975703199467096 497529.2263531256 5.300507327894095 0.19080667249901598
0.34843304142352244 13.841757170922392 410839.06519262196 5.592637373549204 0.19369523352103296
0.3635004140587874 13.723719491293535 340511.4273706605 5.89710959444196 0.19660316426399146
0.37896008468405185 13.61971655417867 279254.3926421986 6.214783432312311 0.19953804733024902
0.3947956588125967 13.52823161090215 236288.99383080646 6.545906938427751 0.20249589385644237
0.41102833788238424 13.447630665376103 197749.8049048003 6.8912014049169334 0.2054807334625772
0.4276415501385663 13.376814705908048 165973.54237006986 7.251363944209225 0.20849549026141406
0.4446414431540305 13.314723885651244 139708.38063479098 7.6266402884149045 0.2115354978366402
0.46202828439365184 13.260354155343972 117897.13058879216 8.018006100021331 0.21460732823980494
0.4798012970947568 13.212967290217964 99740.15932549535 8.426154796254282 0.2177124339583362
0.49796453058339274 13.171822768176709 84579.82412530588 8.851509505543328 0.22084802414090646
0.5165096537039456 13.136245265259074 71885.09652895437 9.294979247085255 0.22401800848595083
0.5354354644515892 13.105701241328578 61230.20519185225 9.757433062584553 0.22722506646930457
0.5547494725082449 13.079696444662488 52260.1724613555 10.239662152367979 0.23047030242417188
0.5744398890380459 13.057720953205793 44692.291566777894 10.74217006780117 0.23375082881661013
0.5945024567019248 13.039423574352284 38292.5693965953 11.266195044347086 0.2370727312920473
0.614948241923245 13.0244216111288 32869.41187919926 11.812670930294004 0.24043756462627477
0.6357600518026041 13.01238141618865 28264.952944286375 12.382577904770915 0.24384696387676708
0.6569381358186842 13.00296913373929 24346.307218155343 12.976570421932621 0.2472984848797096
0.6784787115685025 12.995946694673222 21007.370265593567 13.596045092587463 0.25079768867528845
0.7003766167116703 12.991023974484705 18017.3581502711 14.242168063778708 0.25434683830351223
0.7226187860583034 12.987993000403337 15713.198659462249 14.916130555541375 0.25794792131369215
0.7452142506083039 12.986638757454694 13618.813504614887 15.61891554060596 0.2616003591133713
0.7681435884941985 12.986767742447249 11822.108964328885 16.351883830205274 0.26530698459179625
0.791396930055087 12.988154603595092 10276.768911105866 17.1166084991347 0.2690720354581112
0.8149806423628797 12.990685213866113 8945.637188738234 17.914546611972654 0.272897948267661
0.8388723704809553 12.994170428348239 7797.665019935929 18.74700025184841 0.2767852291348219
0.8630607501846262 12.998450744391231 6805.871240422477 19.61544234472571 0.2807354979806574
0.8875511871342934 13.003402532209352 5947.839892731529 20.521900167947702 0.2847545645202776
0.9123190856981537 13.00889173984432 5204.443667230339 21.468170527431987 0.2888454474217987
0.9373463429721078 13.014794134389598 4559.220413842318 22.455656956404187 0.29300741045133866
0.9626383526813881 13.021008768331301 3999.1555434713655 23.486549240086244 0.2972455603134005
0.988167493649642 13.027405141340413 3511.767107430717 24.563194884595315 0.30156536576018717
1.0139197718278816 13.033860732594471 3087.5790780483567 25.687440700220733 0.3059677377468692
1.0398924577768665 13.040316209467337 2717.7983299335588 26.86144340556451 0.31045537111769633
1.0660527571693965 13.046643222927422 2394.9828631305113 28.088211002558214 0.3150363086638597
1.0923937813090154 13.052768177056258 2112.7799048222532 29.369685171652 0.3197102036028937
1.1189006475164234 13.058608588467987 1865.6805816838435 30.708854463995845 0.3244833219837989
1.1455399737773255 13.064059360856307 1649.5000846824803 32.108883522645996 0.32936212090039285
1.1723122148789755 13.069067082414842 1459.9700386230131 33.57196927815713 0.33434594827101943
1.199175916345346 13.073510700458163 1293.546238444884 35.10251266148463 0.33944741738703477
1.2261301319983433 13.077376682797201 1147.1860201761556 36.70246955100667 0.34466286907764854
1.2531340523095942 13.080526583916084 1018.6428287997734 38.37695854112646 0.35000714396112265
1.2801832170403529 13.082965938184085 905.2615900628223 40.128414330868665 0.35547792429172204
1.3029191467635788 13.082599812219323 819.5304663205338 42.134812078344524 1.0522171108440894
