M[M_sun], R[km], Lambda[1], P_c[MeV/fm^3], rho_c[fm^-3]
0.24162668629717493 15.618656898711224 2160425.4255784233 3.5677272577965504 0.1711233750220791
0.2536442678700705 15.277263306448246 1723258.8507589998 3.7848245718125355 0.1738882349495452
0.2660404211254576 14.981262759771226 1383021.2324654823 4.011411925429941 0.1766667872948088
0.27881617423390137 14.723472974394097 1116392.57074737 4.247745256546301 0.17945771187935475
0.29197071965745774 14.498409806106078 905874.9071947685 4.494449788946467 0.1822675756618434
0.3055062426977217 14.30121248339995 725421.6151701347 4.751680932013922 0.18509208107363154
0.319423414773085 14.12810252097223 605125.3731720669 5.020121323768751 0.18793785462928145
0.3337212809598514 13.975921948846542 497689.6567475281 5.299994499846282 0.19080150917151012
0.34840258555369413 13.842014277743086 410998.60602848063 5.592029718101845 0.1936893542874195
0.36346534879092207 13.723975588893438 340637.4918022035 5.896393457013903 0.19659643814971633
0.3789197111128629 13.619976096236108 279387.6070004285 6.213950143967132 0.19953044874388548
0.3947510943811551 13.52846049709944 236396.65173630381 6.544957362489623 0.20248756735827925
0.41097750940391353 13.447849784414583 197856.05116167446 6.890117206271317 0.20547149997194483
0.42758502459397835 13.377047788733543 166073.53056068276 7.250134945689248 0.20848532307162362
0.4445807561254323 13.314914074939475 139795.24776414168 7.625269885147243 0.2115245885454632
0.4619625241723118 13.26055940791431 117974.93002098252 8.01647038415221 0.21459544823598434
0.4797273984077477 13.213144729586707 99805.07465412648 8.424441788696017 0.21769955453623868
0.497884872279411 13.17197592378049 84639.9366917755 8.849625521024583 0.2208343832880261
0.5164244221869579 13.13638749499481 71937.98450804733 9.292893790622486 0.2240033267424399
0.5353423448494739 13.105839439576886 61275.125244034476 9.755131989673892 0.2272093121061293
0.5546496676033922 13.07982222230433 52297.13393024352 10.237149751416439 0.2304536903876741
0.5743317726273268 13.057839129378282 44728.60470361042 10.739418753126078 0.23373316452414541
0.5943890929526846 13.039523837395611 38324.294863787356 11.26318272378118 0.23705391025863967
0.6148266561508177 13.024513933084249 32899.53662266578 11.809379802614897 0.24041754907886054
0.6356314212203986 13.012431100395924 28290.588608033147 12.378989057933063 0.24382571404833706
0.6568022930721488 13.003025007472692 24370.075631596133 12.972700336875041 0.24727636506052353
0.6783343981424563 12.995974476481146 21026.868618007415 13.591838800505574 0.25077426916790957
0.700224053607329 12.991062619840212 18172.32605130452 14.237603003614094 0.2543220726293214
0.7224578817347154 12.988001144713033 15729.084136953108 14.911182716327525 0.25792176022266644
0.7450450877291592 12.986642808637173 13633.401581501474 15.613607654771899 0.2615732287218474
0.7679659598209753 12.986766676768028 11835.596608659107 16.346144000053137 0.26527837297808693
0.791211878665114 12.988134911957193 10288.258307959346 17.110407907702708 0.26904188408167384
0.8147872346350168 12.990655687656606 8955.747037557056 17.907854531355827 0.2728661948236409
0.8386655260742404 12.994139940612248 7806.46856199125 18.73984636791876 0.2767523607396841
0.8628516363392885 12.998405411931207 6814.394907635281 19.607733614902834 0.2807009137715836
0.8873314829712593 13.003355433788252 5955.05053721643 20.513599477198188 0.28471818960637074
0.9120878393615618 13.00884456659888 5210.86190022162 21.45923821862079 0.2888072018621496
0.937107092054624 13.014741775772016 4564.949952047124 22.44613024454931 0.2929678419139807
0.9623917768484057 13.020953422659312 4004.3383889851434 23.476308537773807 0.29720396977850055
0.9879127953743168 13.027335282370235 3516.365829363629 24.552191972359083 0.30152165641320033
1.0136544956800182 13.033793355934993 3091.6757687771988 25.67571817719185 0.30592249827287027
1.0396196602641588 13.040247405561685 2721.2996534851645 26.848857918729227 0.3104078254146955
1.065770994289799 13.046572292478672 2398.1573023494243 28.074703617981644 0.31498633897485
1.0921029158989715 13.052701028291155 2115.651182138757 29.35530377248101 0.3196584393961023
1.118601105104185 13.05854201928334 1868.537119461304 30.69342729710335 0.32442890165293015
1.1452325265801278 13.063993514707274 1651.9837975810233 32.09246095105676 0.32930569456197045
1.1719958003614936 13.069011809641466 1461.9814143382227 33.55435860474247 0.3342865984858756
1.198851747989459 13.073466717018837 1295.411650203413 35.08365677419864 0.3393851402256343
1.22579800947747 13.077331046083929 1148.9966635849219 36.682371181792305 0.3445980348497237
1.2527941818710358 13.080498978205359 1020.1012366500712 38.35556213664873 0.3499397687346217
1.2798370453216452 13.082936601655023 906.6404408181148 40.105476614526594 0.3554069626603556
1.3068803847068746 13.084523915469438 806.690578356368 41.93757318999873 0.361014101772197
1.333917710305488 13.085234669809852 718.548984647874 43.855346104070506 0.3667631746194687
1.3609257530527605 13.08503282544543 640.5737997145761 45.86347649975751 0.3726618939420249
1.38785780142602 13.08377704610507 571.7556528095391 47.9673014640372 0.378720238109846
1.4147151492665169 13.081483165730578 510.7734071154008 50.17158118853469 0.3849438760078851
1.4414375897421638 13.078030307071375 456.8210799289657 52.48152910487742 0.3913397454157609
1.4680331089366372 13.073429655421425 408.98756250240075 54.90356465997537 0.39791955419065267
1.494441753580378 13.067566687484351 366.49847973160934 57.44387770342981 0.40469236332516073
1.5206537881079987 13.060419077871464 328.8050684776991 60.10909619230824 0.4116679438967598
1.5466374804332539 13.051932013911365 295.2699039404385 62.90632563020938 0.41885683553430625
1.5723542523396628 13.04205041814803 265.44441032799693 65.84319228237064 0.426270409657946
1.5977778828833675 13.030724332504565 238.89949303665006 68.92789055015346 0.4339209380511427
1.6228648264362386 13.017898530784484 215.22030712177894 72.169234935895 0.44182166739197015
1.6476166475888048 13.00356194755545 194.08453952035424 75.57671708315112 0.44998690044662104
1.6719661042339837 12.987625398512034 175.2141998545269 79.16025816658745 0.45843078904096934
1.6959029344146892 12.970073905300445 158.34756323024092 82.93008311401213 0.46716674366230737
1.7193833464788033 12.950864852086944 143.2651859570647 86.89891353027167 0.4762162463412172
1.742363857449779 12.929916717397871 129.7713033792308 91.07831617559702 0.4855935943036557
1.764848428999082 12.907277879813476 117.67024653972854 95.48240337253154 0.49532079801349105
1.7867743426751126 12.882839347056667 106.8065639574569 100.12482200572481 0.5054152947251275
1.8081135320726422 12.856583078017009 97.07778858907845 105.02210900253324 0.515902829479899
1.8288233207392421 12.82844829840733 88.32518131431775 110.19080606772175 0.5268059405567022
1.8489027182327928 12.79848203762301 80.45897644941586 115.64856376982806 0.53814807179393
1.8682790313153366 12.7665446032783 73.3803035878518 121.41555648481877 0.5499584262996184
1.8869583027554375 12.732722706828735 67.00147274267313 127.51322207616334 0.5622668571472469
1.904881824848626 12.69690743539557 61.253611529520526 133.9639890395847 0.5751026172852927
1.922023381793397 12.659090420310486 56.07048760509018 140.7935678033017 0.5885020981712844
1.938337096146132 12.619202600322517 51.38840814525323 148.02962877593626 0.6025035376428683
1.9538332791189765 12.577359090034392 47.157862203840196 155.7006649392058 0.6171426774252076
1.9684491085134541 12.533429102634711 43.3373736189499 163.84032976397864 0.6324671377800939
1.9821646826675416 12.487429663201373 39.87656761994408 172.4824146235542 0.648518537662961
1.9949557145990744 12.43935380608523 36.743379369778005 181.66618134560366 0.6653499472319747
2.006790519237989 12.389193594523254 33.900431643772535 191.4336498817439 0.6830158383053598
2.017639581264933 12.33691884237091 31.32604809033083 201.83085628173725 0.7015754468056719
2.027473793841341 12.282534778605884 28.98910120901967 212.90773110759875 0.7210913822280512
2.0362842496407723 12.226070749356007 26.867416260658995 224.71980291466107 0.7416341075820648
2.0440293125921816 12.167475471967618 24.940328696087484 237.3281963750052 0.763280622612927
2.05068894280469 12.106769632075423 23.185483080683788 250.79980099585825 0.7861135929051818
2.0562617111405013 12.044024455213878 21.592283078371494 265.2077666799856 0.8102213331731323
2.0607080425500275 11.979176226872063 20.14039236209919 280.6337181674663 0.835703149085677
2.0640149502330534 11.912279844985303 18.820154904989824 297.16750241598123 0.8626663796779314
2.066175952127252 11.84337990158529 17.617548683223095 314.9094822125103 0.8912314498711991
2.0671684422052428 11.772488180942993 16.52256465869705 333.9690277053509 0.921524085141132
