M[M_sun], R[km], Lambda[1], P_c[MeV/fm^3], rho_c[fm^-3]
0.24162668629717493 15.618656898711224 2160425.4255784233 3.5677272577965504 0.1711233750220791
0.2536412080021164 15.27737816417768 1723138.5623193928 3.78478573054693 0.17388775081190708
0.26603620189564614 14.981342835247439 1383025.2324047615 4.011330273689699 0.17666580058171555
0.2788085942835906 14.723642509635637 1116536.8688111445 4.24761803228831 0.17945623626968493
0.29196085382171866 14.498540194111218 906052.0998341348 4.494273654084486 0.1822656143592765
0.30549393705346567 14.301359482496688 738774.1560570619 4.751449906391525 0.18508958555599064
0.31940775716329334 14.128303796132904 605208.6940564016 5.019833705992745 0.18793487048384513
0.33370276110499014 13.976148980009844 497768.16539198917 5.299642718256411 0.19079796731461132
0.3483819008646509 13.842180018473895 411103.2159813067 5.591612894798866 0.19368532140729905
0.3634430989221748 13.724109546889437 340738.9291866667 5.895902228122982 0.19659182442401768
0.37889258334079584 13.620142525458272 283383.9818563922 6.213378565548029 0.19952523663692848
0.3947206804523966 13.528603033056173 236479.29876983527 6.544306028397319 0.202481856038199
0.4109425088143101 13.448038705882317 197935.7328382416 6.889373543409084 0.20546516662694406
0.4275473774236973 13.377189284946745 166141.46849817765 7.249291976389439 0.20847834940264082
0.44453943166412013 13.31504001233838 139855.3188670668 7.624329939666598 0.2115171059750543
0.46191618977807647 13.260719505369678 118030.12271005649 8.01541706876619 0.21458729998990456
0.4796770794630707 13.213271435411436 99857.90545906307 8.423266890753052 0.21769072094618477
0.497829638328445 13.172097514828312 84678.32675325153 8.848333372863976 0.22082502758325087
0.5163642470485379 13.136504646904704 71973.36063492767 9.291463482817294 0.22399325728632202
0.5352778897554233 13.10593732663961 61306.358765622776 9.753553825506966 0.22719850715887155
0.5545810076197599 13.07990421807731 52327.90546988615 10.235413445008229 0.23044212726433078
0.5742596455624223 13.057905356506986 44754.38618089748 10.737531848876959 0.2337210500143763
0.5943113324883058 13.039584533222344 38350.08687861561 11.261116847644432 0.23704100262715255
0.614742160723389 13.024568923672305 32919.158727155635 11.807122751859708 0.24040382244446296
0.6355406505207393 13.012476894742084 28308.63268166168 12.376527868594163 0.24381114116363387
0.6567069382058184 13.003070949022359 24385.941450020477 12.970046311025886 0.24726119573710428
0.6782349250673094 12.996010692260139 21040.33087827791 13.588954253630012 0.2507582087837228
0.7001182009787312 12.991069265881823 18184.19560841085 14.234472471159533 0.2543050893379697
0.7223471663240065 12.988010792008685 15738.92765100814 14.907789740194607 0.25790382027885966
0.7449288369679747 12.98664827393631 13643.197392302114 15.609967821930066 0.2615546243107565
0.7678444669330661 12.986753959042867 11843.271839272984 16.342208024178063 0.26525875312552655
0.7910842864991225 12.988121346633013 10296.334986721695 17.106156037454177 0.2690212086764593
0.8146515561764968 12.990658159158007 8962.798059414903 17.903265706008614 0.2728444211754851
0.8385287129778652 12.994120899425845 7812.564618142342 18.734940939722552 0.27672982283525926
0.8627078854291917 12.998376020109419 6819.983569615311 19.60244780789982 0.2806771996891451
0.8871764055559789 13.003316473151779 5960.134729576756 20.50790785427018 0.28469324803220014
0.9119296574119327 13.008815646259134 5215.25431397287 21.453113600917096 0.28878097802275193
0.9369440163603099 13.014705030585345 4568.817892604402 22.43959814329442 0.2929407112841823
0.9622161435177751 13.020902983099006 4007.726364209034 23.46928698891745 0.29717545318228944
0.9877373735992631 13.027287084525078 3519.491208391154 24.544647930672937 0.301491687516906
1.0134740271991844 13.033749588400491 3094.5086955228408 25.66768084236311 0.3058914806498629
1.0394318837813323 13.04020189743743 2723.8441758900917 26.840229044469893 0.31037522708154125
1.0655797323283671 13.046538353436642 2400.265966487486 28.065442818617296 0.3149520792510971
1.091902894658406 13.052660152581666 2117.516666217708 29.34544386698954 0.3196229497903458
1.118395428585964 13.058500775621875 1870.2369662556632 30.682850583292986 0.3243915916096101
1.1450217433921706 13.063953779440796 1653.5363374363278 32.081201945767425 0.3292670097287637
1.1717794551921468 13.068973840169312 1463.4327498651733 33.54228525892396 0.3342459100656532
1.1986303434328747 13.073432626342456 1296.6139903816488 35.07071211315437 0.3393423357408665
1.2255724946220399 13.077304122795269 1150.1215413726825 36.66859276586924 0.3445535878128088
1.252560900089868 13.080471743749602 1021.1116025051994 38.34080814193489 0.3498930763253983
1.279599299917592 13.082914979859806 907.6124859209707 40.0897521781761 0.35535831650748195
1.3066377332047248 13.08451187037412 807.5320462603989 41.92083000435509 0.3609634845854148
1.333670482189947 13.08523601879342 719.2748424585525 43.83739647885934 0.36670981905047856
1.3606753396450075 13.085041400221082 641.2456852156241 45.84435804064096 0.37260630005996037
1.3876025469417175 13.083790037197705 572.3808599721523 47.94693252290255 0.37866226152813953
1.414454474666082 13.081512817337861 511.3298715299215 50.149738449487685 0.3848826702459558
1.4411837439744697 13.07808989237119 457.34556406413594 52.45824723786833 0.39127582213191564
1.467767049971054 13.073485576920305 409.4356299526228 54.87874059194781 0.3978527322640337
1.4941740194724247 13.067629557839624 366.90976680023965 57.41740001308427 0.40462244763472377
1.5203836902478995 13.060501185677037 329.1875582320679 60.0808443627416 0.41159472417170134
1.5463644318456846 13.05202874743336 295.6015245363845 62.87616922698947 0.41878008509057124
1.5720795031110553 13.042162736352878 265.7441961760975 65.81099004874416 0.4261898840085973
1.5975018081033894 13.0308546331327 239.156017698373 68.89348941007269 0.43383637337693043
1.6225894331984525 13.018055388781496 215.46479434850153 72.13246889440755 0.4417327788568188
1.6473415115232688 13.003732718674405 194.3097117601804 75.53740601239741 0.4498933803409041
1.671689596644593 12.987821884620793 175.42324813576823 79.11841169044988 0.45833316169089516
1.6956310195124864 12.970292603969332 158.5374630922826 82.88529303210501 0.4670638161845347
1.719092501082319 12.95106716096172 143.4378440767621 86.85094931952388 0.4761076310027141
1.7420985558343027 12.930189734484346 129.92802133400684 91.02715786959754 0.4854797859035024
1.7645834448648254 12.907573118641277 117.8039623186979 95.42755824409696 0.4952004555553835
1.7865095186208202 12.883152870497 106.9366121417425 100.0662423027041 0.5052888822674173
1.8078504902374501 12.856921334306625 97.19063395144445 104.95949101648455 0.5157698600552721
1.8285749694298634 12.828838708583618 88.42984745292844 110.12367358572104 0.5266653479456861
1.848649760482602 12.798877495302321 80.5530116612057 115.57657143313116 0.5379993604689597
1.8680414427752594 12.767001849188478 73.4613518066432 121.33842838343415 0.5498014217494953
1.8867173889548607 12.733184737954968 67.07723723792262 127.43052843090355 0.5621008966073536
1.9046474222490961 12.69739682389275 61.325050542805066 133.87555370328226 0.5749280184725034
1.9217967581420858 12.659616151875392 56.13441963132336 140.6985823263516 0.5883170303410343
1.938124941607976 12.619789345739811 51.4492986653216 147.9275244644568 0.6023071349197314
1.9536203011516464 12.577947065731427 47.216053432545294 155.5911533942625 0.6169351420852798
1.9682511118077488 12.534061921954933 43.38655790999636 163.72258579302047 0.6322469457855596
1.981979086678897 12.488103399866368 39.92170274692692 172.35567924437083 0.6482845346422585
1.9947776895328542 12.440061629787637 36.78634994587976 181.52983352001678 0.6651015877770986
2.006621100849212 12.389926262362188 33.94267367840707 191.28680438889313 0.6827518524017152
2.017485336581701 12.33770742262469 31.362613702322783 201.6725366327358 0.7012944450456399
2.027334841095506 12.283365115236618 29.021882877430507 212.7372580795535 0.7207931498645633
2.036159742724978 12.226937712614143 26.898855023804163 224.5355990365432 0.7413157067934657
2.0439186451465807 12.168388857883608 24.968120777379614 237.12936443912426 0.7629415958972371
2.0505947590098046 12.107723406825476 23.212015306044073 250.5845846590269 0.7857509617239194
2.0561771674453975 12.044998367329944 21.61482291649987 264.97477081503916 0.809833614517087
2.0606470365150282 11.980218678964818 20.162472828292916 280.3816319087908 0.8352894980013306
2.0639764354977816 11.913377516164106 18.840327914163524 296.8941244262083 0.8622234583503262
2.066149791640426 11.84450725770147 17.636053156927485 314.6125126407524 0.8907560599962341
2.067161848078177 11.773665113094888 16.54007850383545 333.6465083655667 0.921014691606606
