M[M_sun], R[km], Lambda[1], P_c[MeV/fm^3], rho_c[fm^-3]
0.24162668629717493 15.618656898711224 2160425.4255784233 3.5677272577965504 0.1711233750220791
0.2536447116738539 15.27730715069288 1723045.550998608 3.7848523538204066 0.17388858123887083
0.2660430205985567 14.981213259528948 1382909.487063391 4.011470329232779 0.17666749307029853
0.2788208441673321 14.72338964081323 1116350.675930804 4.247836258527203 0.17945876736519614
0.29197733044517504 14.498269944725699 905778.6563081265 4.494575777574946 0.18226897857446195
0.30551471314606593 14.301114854648516 738541.6553670547 4.751846185774242 0.18509386612963455
0.31943334734055234 14.12800825479526 604998.9722441393 5.020327060492839 0.18793998922720095
0.33373330532026935 13.9758184687749 497584.6000186344 5.300246136702522 0.1908040427371114
0.3484175272849698 13.84188813673806 410920.2489943209 5.592327883910029 0.19369223912363628
0.3634835668939544 13.723825572295242 340594.27029976924 5.896744851289136 0.19659973851911228
0.378938503429582 13.619871792507496 283234.8593494564 6.214359019853399 0.1995341771996496
0.39477311457648184 13.528342650349092 236339.9261617626 6.5454232960113545 0.20249165296581947
0.41100189070627324 13.447739261070323 197808.41336523712 6.8906491932949265 0.20547603059667757
0.4276136798413326 13.376924778489153 166031.84694542864 7.250737979237434 0.2084903118136235
0.4446106563521137 13.314815162414172 139756.1189955369 7.6259422989976855 0.2115299413920734
0.4619936305369993 13.260453419041193 117934.15538333204 8.01722390818143 0.21460127735354836
0.47976350251998073 13.213063819065182 99776.48262267886 8.42528229987054 0.21770587400525804
0.4979242295552976 13.17189073487896 84611.37928200122 8.850549920660637 0.2208410763363567
0.5164669649237588 13.136308561556266 71912.30174721552 9.293917040188145 0.2240105304831743
0.535388314828909 13.105772939626974 61250.9044092348 9.75626102838421 0.22721704210277516
0.5546990210197186 13.079734286394077 52281.045010648704 10.238385189836023 0.2304618760848172
0.5743843485757725 13.05778598997942 44710.5333993612 10.74076869488324 0.23374183156838604
0.5944441534180076 13.039482341965936 38309.4319099292 11.26466072226377 0.2370631448199052
0.6148868556915107 13.02445882245071 32887.22510430719 11.810994590822741 0.24042736968537884
0.6356949607985753 13.012412493466147 28278.296589166348 12.38074991376762 0.2438361402063942
0.6568693438918062 13.002999930524261 24358.73941445423 12.974599174096381 0.24728721803542586
0.6784051716681095 12.995954313891776 21016.533008724884 13.593902586684727 0.2507857597764337
0.700298004569082 12.991051229697824 18163.350380881908 14.23984280662589 0.254334223669974
0.7225369660170723 12.988000196281448 15721.274172830232 14.913610315269962 0.2579345958533654
0.7451283429200809 12.986638229166386 13626.429513282555 15.616211896629821 0.26158653987876324
0.7680526118880947 12.98676710684365 11828.984575114366 16.348960156810534 0.2652924108132061
0.7913034693925679 12.988151061484833 10284.241276001929 17.11345011592927 0.26905667731010147
0.8148805188980399 12.990675009355908 8950.731168313809 17.91113786497767 0.2728817740069069
0.8387687024561336 12.994148640706946 7802.699709749593 18.743356262952275 0.2767684868912947
0.8629537614426457 12.99841837280126 6809.67867515292 19.61151571555993 0.28071788167198597
0.8874394792870065 13.003380002499098 5951.642088086635 20.51767199040122 0.2847360359906796
0.9121997945159623 13.008878424701095 5207.733403553169 21.463620598217517 0.28882596594250265
0.9372242889582498 13.014772148050447 4562.568601814425 22.45080423336229 0.29298725500254413
0.9625128769765643 13.020977861474877 4001.8083149254326 23.481332800680626 0.2972243748030191
0.988035605437692 13.027371848887112 3514.0556067566763 24.557590163082597 0.3015431008623034
1.0137850991625612 13.033828597136514 3090.0436906510836 25.681469397700482 0.3059446933404356
1.039752864044549 13.040281790483988 2719.50638856453 26.855032490968007 0.31043115183676123
1.065909121977815 13.04661231839704 2396.6526872898057 28.081330451089627 0.3150108545120843
1.092245744516962 13.052738501600572 2114.2609318796112 29.3623593767984 0.31968383523948174
1.1187482068568533 13.058571355037593 1866.992208891747 30.70099592455066 0.32445560047668537
1.145385091814273 13.064031082812184 1650.7002596123527 32.10051789583776 0.3293333774306608
1.1721506958176349 13.06903362355523 1461.001520290722 33.56299839135937 0.3343157154575739
1.1990111667805488 13.07349186130528 1294.4170028251285 35.09292018946639 0.3394157718286072
1.2259618872452491 13.07735054924857 1148.1727166464445 36.69223133998793 0.3446298421937431
1.252961028752704 13.080514593063981 1019.3816099553027 38.3660590603973 0.3499728225412021
1.2800072249023593 13.082947601048259 905.9740028815027 40.116729635872815 0.35544177574900926
1.3070606502302142 13.084552930265627 806.1366177408072 41.94955538773513 0.3610503257712491
1.3340944977099822 13.085238975837854 717.9716638351655 43.86819184575162 0.3668013588070734
1.3611051666168306 13.085028175665688 640.0820158442442 45.87715886468223 0.37270168040061724
1.3880463488265558 13.083777847968056 571.2965473486529 47.98187890535466 0.37876173021353593
1.4148929255870726 13.081449696763958 510.3974774325865 50.18721358657656 0.3849876797099243
1.4416262134739988 13.07800101998002 456.49435795079086 52.49819163908326 0.391385494491778
1.4677446982955948 13.073321611246447 409.39447704557165 54.908364989657066 0.5358303429225761
1.4718097094974116 13.055251765941401 397.56545198628623 58.69689529876721 1.5833030511686408
