M[M_sun], R[km], Lambda[1], P_c[MeV/fm^3], rho_c[fm^-3]
0.24162668629717493 15.618656898711224 2160425.4255784233 3.5677272577965504 0.1711233750220791
0.253646624672208 15.277209465291495 1723150.2979961168 3.7848616636058616 0.17388869728085535
0.26604342755945204 14.981224356736039 1382793.4422572735 4.011489900555936 0.1766677295781887
0.27882180433281234 14.723425143795758 1116251.2182326687 4.2478667538211825 0.1794591210646509
0.29197957246465206 14.498248741504804 905686.2931095271 4.494617997374693 0.18226944870173084
0.30551834227814356 14.301035406778391 738514.1582986377 4.751901564002061 0.18509446432018592
0.3194372110383473 14.127956738963569 604965.2213376564 5.0203960054091255 0.1879407045573177
0.33373856002972707 13.975738030380889 497532.7679149161 5.300330463865356 0.19080489177171706
0.348422535631334 13.841845847544045 410894.0404452113 5.592427804202755 0.19369320587995553
0.3634898409952917 13.723774000706472 340557.01497377746 5.896862610065824 0.19660084453446333
0.3789446367480269 13.61985394945151 283207.4094981181 6.214496042650081 0.19953542668256916
0.39478134144549204 13.528291537059426 236332.71804735222 6.545579440900947 0.20249302214555978
0.41101020841738156 13.447727166579128 197794.7815521996 6.890827475307793 0.2054775489211123
0.4276212973329656 13.376913116396127 166008.34184939452 7.250940071934183 0.20849198367471178
0.44462067909046904 13.314797481848727 139736.40715154732 7.626167644126225 0.21153173528419303
0.4620051147039251 13.260424902055195 117918.13446395817 8.017476437171478 0.2146032308694473
0.47977595663911055 13.213027090884816 99761.52267594662 8.42556398260474 0.21770799186563397
0.4979367004219715 13.171871246602914 84597.90830469703 8.85085971878682 0.22084331940715682
0.5164806522279295 13.136297798487966 71902.28472080729 9.294259968353016 0.22401294471883407
0.5354035595708593 13.105742859812352 61245.26269820591 9.756639412569488 0.227219632721198
0.5547139061345717 13.079728380560441 52273.300787776636 10.23879744839761 0.23046459647046272
0.5744017935656286 13.05777967244724 44702.70017188732 10.741221117092705 0.23374473625911366
0.5944634114868744 13.039451394335664 38305.90823610573 11.265156064546257 0.23706623972745006
0.6149063211479908 13.024448063529887 32880.74039998524 11.811535780503473 0.24043066102159275
0.6357159614898724 13.012408921504173 28273.886254229543 12.381340060846151 0.24383963451103685
0.6568917839220095 13.002991456268685 24354.764526301537 12.975235568452838 0.24729085540460158
0.6784285112506993 12.995949708703591 21013.235844849412 13.594594267603087 0.2507896108704747
0.7003222727816718 12.99104099751255 18157.10222622612 14.240593484185046 0.25433829613236925
0.7225633220723784 12.98799438603706 15718.832111406979 14.914423937986829 0.25793889778336687
0.7451546460405073 12.986653386683242 13623.663885989212 15.617084726346796 0.26159100120530554
0.7680817604906397 12.986760241914064 11827.137269223485 16.349904016747434 0.26529711571826325
0.791333023149734 12.988150653570536 10281.667940280175 17.114469744951958 0.26906163542076345
0.8149125937320049 12.990686840168594 8949.150821090952 17.912238316209145 0.27288699556931423
0.8388022222232165 12.994158648534274 7801.23838799264 18.744532654747836 0.2767738918029138
0.8629883686010261 12.998437422509916 6808.627627268309 19.61278334842059 0.28072356874117754
0.8874749879234967 13.003386455859882 5950.333503736237 20.519036967823535 0.2847420175333873
0.912238286507067 13.008886098171196 5206.744113472486 21.465089441752497 0.2888322551051615
0.9372642801042823 13.014781013620627 4561.573198834295 22.45237082318692 0.2929937617247947
0.9618787246842871 13.020608471931306 4014.1623625294383 23.402058853424997 0.36499754239854243
