M[M_sun], R[km], Lambda[1], P_c[MeV/fm^3], rho_c[fm^-3]
0.24162668629717493 15.618656898711224 2160425.4255784233 3.5677272577965504 0.1711233750220791
0.25364019817988803 15.277393655279797 1723243.8191461205 3.7847663234537676 0.17388750891185312
0.26603352242978 14.981420639108155 1383206.3200404411 4.011289476727929 0.17666530757450927
0.27880519485259675 14.723732026418423 1116576.972589905 4.247554465872748 0.17945549899505694
0.29195673590954346 14.498622147550819 906041.4112638729 4.494185650845658 0.18226463442278765
0.3054880357540095 14.301458708416602 738835.7646886194 4.7513344789803496 0.1850883387196534
0.31940030675674447 14.12838697630493 605239.6223627038 5.019690004840448 0.1879333795289265
0.33369445721443536 13.976193512117918 497846.5015012638 5.299466961017294 0.1907961977308474
0.3483699305249051 13.842300497919565 411165.35038508935 5.591404643369401 0.193683306517431
0.3634298620845382 13.724226113990632 340788.13426456123 5.895656804936718 0.1965895193575152
0.37887681552023317 13.62027781774148 283426.30697789346 6.213093001695645 0.199522632638436
0.394705416305311 13.528694018468425 236513.7772199429 6.5439806210823415 0.2024790026556504
0.4109254483902845 13.44809855773707 197977.9852358614 6.889002012116162 0.20546200251054647
0.42752846639015984 13.377264676066831 166173.0900496272 7.2488708360013705 0.20847486541613935
0.4445183457862372 13.31512580887133 139883.78715355595 7.623860354829916 0.21151336777781227
0.4618922516643158 13.260763667264102 118053.14673473065 8.014890850733117 0.21458322926798973
0.4796514133455027 13.213340031413807 99873.36373842382 8.422679937709018 0.21768630787983898
0.4978016185068461 13.172159684419661 84703.2733917988 8.847687849535637 0.22082035371854278
0.516334285711246 13.136561004478066 71990.1894508253 9.290748945182902 0.22398822689682968
0.535247719615028 13.105971480615196 61320.23101684471 9.752765430688486 0.22719310939062254
0.5545475332251188 13.079950806059463 52342.82262422591 10.234546055937233 0.2304363507914875
0.5742206199766922 13.057958294473329 44766.949195215275 10.736589234625814 0.2337149981388986
0.5942709252079971 13.039615530093759 38359.0407796045 11.260084836353528 0.2370345546019314
0.614702831769624 13.024575536768307 32653.191739453287 11.805995249315584 0.24039696534779822
0.6354961551695246 13.012507138426118 28319.435231981228 12.375298400483768 0.24380386139172203
0.6566608620309115 13.00309257095151 24393.679767972575 12.968720523101753 0.24725361807699486
0.6781859359111808 12.996027835760865 21048.099630515113 13.587513324677454 0.25075018607736294
0.7000655657467681 12.99108269008148 18190.323833400616 14.232908678283943 0.2542966056852987
0.7222913879534718 12.988024376484729 15746.096879265655 14.906094864421426 0.2578948588317586
0.7448697233515366 12.986667760165377 13648.00733943808 15.608149648796697 0.2615453310157406
0.7677824144808328 12.986755581056885 11847.70334515153 16.340241939261606 0.2652489526853291
0.7910209327949439 12.988120056542481 10301.190121064605 17.104032177475766 0.2690108810645836
0.8145870511391577 12.990640706451636 8966.789781618663 17.9009735539366 0.2728335450778001
0.8384589797239069 12.994106688887348 7815.725238707113 18.73249066054444 0.27671856507024434
0.8626332519494134 12.998357353605057 6822.531582156581 19.599807552445064 0.28066535452804164
0.8870991470048333 13.003302663586366 5962.399078385837 20.505064920479104 0.2846807898555238
0.9118505579881523 13.008805909339701 5217.21540285464 21.450054417151584 0.28876787948376786
0.9368623139629589 13.014684197177353 4570.841728609483 22.43633545031938 0.2929271599150597
0.9621317036868833 13.020870423178675 4009.6912056667034 23.465779856729075 0.2971612096764019
0.9876487125422636 13.027273330949425 3520.92769203075 24.540879858826013 0.3014767187562459
1.013387709321726 13.033731611202073 3096.095497936636 25.66366641297711 0.30587598819372686
1.0393381002929465 13.040176049380948 2725.0131935299264 26.835919198728835 0.3103589452604035
1.06548249435026 13.046515373973945 2401.449400664402 28.060817391469808 0.31493496778478863
1.0918023809975363 13.052637273869925 2118.5916229732525 29.34051924719551 0.3196052241828192
1.1182940088877886 13.058473241165668 1871.1458766480205 30.677567999252982 0.3243729569521061
1.1449171436855687 13.06393981469499 1654.2642598025498 32.07556538547508 0.32924760288358035
1.171671487724203 13.068951924466647 1464.2064223448976 33.53625528500848 0.3342255884318417
1.1985195263289719 13.073419104920438 1297.2933118545923 35.06424703111809 0.3393209574672602
1.225457864325253 13.077288220133926 1150.6893211884098 36.661711330634205 0.3445313893679639
1.2524454813023818 13.080458036139852 1021.6429992737236 38.33343121359584 0.3498697078336036
1.2794811197026597 13.08291029733375 908.0472634659556 40.08189898012033 0.35533402133628134
1.3065170300275863 13.084505632616784 807.9881838225798 41.91246808899136 0.3609382052484456
1.333547971559402 13.085233744987642 719.6878899021151 43.82843213864358 0.3666831723953419
1.3605500109456932 13.085044024883267 641.5779429280342 45.83481005157113 0.3725785358047416
1.3874757452156423 13.083797328799783 572.729244256742 47.936760121523925 0.37863330759009334
1.414329473269608 13.081521086326683 511.62532069326585 50.138830146671886 0.3848521039793461
1.4410519670896667 13.0781102667029 457.57766915856337 52.446620342971194 0.3912438990347492
1.467634038946351 13.073509689258776 409.64127676468695 54.86634364722075 0.3978193619183704
1.4940393630763413 13.06766341244678 367.13289063242905 57.40417739385577 0.4045875326349379
1.5202484250197341 13.060542541595954 329.3698720150824 60.06673590446288 0.41155815955086045
1.5462282210898672 13.05207712048409 295.76947341824365 62.86110981507869 0.41874175768998195
1.5719432500323671 13.042221236028526 265.90076607070085 65.79490916708754 0.4261496717844231
1.597359178512282 13.030910314467814 239.29298753725178 68.87631064353717 0.43379414463706795
1.6224510722416652 13.01812949904927 215.5810966917452 72.11410938014843 0.44168839142040844
1.6472028887329435 13.003815207447804 194.41622123732293 75.51777583409982 0.44984668061193633
1.6715508519050253 12.987915855688975 175.5171854607411 79.09751564785749 0.4582844114625934
1.6954914720018863 12.970398755411868 158.63653194382215 82.8629273669294 0.46701241995110054
1.7189555213451917 12.951186140499711 143.5228210367906 86.82699896502234 0.4760533952335667
1.7419699302368044 12.930337750077193 130.00171948226523 91.00161285413714 0.48542295764688514
1.764448788256044 12.907713569842715 117.87840506795426 95.40017263037373 0.49514036540396433
1.7863763840745337 12.88330809485157 107.0092932032445 100.03699224981884 0.5052257619222685
1.8077192482297504 12.857090461069907 97.24425300893179 104.92822493241475 0.5157034664602136
1.8284460081684624 12.829025572417034 88.48195757217339 110.09009392387372 0.5265949260747144
1.8485226579667768 12.799074993699662 80.59763437523785 115.54062554691656 0.537925108672012
1.8679183300203646 12.767215007489563 73.50834562797174 121.29991869873307 0.549723030143669
1.8865971354560234 12.733414874179037 67.12009525108468 127.38923886994318 0.5620180287879614
1.9045301410155981 12.69764183005183 61.36281081895978 133.83139949216118 0.5748408443499896
1.9216837262976176 12.659880225012792 56.169524347727624 140.65115841983024 0.5882246305367306
1.93801657006825 12.620071497921654 51.48119736424837 147.87654704819906 0.602209077323275
1.9535130622767998 12.578225159072906 47.24265158143479 155.53647852401235 0.6168315277331241
1.9681502295213487 12.534379342632013 43.41186075859544 163.66371063232572 0.6321367059311677
1.9818837026957299 12.4884358100035 39.94740292589798 172.29240709711766 0.648167709540389
1.994687009188416 12.440413601520335 36.80563052053738 181.46176342952882 0.6649775971634295
2.006537001939434 12.390302957216944 33.960976403370694 191.2134946138266 0.6826200625398596
2.0174097252956718 12.3380985190957 31.380719512380374 201.59349989975516 0.7011541626409301
2.027264408618667 12.283775461156113 29.040435885918352 212.65215543040145 0.7206442678714016
2.036096566900003 12.22737271864159 26.9140924274304 224.4436433647553 0.7411567592256263
2.043863946741631 12.168843943397343 24.981502624785737 237.03010803369693 0.7627723546081349
2.0505472717313484 12.108206023098164 23.224693981832186 250.4770956367754 0.785569759529104
2.0561379811433915 12.045495355054074 21.627629764490614 264.85846419745945 0.8096400735481623
2.0606160175898225 11.980734814916405 20.174090616445135 280.25562388951187 0.8350824471328743
2.063954961543507 11.913919863236913 18.850313711513227 296.75766505892364 0.8620023697243835
2.0661382660044896 11.845073121836382 17.645910840207986 314.4642803633969 0.8905187692752329
2.0671582654771785 11.774251550239596 16.547783134221945 333.4855262088426 0.9207604331492242
