M[M_sun], R[km], Lambda[1], P_c[MeV/fm^3], rho_c[fm^-3]
0.24162668629717493 15.618656898711224 2160425.4255784233 3.5677272577965504 0.1711233750220791
0.25364567665529353 15.27722992718108 1723153.610527713 3.7848587639476206 0.1738886611380142
0.2660438235176495 14.981200627679389 1382959.9841163082 4.011483804796059 0.17666765591452804
0.27882184129980997 14.723387553324452 1116298.5879326814 4.247857255628149 0.17945901089992516
0.2919789686629841 14.498264395286862 905731.5212693647 4.494604847402699 0.18226930227374075
0.3055164822732443 14.301088053237786 738533.2001202799 4.751884315626102 0.18509427800480655
0.319436609658447 14.127955277284626 604974.1852781711 5.020374531462167 0.18794048175682984
0.33373721231140446 13.975763672452432 497570.767263063 5.300304198853448 0.1908046273266287
0.3484209755047646 13.841859022120362 410902.20635415375 5.5923966824345595 0.19369290476828693
0.3634863538718156 13.723822254323052 340555.9934514158 5.896825932177323 0.19660050004797266
0.3789431647125381 13.619874402377265 283211.0723253762 6.214453364622586 0.1995350375103461
0.39477860871470666 13.52830923465106 236330.57406472552 6.545530806931624 0.20249259569135009
0.41100762264026336 13.447738820618282 197794.907996003 6.8907719462976225 0.20547707601275983
0.4276194440475483 13.376909637680892 166019.1202173353 7.250877126609017 0.20849146294416818
0.4446176418902768 13.31480007867288 139748.17333508644 7.626097456355753 0.21153117654440948
0.46200211367965743 13.260451550582333 117927.41364107752 8.017397782419401 0.21460262241135034
0.47977146520077574 13.21304663758657 99761.01413546549 8.425476247297413 0.21770733221877459
0.4979328584393232 13.171881795930716 84604.72383510176 8.850763226331942 0.22084262076055544
0.5164762721330094 13.136305362904192 71907.30555168232 9.294153156815247 0.22401219275894924
0.5353975862961713 13.105764598934003 61243.88484125989 9.75652155745585 0.22721882582270567
0.5547103547983595 13.079740998382961 52275.53912856731 10.238669042337813 0.23046374915270046
0.5743976141213502 13.057763482289984 44706.93758174898 10.741080201130638 0.23374383153498687
0.5944577880529873 13.03945437993429 38304.9683224694 11.265001780112287 0.23706527575551462
0.6149008001695072 13.024464712067047 32882.80721237876 11.811367215794967 0.240429635866921
0.6357088286995071 13.012393772051487 28274.880551176786 12.381156247159947 0.2438385461365613
0.6568843975268074 13.003004575852003 24355.560889992783 12.975037349914421 0.24728972246871933
0.6784213351975366 12.995964445256067 21013.643606933958 13.59437882867544 0.2507884113642451
0.7003146719705081 12.991037334429755 18160.03116839632 14.240359669248335 0.2543370276749263
0.7225551794507125 12.987989465851818 15718.612716488458 14.914170517150811 0.25793755785187916
0.7451458188855334 12.986657556229302 13624.543251693598 15.616812863952454 0.26158961162507915
0.7680736823835663 12.986763823339071 11827.844010858258 16.349610030103186 0.2652956502685761
0.7913244912395723 12.988145622801497 10282.367585466314 17.11415215798352 0.2690600911028799
0.8149028984492244 12.99068701511016 8949.432376629573 17.91189555495455 0.2728853691916698
0.8387923436100013 12.994145084582348 7801.735543956972 18.74416623972776 0.27677220831548477
0.8629770523387915 12.998436239108964 6809.138516972297 19.612388513814658 0.28072179736730984
0.8874638712700352 13.003382573635163 5950.864348711868 20.51861181248975 0.28474015443679324
0.9122263146985039 13.008876025718335 5206.957505534859 21.464631934328995 0.2888302961908622
0.937250675583805 13.014775500628279 4561.825755803498 22.45188286987313 0.2929917350445277
0.962540729308116 13.020987613767959 3978.7519588026953 23.482492277856704 0.29722908378434537
0.9880673877690964 13.027366685722413 3513.6324776044644 24.558835940601693 0.3015480497449884
1.013814815264835 13.033832710476386 3089.5514980264065 25.682796652307243 0.3059498154715779
1.0397843100276372 13.040293092930213 2719.1041860095943 26.85645745384464 0.3104365350899167
1.065940923274844 13.046622602029716 2396.267579398123 28.082859795086865 0.31501651222053983
1.0922785412434224 13.052743936555622 2113.745486764842 29.363987680357717 0.3196896961325118
1.118781655558357 13.058577484190158 1866.672851268517 30.70274263453806 0.3244617621093499
1.145419967372137 13.06404002395912 1650.5100449415406 32.10237730989401 0.3293397661942132
1.1721867718007837 13.06903638685553 1460.7967897095884 33.564992327805506 0.3343224352289808
1.199048366272149 13.073497656445891 1294.2772476309385 35.095058063109526 0.3394228411971662
1.225998429997003 13.077359012010444 1147.9533910500074 36.69450694514051 0.3446371829437092
1.2529990797239448 13.080518849267069 1019.2310438173795 38.36848163536232 0.34998045099752306
1.2800462588602732 13.082948285583502 905.8340415701653 40.119326726027275 0.3554498102783154
1.3071004288867925 13.084553459759999 805.9683366847075 41.95232077902076 0.3610586859680605
1.3341349698353153 13.085241002128212 717.8077978975107 43.87115655473193 0.36681017145539746
1.3611472489405485 13.08502709368172 639.9762771853361 45.88031667729533 0.37271086289073974
1.3880884708213665 13.08377486801178 571.2016443234473 47.985243314704356 0.37877130640860013
1.414935325148667 13.081442176356363 510.2878514691767 50.19082149942887 0.3849977894793367
1.4416687603734082 13.077997163536619 456.38286140388095 52.50203732597739 0.39139605330713495
1.4682658655283796 13.073387898335946 408.5958766524255 54.925431621689555 0.39797841611889995
1.4946779278356002 13.06750696593742 366.1498684518452 57.467201594645644 0.40475395124830466
1.5208908181738063 13.060349334366213 328.50238050246713 60.13398321932695 0.411732443127563
1.5468766359255013 13.051848893686874 294.981800563624 62.932890741441035 0.4189244458544108
1.5692451822987672 13.041595273120404 268.5527938503859 66.0496580755595 1.0067274915114337
