M[M_sun], R[km], Lambda[1], P_c[MeV/fm^3], rho_c[fm^-3]
0.24162668629717493 15.618656898711224 2160425.4255784233 3.5677272577965504 0.1711233750220791
0.2536448119182633 15.277237726826758 1723203.1660732562 3.7848364763424476 0.17388838333376763
0.26604108095784407 14.981254826040626 1383051.2304219266 4.011436951257872 0.17666708971717013
0.2788172331368537 14.723493860032075 1116412.0113592409 4.247784250468907 0.17945816415009438
0.29197313239091427 14.498355572348778 905795.1604538099 4.494503774332473 0.18226817680164595
0.30550975779095757 14.301173267783888 738615.0883358961 4.751751742076722 0.18509284595745282
0.31942837806964414 14.128048957610035 605047.9269249527 5.020209480257249 0.1879387692868749
0.33372461272198156 13.975929809058254 497653.4528328592 5.300102323864015 0.19080259478045627
0.3484089960455354 13.841960058857092 410955.29827611824 5.592157479006378 0.1936905904093167
0.36347322159869366 13.723918397947521 340628.03207559144 5.896544025347774 0.19659785231937169
0.37892742851034605 13.619949877307121 283268.76812301186 6.2141253420278835 0.19953204633924732
0.39476072949874336 13.52840293502988 236388.79584653664 6.545157008523846 0.2024893179842908
0.4109876952961531 13.447828259532448 197840.38985777326 6.890345154712156 0.20547344127652187
0.42759650330059773 13.37701022064841 166060.4387194483 7.250393335821223 0.20848746066696572
0.4445936141676605 13.314870790875835 139780.6212659111 7.625558002942446 0.21152688214837215
0.46197676763301704 13.260514314937796 117964.17330233498 8.016793255435706 0.2145979459063924
0.47974279085670407 13.213111685217413 99789.97348710925 8.42480193145945 0.21770226230634934
0.49790115672449015 13.171948659826528 84626.96955564011 8.850021607477405 0.22083725112317923
0.5164416409265659 13.13636911488514 71927.60389661473 9.293332231151917 0.22400641339110064
0.5353621069308165 13.105809294691934 61264.43216556149 9.755615757367066 0.22721262423582994
0.5546699000009971 13.079786072192128 52294.63679689 10.237682000033193 0.23045723495583084
0.5743550610075884 13.057823340841782 44720.032269973344 10.739997170103416 0.2337368781403111
0.5944136160295747 13.039498488958664 38320.410041212825 11.263816008350776 0.2370578670320906
0.6148528387894179 13.024475787840737 32893.95445317469 11.810071696363242 0.24042175694724968
0.6356586830563229 13.01241620109103 28284.671886425054 12.379743535893603 0.2438301813683259
0.6568309863080892 13.003000787571112 24364.823063339885 12.973513934336346 0.247281015249981
0.6783642682422446 12.995969193298771 21022.52532121305 13.59272307169021 0.2507791925529552
0.7002550896459598 12.991056863977189 18167.727644819133 14.23856269041445 0.2543272789770509
0.7224911081494463 12.987997837821311 15725.037739716978 14.912222865335531 0.2579272598825589
0.745080380127119 12.986643217897933 13629.774297228261 15.61472348736533 0.261578932117904
0.7680032388560672 12.986767639192982 11833.10981990898 16.347350628266287 0.26528438771709667
0.791250631754163 12.988148638168798 10287.301133659888 17.111711388103416 0.269048222465467
0.814828873779313 12.990664843358113 8953.9650209983 17.909261322086234 0.27287286994506627
0.8387118828527722 12.99413283283587 7805.363172899354 18.741350229019897 0.27675927020332525
0.8628944910549925 12.998416172067776 6769.950790281332 19.609354102046133 0.28070818387540786
0.8873774294147107 13.003367572532305 5953.545331090194 20.51534439073286 0.2847258360880328
0.9121358476521481 13.008862059370616 5209.715616376309 21.46111589308688 0.2888152415204633
0.9371561128451846 13.014753498687458 4563.640210362724 22.448132857782237 0.2929761596292352
0.9624436534528124 13.020964361582442 4003.2730385738623 23.47846122362146 0.29721271247535314
0.987964655424227 13.02735270754161 3496.0408662331324 24.554504864607566 0.30153084443612205
1.013710851798016 13.033809431971347 3090.7895501817893 25.67818232234261 0.3059320078835746
1.039676791009697 13.04026799561759 2720.499098104198 26.85150344454811 0.31041781973486066
1.0658297268866237 13.046592518595732 2397.3481801387247 28.077542909677206 0.3149968427494505
1.0921641664821544 13.05272141445137 2114.9451277423564 29.358326766339395 0.31966932031786477
1.1186644393736678 13.05855313423582 1867.7152258055874 30.69667008845049 0.3244403408095348
1.1452978180913058 13.064014386238068 1651.4409685202063 32.09591295524128 0.3293175553083397
1.1720608021950887 13.069023006406038 1461.4781832369147 33.55806031777624 0.334299073640462
1.1989205272149037 13.073476646084156 1294.950499023372 35.08762566961816 0.3393982642868167
1.2258679360011442 13.077347564655991 1148.591148512461 36.68659574115856 0.3446116626242915
1.2528657168196604 13.08050321939543 1019.774221116083 38.36005950620255 0.34995393052019935
1.2799101170137372 13.082944962660141 906.3529504515388 40.11029791747655 0.3554218781609895
1.3069552978287007 13.084524282013382 806.4962060210795 41.94270689285893 0.36102962173369596
1.3339940399345003 13.085240591029713 718.3374754696725 43.860849770963895 0.3667795343637628
1.3610032490512354 13.085030360286074 640.373139015655 45.869338597519096 0.37267894012600983
1.3879356922967843 13.0837713465232 571.5636190440699 47.97354703433269 0.37873801501902093
1.414787434301858 13.081462404990889 510.63003801749477 50.178278724506775 0.3849626432417626
1.4415181860167814 13.078018010360143 456.69738438114956 52.488667973234776 0.3913593460735673
1.4681140080732011 13.07341443165257 408.8510202983649 54.91117647468181 0.39794004382688736
1.4945254187849217 13.067544266531996 366.3891744294945 57.45199663941087 0.4047138017892911
1.5207371124967315 13.060393409676621 328.7152539871412 60.11775921476026 0.4116903956859657
1.5467207778043177 13.051902257115875 295.16316162868293 62.91557274679152 0.4188803701811862
1.5724374220305233 13.042018338037217 265.35033419177483 65.85306682082766 0.42629510215693517
1.597850592015686 13.030677403585859 238.81046182786503 68.9384394642274 0.4339468693278347
1.622948721248782 13.01785469493926 215.1456516815565 72.1805091427385 0.4418489248200415
1.6477014093245714 13.003508697723351 194.01377250490327 75.58877183584622 0.45001557841760537
1.67205011145818 12.987570335732567 175.1554967684744 79.17309051076631 0.4584607267531271
1.6959872856382585 12.970010165296756 158.30089884118107 82.94381826651133 0.4671983070027473
1.7194673761098473 12.950792846834256 143.21548912183792 86.9136222057337 0.47624955425433263
1.7424486874469487 12.929848779320883 129.71899407126443 91.09400449603305 0.48562849504196265
1.764930794886896 12.90718842227925 117.62805866548018 95.4992224909296 0.49535770291478304
1.7868563955640737 12.882749945747905 106.78141674202634 100.14278656764344 0.5054540614703774
1.8081935274432601 12.856479537217385 97.04536585380004 105.04131217574243 0.51594360745846
1.828907639111627 12.828347390947274 88.29360564231669 110.21134947643539 0.5268488913596162
1.8489797268608044 12.798358879322405 80.42558003960106 115.67064230047309 0.5381936784195274
1.86835544040577 12.766411587595044 73.35422676014277 121.43921031201123 0.5500065768236216
1.887030883962183 12.732585170833444 66.97702108482093 127.53849407724702 0.5623174370565367
1.9049527194841211 12.696757568222171 61.22890371107256 133.99111119593047 0.575156164843274
1.9220922679030157 12.658930476776401 56.05076141602052 140.8226991777451 0.588558857166802
1.9384034556685947 12.619031502767104 51.36827904926977 148.0609438473684 0.6025637737407901
1.9538974939804643 12.57717603451341 47.143412856546234 155.73425218229096 0.6172063286129843
1.9685109178869902 12.533233853687673 43.321957920947355 163.87639274587363 0.632534503729978
1.9822226657358923 12.487225247208507 39.861816093427 172.5212854502614 0.6485903083944274
1.9950072605154938 12.439131408152546 36.72837100043409 181.7080009451112 0.6654261222123393
2.006841726716062 12.388964878483527 33.88991649727235 191.4786898668727 0.6830968072267992
2.01768428228973 12.336678251624061 31.314027294488834 201.87941627577987 0.701661636005049
2.0275178602617943 12.282285279051068 28.979042446191386 212.96001950960854 0.7211828576590517
2.03632264736485 12.225803593168944 26.858925225211358 224.77630378398004 0.7417317706797776
2.044063014737572 12.16719861502844 24.932128246270118 237.38918500882272 0.7633846138360971
2.0507129822217474 12.106479482635166 23.173326543916893 250.86571809365475 0.7862245062735778
2.0562862792016037 12.04371775822454 21.585793821383838 265.27922187846633 0.8103402148364754
2.0607272327224755 11.978855771221216 20.133564681865504 280.71101318793137 0.8358299309094981
2.0640279395534136 11.911947717920137 18.814074261595422 297.2513623868099 0.8628022478567968
2.0661846353213584 11.843033175095412 17.611886831558177 315.000580651874 0.8913772805549364
2.067171429576731 11.772128496623004 16.51724698211041 334.06796555241607 0.9216803495674719
