M[M_sun], R[km], Lambda[1], P_c[MeV/fm^3], rho_c[fm^-3]
0.24162668629717493 15.618656898711224 2160425.4255784233 3.5677272577965504 0.1711233750220791
0.25364436587448375 15.277280228983905 1723086.6891687799 3.7848419793679704 0.17388845192632602
0.26604206522883583 14.981241565189727 1382965.015744197 4.011448519813742 0.1766672295163405
0.2788183698136724 14.72345137214828 1116441.955593531 4.247802276038156 0.17945837321953373
0.2919741702009199 14.498329313502364 905782.2866683075 4.4945287300239425 0.18226845468906236
0.3055115874587961 14.30115389203053 738554.0145803728 4.751784475372072 0.18509319953951503
0.3194290315688838 14.128045801454498 605028.0427672756 5.020250232387086 0.18793919210595084
0.3337284844570006 13.975872374150116 497623.1401395315 5.3001521678605865 0.19080309662679562
0.34841195872728004 13.841934904370635 410949.5869167831 5.592216539429576 0.19369116183515808
0.3634755442729284 13.723905174771167 340619.1852735373 5.89661362923744 0.1965985060538332
0.37893068459259976 13.619924700093463 283248.8427448671 6.214206331848865 0.19953278486889658
0.3947657411184636 13.528374294898914 236369.31609136405 6.545249300299166 0.20249012725848026
0.41099260345304733 13.447810428107166 197830.31859230637 6.89045053034413 0.20547433869962292
0.4276028144428765 13.376978305980309 166045.20817658148 7.250512784331155 0.20848844883387638
0.4446004835122683 13.314845355799969 139765.27476713934 7.625691194289531 0.2115279424371367
0.4619810998117535 13.260492906503973 117949.8223895917 8.01694251307718 0.2145991005349188
0.47974978940379553 13.213097775001069 99793.55906848857 8.424968419509783 0.21770351406374183
0.49790921580202513 13.171926983381148 84622.2943045096 8.85020471215367 0.22083857687927003
0.5164496003594695 13.136349054058014 71921.39603853761 9.293534916028449 0.22400784030526735
0.5353712204059459 13.10580022912882 61260.035094976345 9.755839396970591 0.227214155390935
0.5546808031002922 13.07977373055718 52290.72097721984 10.237925813631369 0.2304588447822574
0.5743648770135048 13.057818604449617 44717.068530126715 10.740264566227617 0.23373859490625742
0.5944247919438758 13.039489267340507 38317.984167460476 11.264108769989246 0.23705969621210568
0.6148649805054792 13.02448703505522 32890.96969102572 11.810391553359295 0.24042370221145531
0.6356712513049253 13.012408157213669 28282.96788603567 12.380092326025846 0.2438322465805802
0.6568441151343742 13.00299623715754 24362.41385711837 12.97389005588248 0.2472831650065028
0.6783787050129338 12.995961189081306 21020.481336808214 13.593131866411984 0.2507814686124434
0.7002696042507471 12.99105411248593 18165.972427973447 14.239006350652486 0.25432968585549504
0.7225061978777129 12.987991300025506 15722.75697588725 14.91270372431125 0.25792980236522467
0.7450969625872867 12.986643872986935 13629.223915145263 15.615239335884572 0.26158156879335853
0.768020590698792 12.986763313415535 11831.883164840678 16.347908453045854 0.2652871683337155
0.7912692556769682 12.988142616309823 10286.267040940775 17.112313989338446 0.26905115271121505
0.8148451662727235 12.990680198684855 8952.570987070229 17.909911685645884 0.2728759558736536
0.838731574161238 12.994144789691937 7804.687087639702 18.742045470058333 0.2767624644761695
0.8629140964690554 12.998415755600417 6811.202585568121 19.61010326183547 0.2807115448829123
0.8873993181884741 13.003372831772449 5952.7349578174335 20.516151075734435 0.2847293711067882
0.9121582082061176 13.008859971264364 5208.978851788848 21.461983956756608 0.2888189583177171
0.9371808066741452 13.014757762476856 4563.144551036836 22.44905868371679 0.29298000498308197
0.962468354739215 13.02096762538018 4002.7527988159004 23.479456432261394 0.2972167543133452
0.9879909314460844 13.027361033257892 3514.9447662307525 24.555574141332258 0.30153509216493973
1.0137361797468623 13.03380848130806 3090.795551379166 25.679321527639743 0.3059364042962148
1.0397032066781582 13.040271226348333 2720.165372680471 26.852726507925105 0.3104224402480625
1.0658573332285317 13.04659952505251 2397.058580665135 28.07885555752243 0.31500169880461304
1.0921924578971185 13.052728452236323 2114.5603376055374 29.359724345781093 0.3196743507457367
1.1186934049734583 13.058557736576903 1867.4492263316708 30.69816928829072 0.32444562933411697
1.1453277924743799 13.064007465257122 1651.2543740362999 32.09750888170981 0.32932303875449315
1.17209276257134 13.069031732950078 1461.2912167402283 33.55977169450387 0.33430484115648446
1.1989515629909155 13.073486677504448 1294.7604808442923 35.089460575763376 0.3394043318239947
1.22590007672165 13.077346703619256 1148.4449573628403 36.68854885114014 0.34461796305475717
1.252898826462984 13.080503760630503 1015.179224842261 38.362138747802064 0.34996047785266654
1.2799429801012014 13.082942508043388 906.2311305931149 40.112526928295885 0.35542877397580014
1.306995438574507 13.084546529279315 806.336154377111 41.94508034028115 0.36103679702482905
1.334028455056755 13.085238918004372 718.1369516564014 43.863394270884534 0.3667870979334454
1.3610392566334497 13.085027736393856 640.2301636147268 45.87204881741691 0.37268682107731715
1.3879784237272599 13.083782981436656 571.4577172079355 47.97643455277418 0.37874623382861666
1.4148244880176366 13.081457891882913 510.5733177586707 50.18137521106676 0.38497131993834355
1.4415559407475391 13.078012215738825 456.62641378422876 52.49196851138668 0.3913684081147277
1.4681513435825242 13.073408170255966 408.78216715197834 54.91469568203211 0.39794951690015873
1.494562158079715 13.067535500598742 366.3291194690582 57.45575031776836 0.4047237135682498
1.5207804402767076 13.060379185312742 328.5126035841148 60.12176445617682 0.4117007759933586
1.5467590541874594 13.051889188144216 295.1203646748047 62.919848050184854 0.4188912511682239
1.5724760341205437 13.042000180516558 265.30820569472684 65.85763222036564 0.42630651850049056
1.5978903451025097 13.030657357128115 238.77291875385333 68.9433166707959 0.4339588584474849
1.6229990252614743 13.017845619259168 215.0964388505797 72.18572169997573 0.44186152711711957
1.6477411562409952 13.003485011226386 193.97074302373042 75.59434529241548 0.4500288375387021
1.6720892067393816 12.987542464115341 175.13644908652054 79.17902350022217 0.4584745683496498
1.696026166064864 12.969980797241748 158.26724671469577 82.95016868892387 0.4672129002549559
1.7195057388044397 12.950758921856755 143.19345816961703 86.92042275958941 0.4762649541628797
1.7424874052410442 12.929811163946146 129.6964425255564 91.10125801170486 0.4856446314444093
1.764967959430878 12.907148651181277 117.60151304316001 95.50699886247718 0.49537476601033786
1.786879544590506 12.882671486703119 106.75907396247787 100.15109256674256 0.5054719854560878
1.808231177160752 12.856432070994673 97.02642197401059 105.0501908836901 0.5159624614133974
1.8289432534130312 12.828295207040917 88.27805297482521 110.22084788510975 0.5268687500055039
1.8490160109740608 12.7983026341748 80.41537214643881 115.68085052862139 0.5382147650962931
1.8683878009731845 12.766352411303478 73.34191493659416 121.45014693636159 0.5500288397829733
1.8870643347645502 12.732520205550637 66.96481937410532 127.55017892378922 0.5623408233517578
1.904986019098485 12.69668785098047 61.219428748305596 134.00365153809264 0.5751809233724438
1.922124554655258 12.658854595335226 56.03868959102401 140.83616856980268 0.5885851006646811
1.938434208337545 12.618952229705302 51.36010216057002 148.07542297287128 0.6025916250590763
1.953927083087751 12.577091116950632 47.13589279049452 155.7497819529504 0.6172357590829359
1.9685393985840915 12.53314860881397 43.315108170592545 163.89306729686945 0.6325656519298133
1.9822491822403054 12.487130702446137 39.85445325216843 172.53925836000812 0.6486234934071575
1.9950328666744177 12.43903369385141 36.72404648163293 181.7273373822937 0.6654613438007821
2.0068653209810092 12.388857957276176 33.8833361345402 191.4995154356851 0.6831342456016185
2.0177058208529774 12.336567432022266 31.30833266568237 201.90186953458874 0.7017014883246034
2.027537764148979 12.282170935578206 28.97393878228225 212.9841968289801 0.7212251544328091
2.036340561315935 12.225680971008263 26.854544769578325 224.80242901835643 0.7417769287693509
2.0440783563732072 12.167069244021146 24.92752302223556 237.417385467216 0.7634326982081959
2.050731466212459 12.106342065429772 23.174715345271206 250.89619757915753 0.7862757916383329
2.0562970739518356 12.043576665521318 21.58174969829381 265.31220648862103 0.8103950030633301
2.0607372812162783 11.978707676976056 20.131228747296827 280.74675412548345 0.8358885543657139
2.0640334055026495 11.911793276814784 18.81104659966731 297.2901391642707 0.8628650731843497
2.06618417466014 11.842868874610414 17.609938677686582 315.04270475125986 0.8914447129528804
2.067172507170924 11.771964612912202 16.51471685822498 334.1137148881808 0.9217526069888812
