M[M_sun], R[km], Lambda[1], P_c[MeV/fm^3], rho_c[fm^-3]
0.24162668629717493 15.618656898711224 2160425.4255784233 3.5677272577965504 0.1711233750220791
0.2536439547032538 15.277303019548171 1723233.1662289768 3.7848188511743905 0.17388816364455045
0.26603978691442703 14.981275723640755 1383070.05126099 4.011399899484018 0.17666664196834955
0.27881456791398546 14.723521211548347 1116410.6768664806 4.2477265184126365 0.179457494545242
0.2919689471431827 14.498425722414368 905876.7040756424 4.494423846897951 0.18226728679111234
0.30550388046877547 14.301257857638207 738632.2399991717 4.751646905170212 0.18509171351877826
0.3194204255098229 14.128154136949439 605105.3696664457 5.020078961454783 0.18793741510392367
0.33371961647866377 13.975950827535886 497688.84285735287 5.29994268674748 0.19080098749957866
0.3483995057766727 13.842039244628504 411013.08315448806 5.591968324828477 0.19368876029061097
0.3634620754672774 13.72400908291731 340656.7064006162 5.896321104245685 0.19659575859720574
0.37891530566060583 13.620008646666413 283310.3742579149 6.213865956100011 0.19952968105190613
0.3947472513219642 13.528469246036943 236409.37844509538 6.544861426907069 0.20248672613282287
0.4109719782810873 13.447879221768329 195377.57032740017 6.890007670899753 0.20547056712275585
0.42757845578551296 13.377087592161232 166052.2591674324 7.250010782625133 0.20848429590241446
0.4445745543200008 13.314942725291715 139802.85570973915 7.625131437541198 0.21152348641349755
0.4619556494779174 13.26057929490856 117981.02538597827 8.016315237093417 0.21459424804805355
0.4797203571400785 13.213169931858548 99817.55299986081 8.424268732328388 0.21769825339428248
0.49787680675958224 13.171991880003459 84643.49053464395 8.849435193414546 0.2208330052348087
0.5164146607038731 13.136419080947478 71940.79764414257 9.292683111607206 0.224001843549038
0.5353336483605523 13.105844573044678 61279.34390289967 9.754899530744643 0.22720772056925198
0.5546403333223975 13.079802540471256 52301.21005857261 10.23689399726006 0.23045198716476264
0.5743218265342258 13.05784399643351 44732.348973468324 10.739140814984092 0.2337313800751794
0.5943774837958575 13.039529763192188 38331.12477251424 11.262878421769445 0.23705200897416362
0.614815061331109 13.024524082007412 32904.300146945745 11.809047338999 0.24041552714537257
0.6356189294037332 13.012456569944286 28293.781655562132 12.378626522819767 0.24382356745103004
0.6567884592682818 13.003024348083976 24372.194629184207 12.972309395087205 0.24727413059757747
0.6783196698176583 12.995984828582817 21029.141437564936 13.591413900448293 0.2507719034382282
0.7002072898009601 12.991067692786581 18173.267847876432 14.237141866960556 0.25431957094047014
0.7224408743803847 12.987996010463537 15730.267749080942 14.91068291836059 0.257919117602415
0.7450282138441098 12.986643413268256 13634.681709054244 15.613071491600598 0.2615704882113668
0.7679485504080668 12.986759246743642 11837.11615392431 16.345564210727204 0.26527548287371333
0.7911925052901517 12.988140655911188 10289.272678878056 17.109781582272475 0.2690388384731982
0.8147652197534708 12.990669358236891 8956.664576035284 17.907178566941106 0.27286298742082676
0.8386486399354854 12.994129313278938 7807.802378129473 18.739123762727157 0.27674904074271467
0.8628276706634846 12.998406550120263 6814.931919019049 19.606954973073517 0.28069742049675916
0.8873094025513302 13.003357098066552 5955.834002850512 20.512761051009363 0.2847145154928113
0.9120641499075149 13.008851832286165 5211.602495940491 21.458336003709906 0.28880333883917086
0.9370843251310144 13.014737051812917 4565.580303198995 22.445167999271177 0.2929638452949147
0.96236121584658 13.020935187132546 4004.6318762413284 23.475274186327656 0.29719976896994194
0.9878867687477926 13.027329219362809 3516.8150996715553 24.551080645975723 0.30151724164105065
1.0136281673149963 13.0337922462986 3092.0536152728287 25.67453417773886 0.30591792899095577
1.0395926761861722 13.040238239211156 2721.6555288803283 26.847586771205414 0.31040302324824554
1.0657423875411707 13.046571716384035 2398.511176383125 28.07333937198589 0.3149812920356921
1.0920734066029774 13.052695443936546 2116.0107819276004 29.353851263231306 0.3196532112546485
1.1185709305945635 13.058531687487884 1868.7424372947003 30.69186918267831 0.3244234053033325
1.1452016268398433 13.063995854966139 1652.2000015043518 32.0908023169142 0.3292999956584255
1.1719640102545623 13.069004356520228 1462.1496365711487 33.552579994825344 0.3342806043870726
1.198819875361072 13.073457273479706 1295.5283194694546 35.081749793601446 0.339378834357783
1.2257655980775197 13.077331346552985 1149.1642551977773 36.680341364534726 0.3445914869734597
1.2527601930459769 13.0804892787071 1020.2760060332844 38.35340124502096 0.3499329642940431
1.279800808408682 13.082934117525914 906.7865305694155 40.10316008712964 0.3553997960984912
1.3068450515940035 13.084517911258239 806.8073771451288 41.93510656799873 0.3610066448001994
1.3338819625519698 13.085236339099541 718.6648838808055 43.85270173187563 0.36675531417773694
1.360889140841613 13.085035672563881 640.685039334804 45.860659918324394 0.37265370370582107
1.3878199006488356 13.083774654246575 571.8572271582608 47.96430064263892 0.3787116968034603
1.4146769289919963 13.081486484208968 510.8728620580863 50.168363221395396 0.3849348589093335
1.4413995914937767 13.07803556832539 456.91131699351087 52.47809910054278 0.3913303279089695
1.4679937337727398 13.073437628778585 409.045259048249 54.89990743040355 0.3979097095863837
1.4944022258027707 13.067576038145377 366.55153606851206 57.43997683030941 0.4046820628709307
1.5206143379008612 13.060432635472628 328.86725045910447 60.10493391690775 0.4116571566074013
1.5465973339091494 13.05194544792041 295.31601975678063 62.90188273223411 0.41884552800573316
1.572313841439455 13.042068258193959 265.49070863569267 65.83844794660553 0.4262585458623272
1.5977371910795017 13.030741382224326 238.94004117417842 68.92282221951666 0.4339084791114653
1.6228243935914628 13.017923433908184 215.2603593450645 72.16381814936237 0.4418085713337427
1.647575886193554 13.003587267636641 194.1147548250717 75.57092529681744 0.44997312192418876
1.6719253316845493 12.987654549143338 175.25109573038128 79.15409279936462 0.45841640530977484
1.6958628020672997 12.970109278874906 158.378608769249 82.92348401165539 0.4671515789443113
1.719342798473688 12.950899740308882 143.29023476541573 86.89184672157683 0.47620024349645934
1.7423288809006485 12.929962493946908 129.79091667945573 91.07077871908719 0.4855768262373593
1.7648086455080232 12.907318907425832 117.68837416647706 95.47432265543283 0.49530306711584005
1.786735248540295 12.882885917415235 106.83768700832712 100.11619099187308 0.5053966693716814
1.8080744784562468 12.856633663247022 97.09299473640263 105.01288293477378 0.5158832379056731
1.8287853644098626 12.828502593585817 88.34045100834663 110.18093612677198 0.5267853051356571
1.8488657741979186 12.798540475846844 80.47103183284416 115.63795633588127 0.5381261604957399
1.8682519401081947 12.766636775522704 73.38715340781056 121.4041922580158 0.5499352928983722
1.8869229094564755 12.732790294107074 67.014295305123 127.50104041135884 0.5622424135895024
1.9048465667816146 12.69698014140267 61.2637656567248 133.950958591467 0.5750768911347901
1.9219898867894336 12.659166904655308 56.08015098341263 140.77957211566203 0.5884748292494714
1.9383042558316275 12.619296264342866 51.39775363382541 148.0145840340396 0.6024745983333075
1.953805720029481 12.577477287743198 47.16834133751362 156.54299393337857 0.6187387016608439
1.9639754057626255 12.536969134118328 44.11795228825438 164.67052473190418 1.1938225852034086
1.9647549939451598 12.493357140193138 42.49815940933421 175.85729936432764 1.7390011263966443
