M[M_sun], R[km], Lambda[1], P_c[MeV/fm^3], rho_c[fm^-3]
0.24162668629717493 15.618656898711224 2160425.4255784233 3.5677272577965504 0.1711233750220791
0.25364152083636005 15.277354874824772 1723206.4604454048 3.7847918378609218 0.1738878269366297
0.2660399065047969 14.981203211703399 1383035.0448929376 4.011343112348489 0.17666595572933017
0.2788105019668066 14.723595506728621 1116569.4390403877 4.247638036505654 0.1794564682884604
0.29196306029587193 14.498492682031737 906005.8782885534 4.494301348643424 0.18226592274461784
0.3054959250823942 14.301353857875574 738786.4669585787 4.751486231484529 0.18508997793632256
0.3194110464887094 14.128244703214458 605185.448356516 5.019878929048503 0.1879353396905031
0.3337067839175145 13.976070730605672 497763.4880217318 5.299698029676455 0.19079852420883292
0.34838508035478555 13.842161791077837 411087.518924085 5.591678432526596 0.19368595550284365
0.3634453838198794 13.724171876823059 340713.522416721 5.895979464317472 0.19659254984270125
0.3788968552231058 13.620111559035365 283372.24375382153 6.213468434646293 0.1995260561348952
0.3947255576805369 13.528590229970135 236467.74585861157 6.544408436937451 0.2024827540227488
0.4109479579140219 13.448013836601303 197924.86287460077 6.88949046806496 0.20546616240637902
0.42755228061813605 13.377185327463682 166127.24568375043 7.249424514086807 0.20847944585304465
0.44454557800827116 13.315048240245309 139850.27790948172 7.624477723942674 0.21151828243291684
0.46192353229750627 13.26067005677847 118021.83044402997 8.015582676909165 0.2145885811027789
0.4796857946161797 13.213243344806864 99847.7629448078 8.423451613810418 0.21769210980533807
0.4978384888600731 13.17207939543967 84675.57895503633 8.848536529616476 0.22082649852494116
0.516373680553288 13.136487164415252 71966.16573561016 9.291688360414707 0.2239948404386273
0.5352889003539719 13.105915064946913 61301.99464219512 9.753801948268014 0.22720020593863274
0.554592305493162 13.079872778360972 51835.50815333949 10.235686429857383 0.2304439452369344
0.5742694269352561 13.057906819250915 44750.39898609274 10.737828509637568 0.2337229546683534
0.5943235010738753 13.039604669872602 38345.17350489373 11.261441644855736 0.23704303196600643
0.6147576972797731 13.024539646095093 32917.28789014591 11.807477603739258 0.2404059805359479
0.6355543638212754 13.012487109926733 28308.82814577813 12.37691481300975 0.24381343229023097
0.6567232637810068 13.003064677259191 24383.900069355386 12.97046357110243 0.24726358062459625
0.6782511054591788 12.996003757810762 21038.401788938834 13.589407753398293 0.2507607337489327
0.7001346683571827 12.991081093475236 18181.767610179704 14.234964641525353 0.2543077593862247
0.7223646640734153 12.988018258385319 15737.480547715257 14.908323168225582 0.25790664071393665
0.744947990353039 12.98665054040015 13641.718862567472 15.610540057210484 0.26155754919793134
0.7678639303066719 12.986752234520589 11842.369000484914 16.342826814335222 0.26526183763926203
0.7911028534894923 12.98813152018616 10294.53080881805 17.106824487170865 0.2690244591210755
0.814674456416904 12.990644171694298 8961.665992865948 17.903987125766903 0.27284784426065417
0.8385521582355546 12.994107373555275 7811.949240124617 18.73571213009508 0.2767333660559964
0.8627284788464015 12.99838661544053 6818.941047405797 19.60327879394397 0.28068092779944975
0.887198501401581 13.003332912011825 5959.361354429624 20.508802634311653 0.2846971690970797
0.9119550796234105 13.008812599921987 5214.561537168035 21.454076447027326 0.28878510065096824
0.9369696757310011 13.014703937734543 4568.228082383006 22.44062504519857 0.2929449764500629
0.9622442120402254 13.020906785298727 4007.3432364119617 23.470390830312216 0.2971799362101768
0.987763844821991 13.027303080393656 3518.8739642305336 24.54583390563259 0.30149639883241197
1.0135023217592867 13.033762421007458 3094.244608506729 25.66894436092846 0.30589635681134647
1.0394611736463644 13.04021030552905 2723.42314331764 26.841585549347613 0.31038035171270406
1.0656110228137767 13.04654597426916 2399.919868294367 28.066898657535955 0.3149574650323045
1.0919347938856856 13.052668990827769 2117.2549474791113 29.346993881209112 0.3196285288898227
1.1184283257708063 13.058503274959579 1869.9685407556922 30.68451327323954 0.3243974568561362
1.1450548447384095 13.063964171253176 1653.19554401604 32.0829718859171 0.3292730910687859
1.171814149985699 13.068974209450282 1463.2401004242647 33.54418320441605 0.3342523063376479
1.1986647304299687 13.073437430490678 1296.4056199737745 35.072747018838825 0.33934906462230074
1.2256071659305159 13.077306551424543 1149.9176650638972 36.67075872799137 0.34456057487133107
1.2525985223544895 13.080478889082913 1020.9805529848223 38.343130073340376 0.34990043169507284
1.279636324981378 13.082921565699571 907.4500407178917 40.092224027558366 0.35536596358367917
1.3066762373843355 13.08451408575993 807.4090117574093 41.92346198614738 0.36097144146511634
1.3337098932303753 13.08523453960766 719.1841808389819 43.8402180922964 0.36671820634484453
1.3607147201183416 13.085041006066186 641.1358293881747 45.847363375120004 0.3726150391643816
1.3876419519826775 13.083786600039698 572.282687372594 47.95013441090507 0.37867137513498667
1.4144958878955443 13.081507613590581 511.24694002204626 50.153171988614616 0.3848922914009733
1.4412243127889672 13.078083063795914 457.2424061859567 52.4619069790876 0.39128587041011725
1.4678103484110405 13.073472842617482 409.3566012913114 54.88264273465724 0.39786323613042246
1.4942157544599046 13.067619349072872 366.8549299433429 57.4215620685817 0.404633437754328
1.5204254594789646 13.060488422674354 329.11575423812803 60.085285271656666 0.4116062335901977
1.5464079380915163 13.052012730041461 295.54836655457746 62.8809094884288 0.4187921494328018
1.5721219965212208 13.042148155654944 265.68997072275886 65.81605186245586 0.4262025416969038
1.5975454139451142 13.030834233292731 239.1309595781802 68.89889683309313 0.4338496658714518
1.6226329691774954 13.018032119159516 215.43229529972592 72.1382480138327 0.44174675092015175
1.6473841882787652 13.003705857968786 194.2724282820893 75.54358513612439 0.4499080803298158
1.6717333267278132 12.987790214063839 175.3840045359096 79.12498930680488 0.4583485071945986
1.695671938322724 12.970258930578888 158.50648681863868 82.89233329029501 0.4670799946773508
1.7191439890786284 12.95105981145649 143.41781218099663 86.85848844623804 0.47612470341540075
1.7421408284760729 12.93014738862107 129.90294705009376 91.03519900349367 0.48549767446658626
1.7646257218940178 12.907526789660967 117.78228862022907 95.436178815471 0.4952193710138582
1.7865519760765542 12.883101896703172 106.92110450770949 100.07544981671911 0.505308751683205
1.8078923106288272 12.85686821361194 97.17551929262146 104.96933319992276 0.5157907599524332
1.8286063613222767 12.828756353650899 88.41063311318517 110.13424411978033 0.5266875160303146
1.8486890953079327 12.798815268826695 80.5345538729289 115.58788689231157 0.5380227343029617
1.8680799306777482 12.76693409811026 73.4490113017994 121.35055097305937 0.5498260988995388
1.886755894667121 12.733111152767668 67.06880774979416 127.4435261827132 0.5621269829915247
1.9046838406047564 12.697320903027371 61.31280108067052 133.88945330635062 0.5749554606047488
1.9218314634344948 12.659533946575204 56.12370898400029 140.71351131200393 0.5883461176822914
1.9381598081022915 12.61970143576077 51.43965117482171 147.94357219369633 0.6023380035253479
1.9536577973793785 12.5778663461567 47.20857626045075 155.60836518692827 0.6169677601553062
1.9682819506034184 12.533962627625636 43.3783916580426 163.7411199753099 0.632281649819192
1.9820071017033067 12.487998095273337 39.915808297172326 172.37559774652104 0.648321311978635
1.9948061516284086 12.439949898864258 36.777441989996916 181.55126258978018 0.6651406211248035
2.0066457498342323 12.389807273397663 33.93548411151788 191.3098831172576 0.6827933413084837
2.0175092473658673 12.337583922762514 31.355230389653705 201.69741844904803 0.7013386078152053
2.027357462804278 12.283235155371191 29.017669346171136 212.76404970963134 0.7208400202184921
2.036179010198862 12.22680086852604 26.894158136180543 224.56454832748227 0.7413657463320388
2.0439360110803517 12.16824273376387 24.96422653286568 237.16061236322824 0.7629948764783177
2.050608769411885 12.107573622321127 23.207807350791324 250.61842465804415 0.7858080083131064
2.056189323857143 12.044842219322607 21.61113686583561 265.01138708853176 0.8098945461235393
2.0606568109112096 11.980051836095596 20.158583316003536 280.42130276129404 0.8353546834118323
2.063983714092769 11.913206074236474 18.83773129862944 296.9370860071107 0.862293063809292
2.0661537979207036 11.844330086470144 17.63369168369035 314.6591811162061 0.8908307670464528
2.067162962938793 11.773474774176547 16.536855023707687 333.69719138139186 0.921094741381571
