M[M_sun], R[km], Lambda[1], P_c[MeV/fm^3], rho_c[fm^-3]
0.24162668629717493 15.618656898711224 2160425.4255784233 3.5677272577965504 0.1711233750220791
0.25363203759176056 15.277612837515482 1723509.7117321065 3.784609873590772 0.17388555883978477
0.26601575768652164 14.981777901505513 1383585.9449682066 4.010960603741124 0.17666133333855127
0.2787776824928576 14.724217224579283 1117192.697409013 4.247042059790221 0.17944955585667913
0.2919187054195453 14.499212654546694 906578.0178856946 4.493476282615589 0.18225673544291005
0.305439496319529 14.302094456366778 739341.923647104 4.750404081834278 0.18507828865478618
0.3193403156920576 14.12905341410696 605725.1211101202 5.018531743008244 0.18792136211536936
0.3336225915483009 13.976969335208416 498333.40688449726 5.2980503637602485 0.19078193494702889
0.3482870307969962 13.84299535600481 411582.6009276621 5.589726192062531 0.19366706703931097
0.3633320268459358 13.724978731182535 341186.31151808694 5.89367881840384 0.19657094168941183
0.3787678633550307 13.620927416097688 279878.02645733336 6.2107915701909775 0.19950164635421735
0.3945798066712227 13.52938353640863 236851.6201065956 6.5413581522532525 0.20245600714680112
0.41078594625159154 13.44873978848571 198262.7179754252 6.886007915861192 0.2054365035304154
0.4273733542813541 13.377878801703801 166444.1054648597 7.245477048359304 0.2084467894807298
0.4443462322807156 13.315720018019615 140125.97138237674 7.620076272603006 0.21148324405012917
0.46170578225608316 13.261316998667766 118267.46455743285 8.010650518876584 0.21455042687291837
0.47944909995098317 13.213823294469409 100066.70390462362 8.417950329617844 0.21765074783886418
0.49758219811864096 13.172607951901009 84870.29997103858 8.842486417729262 0.22078269312986382
0.5160939896038621 13.136967253230905 72146.0433728966 9.28499157816436 0.22394769467408915
0.5349888105094007 13.106360164056207 60859.99523862668 9.746413138768736 0.2271496182376759
0.5542707229569068 13.080294205422051 52457.06631248351 10.227557482327214 0.2303898096174962
0.5739252834283497 13.058232863804443 44869.37664551743 10.72899475149486 0.23366623920472143
0.5939599397073162 13.039887990110481 38114.61723580387 11.251770325777343 0.23698260538938953
0.6143671517373522 13.024794322275802 33012.479287778966 11.796911653381999 0.24034172192887684
0.6351394748204914 13.012672921399517 28391.85076624731 12.365393603245053 0.24374521435230626
0.6562792252949263 13.003217712067183 24458.435728337736 12.958040004958427 0.24719257261504018
0.6777862865702726 12.99613726607381 21104.63746136929 13.575905551053818 0.2506855571037352
0.6996444679389638 12.991175298369228 18241.35014473576 14.22031148824167 0.2542282653145133
0.7218478036940827 12.988055791442697 15789.810011769727 14.892442106316938 0.2578226715532141
0.7444044443493387 12.98666504617449 13687.707147476985 15.593504024420024 0.26147047229875364
0.7672942861262597 12.98673558154019 11884.589387938024 16.32440530096129 0.2651700110153681
0.7905096665413752 12.988064318599088 10331.894060035713 17.08692514646395 0.2689276953656999
0.8140452468699394 12.990563916960742 8994.281392536644 17.88251149295159 0.27274594391852686
0.8378993177596766 12.994013818098438 7841.624560174189 18.712689886308144 0.27662731081314756
0.8620512485508941 12.998263848839638 6844.478422718672 19.578542776055095 0.2805699528873725
0.8864892929968361 13.003175252968463 5982.272126421879 20.48216840023706 0.2845804537536616
0.9112171261028332 13.008649414562095 5235.303710834507 21.425416947597018 0.2886623889738258
0.9362098766914364 13.014528065808383 4586.714202303268 22.410059596071985 0.29281802497571874
0.9614504114525344 13.020704422852424 4023.709664934869 23.437536231339745 0.29704650392169707
0.986942528006217 13.027088022571887 3533.5233112540623 24.510535703072637 0.3013561758304848
1.0126524896108713 13.0335470471857 3107.2594916576677 25.631279367031677 0.3057507916888168
1.038577598633705 13.039982846282125 2735.1250529391955 26.801213966624324 0.310227835142868
1.0647040946916324 13.046326861986099 2410.331092476288 28.02357201628508 0.31479718094644993
1.0909997829701843 13.052452629929304 2126.690840930371 29.300865620764526 0.3194624954751184
1.1174660529372673 13.058305452651236 1878.2151968159417 30.635033270245025 0.3242229129393488
1.1440672207881764 13.063772556859352 1660.6600817151734 32.02995027762652 0.3290898480959263
1.1707990324908604 13.06879990352523 1469.9600551651472 33.48770531657921 0.33406197003252386
1.1976247607262538 13.073274303830221 1302.4695110059927 35.012195419946906 0.33914883690034076
1.224542245685417 13.077165105858077 1155.367796638462 36.60630897359871 0.3443526699402679
1.2515082626343996 13.080357794880141 1025.93133550003 38.27404152189995 0.34968157430982594
1.2785237020538887 13.082839540588589 911.8454853510383 40.01867660451641 0.3551384324273939
1.305541640963743 13.084467507454711 811.3421003088098 41.84510997735998 0.36073446298770534
1.3325604773930133 13.085248801952888 722.7153202624174 43.7562687533952 0.36646866549422913
1.3595381190229252 13.08506785786921 644.39047041136 45.75795035603955 0.3723550382507362
1.3864481211290938 13.083866631309862 575.1519787558069 47.85479073442956 0.37839979223577064
1.4132741901785237 13.081613810086552 513.8597903654554 50.0510256065613 0.38460606598169594
1.4399948932328932 13.078269981076684 459.6005794874053 52.35303431177639 0.390986946856744
1.4665610924134374 13.07370962957905 411.48444958296653 54.76656233993306 0.3975507685844287
1.4929587142659444 13.067931668252655 368.7576634285507 57.297753537997096 0.404306515021082
1.5191586573934208 13.060870794757573 330.84537211912095 59.95318574482154 0.4112638737790427
1.5451311224168602 13.05246259550661 297.1182940314418 62.73990981986871 0.41843329406634566
1.5708387887781385 13.042677064249705 267.11418531335056 65.66549240231546 0.42582604923262257
1.5962549266363575 13.031445074210943 240.39052024533592 68.73806277831939 0.4334543045720227
1.6213494932934767 13.018735082424762 216.57195318592687 71.96636428114854 0.44133119100136464
1.6460817139360007 13.00449485499967 195.32887317544987 75.35981070207255 0.44947088530635093
1.6704383025708855 12.988667412568375 176.34406452642293 78.92854825018745 0.45788869773164154
1.6943791537283048 12.971251998017166 159.38856712377464 82.6829613777172 0.46659885863203693
1.7178711836621792 12.952172048293965 144.20892144712997 86.63428884320943 0.4756170016228443
1.740877491502794 12.931380604886082 130.62133056541492 90.79607832516315 0.48496571897445856
1.7633556281825489 12.908835744738393 118.44121598158975 95.1798372541252 0.4946569003899763
1.785303551274016 12.884557136410518 107.51574342983798 99.80166428267934 0.5047179343785964
1.8066529975237693 12.858426341901751 97.71910721982078 104.67622705015013 0.5151675877002128
1.8274051802631386 12.830498701937097 88.90343555451685 109.81995347538279 0.5260283987554586
1.8474932902980552 12.800640016231908 80.99040923317 115.2514602724057 0.5373277929981375
1.8669205736901897 12.768928704976403 73.85990772807044 120.99014109793642 0.5490924364692731
1.8856133686058474 12.735223883007055 67.44214548910077 127.05711287597968 0.5613514545681564
1.9035742647552343 12.699583163069676 61.65930180069288 133.47539072633535 0.5741366440469691
1.920762386419757 12.661963058177003 56.4414780244623 140.26971905793067 0.5874814416056918
1.9371460925582278 12.622348954832818 51.72844583360601 147.46654429883148 0.6014204166359577
1.952686231341429 12.580675204218641 47.46926243671803 155.09666080063857 0.6159978845001615
1.96734411402699 12.536929821734077 43.61626396302942 163.19022936163222 0.6312501434874705
1.9811341964150488 12.49116329293047 40.13381489532381 171.7835871341017 0.6472282291119039
1.9939842721839833 12.443293342533616 36.98131978988288 180.91438456830628 0.663980538977875
2.0058677802306972 12.39329931803706 34.12037514632141 190.624009360853 0.6815603378307766
2.016784211871142 12.341245029425165 31.527487601787332 200.95799540814278 0.700026204855667
2.026697258569824 12.2870911440891 29.174902426234162 211.96648241880388 0.7194425412559562
2.035583991850834 12.230844770001072 27.03825045829906 223.70433651194364 0.7398788497301414
2.043416907453595 12.172508728215716 25.09507366972646 236.23086563803284 0.7614075816529252
2.050168546909359 12.112057894051224 23.32944743284071 249.61299687890528 0.784113084343269
2.055815041003143 12.049497753696423 21.724185254118815 263.92353292707486 0.8080842935958804
2.0603590117921304 11.9849086152033 20.262728870469875 279.2427661423155 0.83341816356283
2.063774673905522 11.91828252877585 18.932079461842314 295.65981493737155 0.8602219222419185
2.0660296658542188 11.849613464702418 17.72004172264602 313.27292441316996 0.8886116427206007
2.067127868875276 11.77897037801876 16.61758454528118 332.1912201248562 0.9187152109607742
