M[M_sun], R[km], Lambda[1], P_c[MeV/fm^3], rho_c[fm^-3]
0.24162668629717493 15.618656898711224 2160425.4255784233 3.5677272577965504 0.1711233750220791
0.25364151752540404 15.277381667575652 1723207.290142653 3.784795556145186 0.1738878732832493
0.26603784922154144 14.981273770776054 1383037.2119570044 4.01135092885684 0.1766660501872206
0.27881041618267 14.723615995898617 1116547.2864826631 4.247650215613497 0.17945660954775786
0.2919627932193485 14.49853697751022 905976.7432665577 4.494318209868172 0.18226611049826869
0.3054979468629364 14.301305974692617 738712.3837704841 4.751508347259517 0.18509021682890103
0.31941157511621154 14.128258163159291 605170.9114212521 5.0199064622082545 0.18793562535766237
0.3337079111927841 13.976082157640237 497765.3217208703 5.299731704994241 0.1907988632634056
0.3483871131111678 13.842142383209891 411075.190947957 5.591718334003242 0.1936863415606067
0.3634477844837148 13.724102270714 340718.5759293307 5.896026488275683 0.1965929915016681
0.378899439488109 13.620102073066775 283356.97023610916 6.2135231500264645 0.19952655507328076
0.39472717685223113 13.528610583673435 236457.21624180613 6.544470786853336 0.2024833007472805
0.4109512718212153 13.447998664586699 197918.0745187075 6.889561656017917 0.20546676867285926
0.42755651517160315 13.377158345229757 166117.63158150567 7.249505207953969 0.2084801134127276
0.4445497192603854 13.315012038745033 139841.70142100242 7.624567700623051 0.21151899870514745
0.4619278489841141 13.26068946313858 118014.54931586066 8.01568350559733 0.21458936109419835
0.47968997721906453 13.213239886077309 99841.40473873615 8.423564080581404 0.21769295539823022
0.4978444055009976 13.172083105033053 84671.78607913996 8.84866021972924 0.2208273940942063
0.516379240106747 13.136474834430219 71963.33181190584 9.291825275277587 0.22399580432779762
0.5352951922851691 13.105901355374261 61296.40822849406 9.753953015991927 0.22720124022823543
0.5545988815191089 13.079878841256242 52321.522930154206 10.235852634939896 0.2304450520979471
0.5742763401477772 13.057898621911642 44748.633877725784 10.738009129888862 0.23372411430631587
0.5943308522651759 13.039571729178316 38344.16660529187 11.26163939613312 0.2370442675195661
0.6147651798019164 13.024533406203027 32914.795218408624 11.807693653994871 0.24040729448197393
0.6355625235450154 13.012458394358697 28305.90167757281 12.377150403049818 0.2438148272363397
0.6567313127149746 13.00305816070875 24381.60024998009 12.97071761907793 0.24726503265864694
0.6782610392885108 12.996004886331226 21037.9710949203 13.589683866261606 0.2507622710713806
0.7001432222141932 12.991071641477625 18180.166101337225 14.235264299401313 0.2543093850448266
0.7223745484111412 12.988001921239084 15736.34198547702 14.908647946325196 0.25790835793817535
0.744958486277812 12.98665904223811 13640.40981033574 15.6108884635787 0.26155933002017856
0.7678759702867124 12.986750772672101 11841.349916659008 16.343203566293276 0.2652637156532803
0.791115978544235 12.988126591437275 10294.101514091202 17.107231475104594 0.26902643816557953
0.8146855473897352 12.990661370589024 8960.79124174854 17.904426365373507 0.2728499284211804
0.8385650570336695 12.994120750392423 7811.271287922968 18.736181673353148 0.27673552336431906
0.8627425988016854 12.99837534896592 6818.108376324439 19.60378474489281 0.2806831976822706
0.8872133977383979 13.00332475326428 5959.010581644686 20.50934742747785 0.2846995564652055
0.9119702029719154 13.00881640110036 5214.170528804205 21.45466268362259 0.28878761074630266
0.9369853311145323 13.014711155363099 4567.83959608303 22.441250283475583 0.2929475733339089
0.962260144391286 13.020917953572486 4007.1395389954882 23.47106291494305 0.2971826657455584
0.9877811135203062 13.027305460391975 3518.6442011521044 24.54655599924273 0.30149926736753113
1.013519879573931 13.033758452828593 3093.9161570420492 25.66971366879297 0.30589932571855594
1.0394788743582533 13.04021755764469 2723.1123068088573 26.842411474341528 0.3103834719086071
1.0656301822603027 13.046544080839123 2399.7135279584622 28.0677850647569 0.31496074423805415
1.0919538517265703 13.05267374996589 2117.1590329707306 29.347937629588053 0.3196319258045224
1.1184482829612685 13.058508655250042 1869.7893774115178 30.68552562753798 0.3244010280015229
1.145075931532032 13.063969850714496 1653.1405340074368 32.08404954260765 0.3292767937910297
1.171834379735383 13.068982791788093 1463.1020849260185 33.54533880119644 0.3342562008179449
1.1986849372675974 13.07344183513178 1296.2712309406888 35.07398600832424 0.33935316162463824
1.2256292345435482 13.077309288492735 1149.8182879726307 36.67207751543665 0.34456482907548563
1.2526202252488847 13.080483162001856 1020.840162825608 38.34454382816096 0.3499049101604186
1.279658921345485 13.082927247916592 907.3248920195948 40.0937290651454 0.35537061966717287
1.3066994054178407 13.08451605073969 807.3376133115144 41.925064526084995 0.3609762861861315
1.3337335103065457 13.085233882515416 719.1192319360994 43.84193609678268 0.36672331314266426
1.3607381419476898 13.085038237913292 641.0804527782931 45.84919324518955 0.3726203601779748
1.387667202018861 13.083786025015216 572.229316220516 47.95208396032998 0.3786769241819782
1.4145216399432927 13.081504482443044 511.1913124564038 50.15526258862479 0.38489814949259066
1.4412417116630456 13.078060159499389 457.180691208781 52.464135311739916 0.3912919885766964
1.4678347767264897 13.073468610783868 409.3196995438587 54.885018663931525 0.3978696317047273
1.4942413463817137 13.067611863024817 366.80717124344994 57.4240962573142 0.40464012940879696
1.5204517944603753 13.06048125945522 329.0852995139795 60.08798925304925 0.41161324144693356
1.5464342795547341 13.05200422083901 295.5223270002072 62.88379574469365 0.4187994951844634
1.5721492184973977 13.04213666852753 265.67063626613304 65.81913391138713 0.4262102487396634
1.5975717144531285 13.030822786124222 239.10452899062872 68.90218932345844 0.4338577594513284
1.6226599025065083 13.018019881508021 215.39839585093947 72.14176683058378 0.44175525829417994
1.6474103131185098 13.003688844116644 194.2518699601588 75.54734751655295 0.44991703094369323
1.6717597810678004 12.987771643073867 175.36467653978505 79.12899433028055 0.45835785086854686
1.6956980775860733 12.970237682563148 158.48687061295868 82.89662001889712 0.4670898455671934
1.7191622038940793 12.95100955949622 143.39764452549016 86.86307893937179 0.4761350986237831
1.742166494985453 12.930121775673978 129.88508578911888 91.0400951722008 0.4855085666397447
1.7646477367350148 12.907490633792136 117.7675170489147 95.4414278094623 0.49523088847871855
1.7865763182556942 12.883073038782562 106.90130399441448 100.08105620592276 0.5053208500278802
1.8079175759392245 12.85683538636403 97.16486761337592 104.97532604664005 0.5158034857749988
1.828630508435782 12.82872214636174 88.40068088065631 110.14068046995396 0.5267010140763496
1.8487137703355558 12.798776587160031 80.52911839673934 115.5947768385233 0.5380369665542974
1.868104157562713 12.766893153283105 73.44046196142986 121.35793239443086 0.549841124768462
1.8867789114446356 12.733067542749314 67.06235728606566 127.45144050643286 0.5621428669760806
1.9047061593103833 12.697272763613752 61.3047919685603 133.89791678400525 0.5749721701375256
1.9218530314779816 12.659484356616609 56.11869765341025 140.72260160322395 0.588363829026451
1.9381741676754247 12.619617743599147 51.43418503947791 147.95334371448308 0.6023567995317447
1.9536787397107098 12.5778091147985 47.202702779194766 155.61884553412307 0.6169876214623379
1.9683004656066398 12.533903018238435 43.37351466128272 163.75240556202687 0.6323027813358065
1.9820263380636656 12.487933739353275 39.911651950621156 172.38772628468897 0.6483437059982551
1.994821445902529 12.439881974317647 36.77460084364572 181.56431095828023 0.6651643889089522
2.006661220407345 12.389738071577156 33.93055967907047 191.3239360162476 0.6828186043735371
2.01752412261309 12.337508549737525 31.353616329154708 201.71256931050328 0.7013654990997792
2.027370153850691 12.283156357459811 29.01434016628101 212.7803635243345 0.7208685602612909
2.036190519825765 12.226717921072273 26.8905880334564 224.58217602576877 0.741396216228183
2.043946526435403 12.168155155432999 24.960729828484048 237.17963979127993 0.763027319991035
2.0506182829544435 12.107482524595053 23.205466597121433 250.63903051336405 0.7858427451274508
2.0561970846527347 12.044747114087865 21.609439578387587 265.03368354213694 0.8099316487177349
2.060662239421351 11.979952210205079 20.156747451954793 280.44544965780915 0.8353943449107274
2.063986898847058 11.91310221241698 18.835328561238658 296.9632464245058 0.862335448372925
2.0661559813344854 11.844222293807654 17.631207933675693 314.6875988566349 0.8908762582595399
2.0671638434218713 11.773364151342594 16.53518977297385 333.7280537938328 0.9211434860967495
