M[M_sun], R[km], Lambda[1], P_c[MeV/fm^3], rho_c[fm^-3]
0.24162668629717493 15.618656898711224 2160425.4255784233 3.5677272577965504 0.1711233750220791
0.2536388782923008 15.277449621884509 1723282.0459882545 3.7847462568886825 0.17388725879179975
0.266031119351913 14.981473660405356 1383234.305777451 4.011247293757772 0.1766647978182096
0.27880265786671643 14.723753401868677 1116659.5651180563 4.247488740364491 0.1794547366782074
0.2919515209090798 14.498723669163947 906154.5747315603 4.49409465912837 0.18226362120889758
0.3054816360398137 14.301532210849304 738919.4760039515 4.751215132643453 0.185087049551439
0.31939318063929245 14.128461960673661 605286.2466554653 5.019541425820655 0.18793183796424992
0.3336850824937823 13.976286613924293 497932.819399346 5.299285239033166 0.19079436809199854
0.3483609788972496 13.842357484481093 411215.31337465736 5.591189325808601 0.19368122326079842
0.363416701894666 13.724332871993083 340841.0308341009 5.895403056059909 0.19658713609436523
0.37886269295690567 13.620359694519792 283476.55197694513 6.212797752399801 0.1995199403203612
0.39469009655139364 13.528772976936871 236553.89845884475 6.5436441790086874 0.2024760525131754
0.41090734747336943 13.448202221395086 198011.34269230862 6.888617884487272 0.20545873111846594
0.42750776772783566 13.377375213573478 166225.1082605248 7.248435420172094 0.20847126333257127
0.44449615580640783 13.315190415331427 139914.05456042584 7.623374855253972 0.21150950288901255
0.4618696223791249 13.260818216441162 118086.25946067605 8.014346802082297 0.21457902061183118
0.4796255515760586 13.213399452692618 99908.06515667932 8.422073099939805 0.21768174530815812
0.49777452142521056 13.172207192741729 84724.47842756473 8.84702046098105 0.22081552154025438
0.5163038298373622 13.136605240124991 72013.63255537422 9.290010209307095 0.22398302615020918
0.5352134622609923 13.10603386138987 61338.97587697831 9.75195034151883 0.22718752885871524
0.554510465141706 13.079981976992974 52359.816122439435 10.233649303443832 0.23043037876970573
0.5741833712670175 13.057982902671183 44779.508117598096 10.735614715608756 0.23370874142494089
0.594233772649105 13.039667561347805 38371.15018271678 11.2590179010732 0.23702788837099234
0.6146589235423144 13.024607947617863 32940.19939036851 11.804829598501117 0.2403898762460008
0.635450175913618 13.012546018940144 28095.12631889312 12.374027342025213 0.24379633536027262
0.6566128943846598 13.003104390253542 24402.75586797921 12.967349893657962 0.2472457841211472
0.6781342870845944 12.996031804960344 21055.217614748075 13.586023669008828 0.2507418920737026
0.7000117165802355 12.99109474041272 18196.80506205027 14.231292013859573 0.2542878352018952
0.722234366137675 12.98802350872186 15752.341023566001 14.904342696016263 0.2578855944569156
0.7448118344966336 12.986650854112646 13653.394078082012 15.606270024747024 0.2615357236244026
0.7677205112647818 12.98674251095639 11852.429538243357 16.338209416818234 0.26523882107072316
0.7909550068142996 12.988109119421026 10235.390874142446 17.101836562052295 0.26900020453027707
0.8145182044640368 12.990631057950104 8970.385747748218 17.89860397531692 0.2728223015966827
0.8383871094958693 12.994087284120749 7818.867778358311 18.729957626300244 0.2767069270885194
0.8625580903746255 12.998349712962936 6825.219403487882 19.597078142749954 0.2806531093880883
0.8870209460027084 13.00328466843587 5964.912844713034 20.502126006989954 0.2846679110809286
0.911770257245302 13.008780457944376 5219.51307623102 21.446891972874482 0.288754338813176
0.9367784710838933 13.01466534046561 4572.93240110531 22.43296264479198 0.29291315120108313
0.962043861333375 13.020859737629538 4011.2713990096445 23.462154385528635 0.2971464855606245
0.9875574755976203 13.027249932221697 3522.581935387099 24.536984668263873 0.30146124501327626
1.013293855727738 13.03371200526752 3097.5260160901025 25.65951657540261 0.30585997317131325
1.0392384958467127 13.04015863197425 2726.2209943821313 26.831464009324865 0.3103421143570792
1.0653833792789769 13.046492009620556 2402.4924449463415 28.056036009555896 0.3149172793739849
1.0917015631665707 13.052613714804993 2119.5704127060817 29.33542861193195 0.3195869010215364
1.118186935404785 13.058457735430718 1871.9622238166398 30.67210736886139 0.32435369422455973
1.1448074164921893 13.063917127603688 1655.063857936874 32.06970915755193 0.32922734976929335
1.1715597012235113 13.068930328582525 1464.8777204993871 33.53002215092733 0.33420458212732523
1.19840957120414 13.073406520639129 1297.9472072924782 35.05756417562567 0.339298859075873
1.2253406751077438 13.077269404438132 1151.294279503706 36.65459813744773 0.34450844330784297
1.2523261403027925 13.080443658593746 1017.726896862659 38.325805893793245 0.3498455524921053
1.279357738849086 13.08289855510234 908.5209729828331 40.07378140115006 0.35530890825885525
1.3063920096334714 13.084508593205733 808.4129207847922 41.90382471763646 0.3609120750273747
1.333420118988641 13.085228374902131 720.0088124637556 43.81916613361711 0.3666556290363784
1.3604197242115088 13.085046968504384 642.0198756425658 45.82494081728595 0.3725498374120744
1.3873444575841842 13.08380723832967 573.016769726489 47.926245531846654 0.37860337967368846
1.4141909826633468 13.081541064782463 511.8899872462189 50.12755498766164 0.3848205097412512
1.4409156676081678 13.078124933062057 457.8402133570097 52.43460250269429 0.39121090254804447
1.4674976747564286 13.073536589361987 409.89689895692754 54.85352994934431 0.39778486974818034
1.49390074338559 13.067697319411597 367.32907392691857 57.39051035652953 0.40455144412652116
1.5201085523431594 13.060583249332556 329.5532152511384 60.05215335501786 0.4115203662370328
1.54608834901325 13.052125969166815 295.9536645280805 62.845544466298115 0.4187021426398353
1.571801182786933 13.04227988078474 266.05228824829413 65.77828815077255 0.42610810888704387
1.597217389192799 13.03097845919759 239.443368327577 68.85855499656994 0.43375049781322184
1.6223090663759512 13.018207108460631 215.72305369584512 72.09513347766661 0.4416425137543192
1.647060768204184 13.003902612637548 194.53169850869688 75.49748676372536 0.44979841339433224
1.6714149824474351 12.988012874867154 175.62988725932067 79.0758151249513 0.45823359402275093
1.69534922057832 12.970509867324365 158.73342006574478 82.83981133161487 0.46695929936927255
1.7188148320140562 12.95130602416106 143.61249343850332 86.80224527929416 0.47599734031443747
1.7418295413023006 12.93047232232136 130.08259834638844 90.97521121074094 0.4853642237084242
1.764310605751928 12.907863800084183 117.95200953231195 95.37186891299102 0.49507826072811373
1.7862386759000668 12.883472222299039 107.07426256205578 100.00676182038006 0.5051605259670497
1.8075843946801735 12.857263389397668 97.30491907914653 104.89591115707987 0.5156348480905576
1.828313745970777 12.829213926844263 88.53449933819641 110.05538937267622 0.5265221451325574
1.84839238955919 12.799280527726161 80.64907779394517 115.50347581925382 0.5378483701540463
1.8677905166655213 12.767437625380344 73.55229491662888 121.26011965785005 0.5496420138811525
1.8864725197136893 12.73365249558547 67.16197796530724 127.346567263977 0.56193238721527
1.9044089842486887 12.697895692045423 61.40048082782825 133.78576772318192 0.574750753069486
1.921547910046179 12.660091302736966 56.20060244844291 140.60214801220778 0.5881291396249659
1.9379031753765454 12.620361085535714 51.51344660984948 147.82386477732587 0.602107740354144
1.9534083041871666 12.578542627750421 47.27154624546531 155.47997566251956 0.616724449154579
1.9680482014292875 12.53470273574144 43.43811896844587 163.60286769430593 0.6320227815435492
1.9817875791264197 12.488779986587252 39.971551935951176 172.22702085982766 0.6480469810024163
1.9945951848476768 12.440777010594163 36.829474149413564 181.39141966044014 0.6648494650126628
2.006451911235814 12.390683289980808 33.982677751325994 191.13773695305076 0.6824838720845063
2.0173367263110227 12.338523426494593 31.401122171882754 201.51182495731305 0.7010091976746641
2.0271929446856713 12.284202176034235 29.05740196711855 212.56417917590642 0.7204903069766797
2.0360189507077338 12.227785502947448 26.929377763553227 224.34862039107983 0.7409925097534521
2.043806347155444 12.169314695780017 24.99607323769956 236.927541976696 0.7625974700590697
2.0504973617770728 12.108697379016707 23.239074477126202 250.36602387558392 0.7853825176462741
2.05609722502889 12.046010469428628 21.63951003879561 264.7382824330559 0.8094400841097814
2.060584413448253 11.981271147090922 20.18528898379969 280.1254191724898 0.8348685004341577
2.063932077040798 11.914481228226395 18.861037035566955 296.6166626959406 0.8617739206313904
2.0661230961483463 11.84565423192913 17.654960969245455 314.3111152926005 0.8902735821221388
2.0671540192462157 11.774857666271432 16.556932905029793 333.31918927084934 0.9204977172425646
