M[M_sun], R[km], Lambda[1], P_c[MeV/fm^3], rho_c[fm^-3]
0.24162668629717493 15.618656898711224 2160425.4255784233 3.5677272577965504 0.1711233750220791
0.25363622140961234 15.277452981243828 1723438.9039931449 3.784679468402299 0.1738864263055368
0.2660238209018348 14.981640527832694 1383408.4818101965 4.011106896492492 0.1766631012001155
0.27879060219322915 14.723977240238247 1116892.6006691318 4.247269990085022 0.1794521995046152
0.2919356148111994 14.498954323391466 906403.8514534371 4.493791821477044 0.1822602490413651
0.30546163325314907 14.30180515121181 739158.6278985805 4.750817931625585 0.1850827590223765
0.31936842487194517 14.12872111614484 595263.5854967473 5.019046941680406 0.18792670750044146
0.33365479352041527 13.976582194129271 498096.7475553102 5.298680461333211 0.19078827898406767
0.3483247043129215 13.842620717239162 411392.31083098776 5.590472750868166 0.19367429020112675
0.3633758728481347 13.724613163907277 341013.9111677865 5.894558594539116 0.19657920473305482
0.37881682068394223 13.620619609652708 283636.56276390783 6.211815194331428 0.19951098057385455
0.39463568110131253 13.529077874494664 236714.43264595448 6.542524550806549 0.20246623488638626
0.41084823338262 13.448443205170129 198125.85274669118 6.887339584400372 0.2054478445785081
0.42744286124566516 13.377592160973458 166328.1197016545 7.246986463934738 0.2084592764889553
0.4444230907049297 13.315454605508348 140022.16073151285 7.621759253399136 0.21149664165941948
0.4617901279109595 13.261045872864775 118169.55793770157 8.012536391370386 0.21456501562132035
0.4795387291840621 13.213611044782464 99987.90129107179 8.420053776488306 0.21766656281876526
0.49767973456595355 13.172410011096105 84788.37235074193 8.84479967508102 0.22079944210146937
0.5162011203205664 13.136772912813376 72081.18770952878 9.287552043794648 0.2239657205117528
0.5351030357940812 13.10619211838693 61399.52238979725 9.749238145550231 0.22716895972946524
0.554395167348062 13.080131662210867 52409.026337771276 10.230665415118201 0.23041050723747564
0.5740565297326109 13.058101831842464 44824.470733759976 10.732372102271498 0.23368792284287979
0.5941005858485414 13.039765153403122 38411.053626382716 11.255467830348266 0.2370057074648598
0.6145162552233631 13.024705608887531 32973.51929586908 11.800951119089119 0.24036628862007584
0.635295199870718 13.012620582981926 28124.70468439811 12.369798196414546 0.2437712942752967
0.6564471498483717 13.003150662185444 24430.11730983616 12.962789501375516 0.24721971878893761
0.6779643999329155 12.99607574782258 21080.489899962315 13.581067316810348 0.2507142964325477
0.6998324414714606 12.991133114759807 18218.07439289221 14.225913153572028 0.2542586546223199
0.7220458195485451 12.988044127643489 15770.445916078776 14.898513074820997 0.2578547710521639
0.7446125810011305 12.986658899228406 13670.32673983426 15.600016417403461 0.261503759331844
0.7675115821397905 12.986739682439804 11868.290982384335 16.331447200289713 0.26520511311735095
0.7907359387779259 12.988097325462059 10317.659388302167 17.094531833441295 0.2689646841086304
0.8142871889099744 12.990610058652738 8982.138116097934 17.890720585472565 0.2727848954755606
0.8381485688119268 12.99404548155878 7830.385478890023 18.721530527332785 0.276668208929062
0.8623084171634939 12.998302545980241 6834.717394943517 19.587997851031684 0.28061237184578874
0.8867607152852983 13.003233398727108 5973.38698809059 20.492348865956888 0.284625066132952
0.9114991594528938 13.008710643978143 5227.180149899056 21.43637133842885 0.28870929250311866
0.9364971897194234 13.014599734964959 4580.001673625954 22.421742319190734 0.2928665483564202
0.9617512820373071 13.020790450167123 4017.131853576242 23.450093685168152 0.29709750347287733
0.987255842871117 13.0271783019865 3527.943976184708 24.524026887126176 0.3014097699001637
1.01297685174397 13.033636825066207 3102.1976729065445 25.64571184080915 0.30580669804187527
1.038918502144771 13.040077494840594 2730.6539702716395 26.816643712215647 0.31028612594328475
1.065051037021132 13.046412615972843 2406.4036183542603 28.040130855156697 0.31485843929177104
1.0913570816199198 13.05253463864834 2123.022270170723 29.318494932024613 0.31952595017120244
1.1178343493341036 13.058379199504236 1875.1301272411217 30.653943190858268 0.32428961890964436
1.144449205898688 13.063848543753215 1657.8768793051431 32.05022935863917 0.32915998104682476
1.1711867236064057 13.068869798605263 1467.3373505905172 33.50928888539826 0.3341347088848031
1.1980217948591394 13.073331194731756 1300.2573331872165 35.03533534074465 0.3392253543451722
1.2249487019001881 13.077223468980947 1153.2874093717771 36.63093818662585 0.3444321199689732
1.2519307805863589 13.080423018313848 1023.9685756591934 38.30044289952071 0.34976520808637107
1.2789495536943185 13.082872091486271 910.1690547122397 40.046781422087236 0.3552253793437451
1.3059749745419167 13.084483114301326 809.8494318625732 41.875076267800516 0.3608251641081496
1.3329958664083303 13.0852250014637 721.3663924795632 43.78834726132618 0.36656401940958266
1.359987876822147 13.08505899763644 643.1632460923302 45.79211603681143 0.3724543874093639
1.3869049764032897 13.083839860318122 574.0257500838093 47.891274797436104 0.3785038416747573
1.4137384751572661 13.081566710844239 512.8654976853363 50.090055293367094 0.38471543146528614
1.4404662493187312 13.078195655261077 458.71161694209536 52.394633316834856 0.3911011621388343
1.4670361579829523 13.073613138400962 410.68465628826 54.81091450210375 0.3976701566284298
1.4934398701110732 13.067813254706374 368.02100538610824 57.3450575697925 0.4044314237272518
1.5196434234071472 13.060726587546851 330.2076923164505 60.003656562336175 0.41139467802919505
1.5456212842959314 13.05228966895615 296.517127045518 62.79378000523546 0.41857039797097373
1.5713293667597354 13.042475198451042 266.59086327017076 65.72301381342729 0.4259698886021197
1.5967428435257738 13.031203492090427 239.89440994552834 68.79950832234964 0.43360534963624187
1.6218378884455376 13.018454212945727 216.14067168221104 72.0320298704284 0.44148994940463016
1.6465751659984411 13.004190315140642 194.91526607703625 75.43001741318378 0.4496379054083038
1.670940369455758 12.98834105521006 175.9801798347633 79.0036447097391 0.4580645722480007
1.6948717886801632 12.970872586486953 159.05195642560142 82.76294366248258 0.4667826576894815
1.7183618739432054 12.951747070526132 143.89829649533968 86.71993343913931 0.4758109444946826
1.7413623694506828 12.930918901836334 130.33926223732794 90.88742091698624 0.4851689226192655
1.763846787298849 12.90835152213137 118.19087369640776 95.27775568153803 0.4948717552838424
1.7857812023627846 12.884001401836585 107.29390041143458 99.90624374196862 0.5049436123146912
1.8071203438076031 12.85781964103204 97.51118828339759 104.78846596103799 0.5154066851109742
1.8278686915853468 12.829842549645564 88.7175428298538 109.93999896800376 0.5262801531724784
1.8479465156865622 12.799933419780222 80.81588955109362 115.37995765834036 0.5375932242564396
1.8673638513849882 12.768167000345505 73.70091886652231 121.12779540791756 0.5493726501997178
1.8860578141403421 12.734437392871351 67.30195539202016 127.20469509714893 0.5616476509084639
1.9039883957167412 12.698677832326522 61.52750994909768 133.63374477168438 0.5744501273323671
1.9211654834049792 12.66101976870756 56.320706088000286 140.43920733397093 0.5878116692205522
1.9375283828187353 12.621317122107618 51.619772404691986 147.64872040443498 0.6017708414389125
1.953045097902091 12.579552191627895 47.37083489283457 155.2921333701768 0.616368469207311
1.967708513600736 12.535801968450999 43.528529667856155 163.40060165154443 0.6316440517220192
1.981463071804582 12.48993751287267 40.05194982440544 172.00965582086286 0.6476456402241695
1.9943051702059074 12.442032382559983 36.901037469168195 181.1575794677363 0.664423521859275
2.0061665867303 12.3919672139702 34.05080552169788 190.88590555042916 0.6820311517517501
2.0170603835417795 12.339839624591825 31.462926768576075 201.24033011516892 0.7005273211106161
2.026949204647818 12.285615195950285 29.115267157793298 212.27117410166616 0.7199766674610912
2.0358088940157772 12.229293436903752 26.982583421557056 224.03277110515137 0.7404465567434196
2.0436155762595 12.170877538465726 25.044452071155305 236.58609888139162 0.7620144545043748
2.05033535833134 12.110335749028604 23.283551204427877 249.99684933564714 0.7847601728197481
2.0559576316930572 12.047715123518739 21.681507333831195 264.33883945136233 0.8087753877810953
2.060470742437195 11.98304551083985 20.22269746787485 279.69267563899075 0.8341574351786084
2.0638498044186213 11.916330536713954 18.895604757066693 296.1478303747334 0.8610139718592883
2.066078084449519 11.847593952141091 17.687087725315852 313.80209142409524 0.8894587350259513
2.0671412074550863 11.776870720217348 16.58582279977667 332.76640721805 0.9196246421460869
