M[M_sun], R[km], Lambda[1], P_c[MeV/fm^3], rho_c[fm^-3]
0.24162668629717493 15.618656898711224 2160425.4255784233 3.5677272577965504 0.1711233750220791
0.2536435094597113 15.277282711649569 1723205.7456240049 3.7848104101634825 0.17388805843142158
0.26603814269449566 14.981317830797137 1383071.705421039 4.011382154807882 0.17666642753441064
0.27881311509981627 14.723579802647478 1116469.106298198 4.247698869755093 0.17945717386248014
0.2919664187613324 14.49848935956707 905923.7921780053 4.494385568751556 0.18226686055506836
0.3055015084027432 14.301268071712615 738695.3834774122 4.751596697831969 0.1850911711837031
0.319417875800113 14.128174996829372 605142.6009617993 5.020016455101029 0.18793676657637826
0.33371523157058686 13.975963028469229 497719.40941141685 5.299866235780091 0.19080021776519215
0.34839496586171675 13.842077615671533 411036.2925148557 5.59187773838533 0.19368788384185406
0.36345706125574667 13.724027407052382 340683.2051156461 5.896214347206265 0.1965947559124993
0.37890905315643053 13.62004575147116 283338.38926556753 6.213741736583096 0.19952854831948189
0.39473980537917536 13.528506008231636 233305.0589816424 6.544719873901221 0.20248548490419033
0.41096442775464914 13.447943448325306 197891.27318348677 6.889846051777204 0.2054691907064874
0.42757085817835505 13.377110392817231 166096.5123671987 7.249827580812471 0.20848278032076892
0.4445648123179867 13.314978068793845 139820.37976721342 7.624927159404656 0.2115218602281803
0.46194599508381584 13.260606414392033 117992.58287060745 8.01608631959754 0.2145924771861511
0.47971067641710113 13.2131783539072 99838.93186353608 8.424013390460663 0.21769633358039858
0.4978655734832113 13.172011802462718 84656.44206938395 8.849154368672453 0.22083097194368875
0.5164023208087547 13.136429709659717 71948.24680790326 9.292372259457668 0.2239996551305259
0.5353190320344097 13.105872718461665 61285.61432125482 9.754556543592969 0.22720537229765794
0.5546256769306972 13.079838338075758 52309.191145096134 10.23651663944807 0.23044947410894256
0.5743055890318448 13.05786672567641 44736.96732617165 10.738730726136636 0.23372874717774914
0.594361488171511 13.03955120043459 38334.4147769664 11.262429434872326 0.2370492036959054
0.6147965011908264 13.024536175588285 32907.72247792273 11.808556801735902 0.2404125438603696
0.6355967950969689 13.012438004499591 28298.691102406738 12.378091617406639 0.24382040023638735
0.6567671586115114 13.003043419193688 24375.659667348646 12.971732577888858 0.24727083374700676
0.6782972545078029 12.995993442355495 21032.204929548112 13.590786980719871 0.25076841291714214
0.7001850111880353 12.991055104144236 18039.779825828653 14.236461483369578 0.25431587982628295
0.7224170289118981 12.987995731566919 15733.272056480122 14.90994549360719 0.25791521855976934
0.7450034758115858 12.986654191216287 13540.768659844893 15.61228041341179 0.26156644474440854
0.7679215236482461 12.986749514259884 11837.915271242895 16.344708766528 0.26527121869893316
0.7911655161099586 12.98812973027295 10291.406685494276 17.10885747890816 0.2690343448714652
0.8147382637981191 12.990654032636916 8958.548421573023 17.906181226632146 0.27285825511237405
0.8386185322589127 12.99411838023363 7809.429784903423 18.73805760901101 0.27674414231803174
0.8627972875741651 12.998391909845154 6816.101804896713 19.60580614376736 0.2806922664241912
0.8872709071371079 13.003336419977238 5956.788551190388 20.5115240170202 0.28470909461806565
0.9120306019807488 13.008830654533377 5212.444575971539 21.457004857333825 0.28879763925587115
0.9370478697771496 13.014727757666645 4566.37611731667 22.443748285468338 0.29295794861204016
0.9623253488633776 13.020932131082347 4005.6263828607193 23.47374808929304 0.2971935710364368
0.9878485079836992 13.027318653333234 3498.1995494547837 24.549440982789303 0.30151072803759565
1.0135875471080624 13.033779518035857 3093.0248750603714 25.672787295165268 0.30591118743467366
1.039550352097359 13.040229269963655 2722.2035698105765 26.84571131403353 0.31039593810876287
1.0657002610590114 13.04655782961979 2398.9960855799004 28.07132656163163 0.31497384577495463
1.0920299863677063 13.05268628382009 2116.2920472184956 29.351708233253 0.31964549766255373
1.118526304219983 13.058525213566163 1869.0949483978907 30.689570348506507 0.3244152960168307
1.1451547685363297 13.063982197890956 1652.5236145485662 32.08835518123542 0.3292915875412664
1.1719177072031406 13.06899884979003 1462.5725923205175 33.54995585427629 0.334271760762862
1.1987707407852188 13.07345810261154 1295.7729629279963 35.07893626341974 0.33936953077622184
1.2257149980968363 13.077320010321163 1149.4057900616767 36.67734660908292 0.34458182635595036
1.252709275544902 13.08048863923241 1020.4738303530493 38.35019237404608 0.3499228035154983
1.2797483487915484 13.082933330669407 906.9728570022572 40.09974234058492 0.3553892227324772
1.3067924419718655 13.084522304911047 806.9822251161754 41.93146738335252 0.36099564299367987
1.3338283408580593 13.085233944266776 718.7632143367031 43.84880030992723 0.36674371713403947
1.360835501722778 13.085034358208313 640.8339062186316 45.85650443350578 0.3726416201204485
1.387764639650911 13.0837780712627 571.9956552619922 47.95987334657367 0.3786990952896963
1.4146198646869184 13.081492783448562 510.98284843303713 50.163615570034885 0.38492155546701934
1.441342744144094 13.07804407166863 457.03093984843946 52.47303863030075 0.39131643375367925
1.4679353240955009 13.073452491978724 409.1413391389779 54.894511735303304 0.39789518534556845
1.4943440333762574 13.067588713301266 366.6601692097033 57.43422168952119 0.40466686612844605
1.5205557571342523 13.06044867568883 328.9461540056329 60.09879313226491 0.4116412416535704
1.5465377062561643 13.051967700110529 295.38418541435124 62.89532794953926 0.41882884556264643
1.572253522190452 13.042092235523526 265.5534996961586 65.83144845891707 0.4262410427817099
1.5976771995833516 13.030770216366923 238.99886529289273 68.91534475039404 0.43389009804215184
1.6227642470322885 13.017958349123537 215.30817378004156 72.15582661379479 0.44178925035543026
1.6475160942790066 13.003625138251701 194.16429458318788 75.56238053727988 0.44995279414374534
1.6718646522336098 12.987697402871488 175.29197663829456 79.1449969085777 0.45839518470063273
1.6958028712583193 12.970155795550946 158.41926141001338 82.913748250957 0.46712920619458154
1.719268108191933 12.950917387237967 143.33538399586058 86.88142097732546 0.4761766343152938
1.7422701608052453 12.930019913169582 129.8221669914809 91.05965865151467 0.48555208818016016
1.764750202462925 12.907380041053054 117.71817712990637 95.4624011486763 0.49527690866807317
1.7866782126872587 12.882953945044347 106.85573039375377 100.10345766577623 0.5053691914063841
1.8080175579995261 12.856706883096908 97.11886375224434 104.99927176506574 0.515854334558268
1.8287295750947237 12.82858212628738 88.36128830724316 110.16637509720789 0.5267548618961855
1.8488109077620811 12.798626907419756 80.49104904991846 115.62230734433831 0.538093835079264
1.868198358950415 12.766727263807892 73.40649989073805 121.38742683368254 0.5499011646382722
1.886871049470209 12.732889873654173 67.03213356747167 127.48306443361062 0.5622063359455947
1.9047958446204654 12.697086232593087 61.27793799583676 133.9317351416627 0.5750389380760482
1.9219406512571766 12.65928279049859 56.09382115967307 140.75892474686793 0.5884346003232629
1.9382572201079262 12.619405047340594 51.41000378520872 147.99238910994555 0.6024319052925463
1.953756574941897 12.57757781525873 47.178149594349485 155.66072346463224 0.6170669843326927
1.9683766865347858 12.533661281734311 43.35397838674963 163.79744444633945 0.632387027650342
1.982096570394912 12.487674827004682 39.894009977404444 172.43619061255518 0.64843319008068
1.994889752527465 12.43961282309003 36.758374806999036 181.61645108114996 0.6652593628657232
2.0067243303757505 12.389450409641437 33.91723558027172 191.3800904360726 0.6829195538475276
2.017582626428823 12.337207206745992 31.339628970157246 201.77311142874913 0.701472955387678
2.027422841149789 12.282836618420871 29.0006789820232 212.84555307162213 0.7209826054741039
2.0362386366404843 12.22638551716809 26.878686608393632 224.65261621083826 0.7415179737650186
2.0439825791474973 12.167842657075461 24.950557838595756 237.01462205882098 0.7857353038553018
2.0469143200448663 12.114291101741959 23.629272608447344 252.31040494212644 1.5280596232462764
