M[M_sun], R[km], Lambda[1], P_c[MeV/fm^3], rho_c[fm^-3]
0.24162668629717493 15.618656898711224 2160425.4255784233 3.5677272577965504 0.1711233750220791
0.2536449584409283 15.277271138948631 1723300.370703989 3.784837989718955 0.17388840219727572
0.266041472749439 14.98125215255134 1382937.8097367655 4.011440132701876 0.17666712816304334
0.27881751364151725 14.723479532794904 1116405.934306973 4.247789207638883 0.1794582216457958
0.29197354000460624 14.498344641457845 905832.9259928057 4.494510637334433 0.1822682532227656
0.3055103079797952 14.301172277349302 738633.9463603403 4.7517607439715634 0.18509294319509748
0.31942848899669807 14.128046427268988 605034.5778847662 5.020220687382459 0.1879388855651245
0.3337254557618487 13.975943497701545 497659.5417725754 5.300116031307631 0.19080273279166873
0.34840981374210195 13.841953201987756 410958.3730277918 5.592173721020493 0.19369074755527127
0.3634740598900661 13.723908105385686 340623.3490640484 5.8965631668731575 0.19659803210062887
0.3789276080604479 13.619954927004175 283260.79225229047 6.214147614743885 0.19953224943959916
0.3947627164058041 13.528390795650141 236376.839060835 6.545182389333533 0.20248954053970394
0.4109890208125579 13.447801852537067 197831.86032444483 6.890374133644282 0.20547368807326838
0.42759858773083204 13.37702004753172 166059.33806631234 7.250426184857754 0.20848773241862648
0.44459548561117007 13.314865622770178 139778.76318871087 7.625594631317724 0.21152717373379132
0.461978711598144 13.260525565788047 117961.10805427184 8.016834302106457 0.21459826343557545
0.4797445937903891 13.213132475570015 99793.98510462914 8.424847716557728 0.217702606546282
0.4979042902568838 13.17193147047574 84627.42383820843 8.850071962207574 0.22083761571294058
0.516444242286293 13.136358352432524 71927.13766570661 9.293387970502714 0.2240068057996052
0.535364832419577 13.105802051668796 61261.90389989892 9.755677259333238 0.22721304531084524
0.5546726540706354 13.079793909861765 52292.52559020166 10.237749161647244 0.23045767910235004
0.574357813776084 13.057813466745827 44718.782039792735 10.740070705236798 0.23373735025864575
0.5944164411507891 13.03949648496079 38319.87962274143 11.26389651906393 0.23705837006448335
0.6148557291334292 13.024478000901512 32616.63832901117 11.810159658361586 0.24042229190296097
0.6356623695169062 13.012434584732171 28284.46352279923 12.379839454564264 0.24383074930989235
0.6568346347344984 13.003007971072082 24364.26526306563 12.973617369199932 0.2472816064412458
0.6783683646829627 12.995983659406773 21022.237570018977 13.59283549173209 0.25077981847762926
0.7002587643070238 12.991058580061758 18167.101564623877 14.238684698524708 0.2543279408770036
0.7224954133533689 12.987989404585232 15724.17807554777 14.912355103145746 0.2579279590737089
0.7450850600162829 12.986640447824108 13533.690275954454 15.614865347342686 0.2615796572120088
0.7680091771802553 12.986762808929967 11832.849241082726 16.347504031752557 0.26528515239500083
0.7912546797647203 12.988150050854859 10286.789289872473 17.11187710514548 0.26904902829132604
0.814832893989535 12.990673995437328 8953.458047145488 17.909440173790248 0.2728737185836133
0.8387173069547018 12.994139098824327 7805.064662332128 18.741541422051526 0.27676014863637965
0.8629008827812629 12.998408581864938 6811.958030695991 19.609560122739698 0.2807091081603294
0.8873828954262749 13.0033751588323 5953.289206096042 20.515566230853533 0.28472680822583846
0.912141278789347 13.008868445837901 5209.351536613427 21.46135461232177 0.2888162636470971
0.9371641345693643 13.01475669204027 4563.710750221008 22.448387461623014 0.29297721710864033
0.9624492293931204 13.020967556296522 4003.0801964236775 23.478734907657866 0.2972138239875444
0.9879730166028918 13.027348144067442 3515.2666198296824 24.554798917299866 0.3015320125678752
1.0137180306958125 13.033808549582366 3090.7577280083115 25.678495605331772 0.3059332169029647
1.0396846582483514 13.040267594783579 2720.441490460207 26.851839788400387 0.3104190903813692
1.0658369413444049 13.046590205959467 2397.2905022494674 28.07790388912246 0.3149981781693844
1.0921719122535725 13.05272723444515 2114.8075326609514 29.358711101849988 0.31967070368971967
1.11867243414129 13.058559712363476 1867.6800802560915 30.697082369376126 0.32444179515721516
1.1453053712595904 13.06401173746177 1651.3840423259765 32.096351835810836 0.3293190632587487
1.1720707668920882 13.069021976546559 1461.4265907245717 33.55853094689892 0.33430065970912937
1.1989285916234116 13.073480215262814 1294.897994098827 35.08813026901532 0.3393999328602259
1.2258766983110378 13.077340994318554 1148.5791818990886 36.687132846317205 0.3446133952423912
1.2528749799443277 13.080504651475119 1019.7184335679951 38.36063129721924 0.3499557310352953
1.2799188461476962 13.08293919154027 906.3202843330955 40.11091089455347 0.35542377450728313
1.3069650567317543 13.08452489480242 806.4629339192047 41.943359589553225 0.3610315949346859
1.334003877924652 13.0852360626745 718.2786198901168 43.86154950647616 0.3667816143395818
1.3610130335121375 13.085035452960419 640.3347471263584 45.870083905436196 0.37268110738019034
1.3879459150747435 13.083769103962275 571.5598835153304 47.974341098682196 0.37874027518248915
1.4147970700026928 13.08145734847281 510.5923452309662 50.1791302541913 0.3849650293217792
1.4415286184783285 13.078015653819099 456.6819587155603 52.489575616241865 0.39136183812120034
1.4681243411555371 13.073412365895763 408.83055329932535 54.91214425074227 0.3979426489059914
1.4945353518200084 13.067543559047719 366.36392781607714 57.45302889389777 0.40471652750985876
1.5207471588603323 13.060392756491378 328.7009036831349 60.11886064784843 0.41169325024898423
1.5467333926019302 13.05189679304129 295.1606615745922 62.916748445527055 0.41888336242794033
1.5724480358289028 13.04201247390761 265.3391639340956 65.85432229443158 0.4262982416232333
1.5978624453940753 13.03067071124049 238.8028054789861 68.9397806829969 0.43395016630369143
1.6229598303683115 13.017849538405628 215.1337737541204 72.18194258095353 0.4418523904154118
1.6477118087568225 13.003503310359815 194.00387758682993 75.59030451914201 0.450019224634844
1.6720616643051978 12.98756199991592 175.15057744943599 79.17472206340658 0.45846453314677066
1.6959975240352192 12.97000079699427 158.28849925029252 82.94556461041556 0.467202320095953
1.7194778648549085 12.950783128194452 143.21129945310122 86.91549233263754 0.4762537891716499
1.7424586397557766 12.929829390552413 129.72377137983435 91.0959991842875 0.4856329324891105
1.7649412330187209 12.90717597786966 117.61824117493767 95.50136096060398 0.49536239519474573
1.7868667218106349 12.882737903318565 106.76304223869896 100.14507068090411 0.5054589904877006
1.8082036807701476 12.856466429341637 97.03800171361762 105.04375377945797 0.5159487922090679
1.8289176345485734 12.828332826384193 88.28837218645747 110.21396149282216 0.5268543523910644
1.8489901693820996 12.79834269733326 80.4246619204955 115.6734495110283 0.5381994771478406
1.8683637212895006 12.766396463198076 73.34710427332337 121.44221782513962 0.5500126990182205
1.8870392398230194 12.732567455272525 66.97233720903954 127.5417073449171 0.5623238681573719
1.9049620706931853 12.696738377310687 61.22694051265785 133.99455971687047 0.5751629732943658
1.9221004483357769 12.658909548088404 56.047126516252305 140.82640317837496 0.5885660739685893
1.9384121440448447 12.619009379864801 51.3663914619924 148.0649255145269 0.6025714326756697
1.9539056412914908 12.57715173237912 47.14166956918894 155.7385227662017 0.6172144217969866
1.9685188001642973 12.533213209449018 43.32097826734456 163.88097813235447 0.6325430692700313
1.9822294825317792 12.487199390401216 39.85940291754358 172.52622787095845 0.6485994340338515
1.9950138390313557 12.439106306362076 36.72711630578622 181.7133183204982 0.6654358078853363
2.0068472828622976 12.38893562705098 33.88631935757329 191.48441673611768 0.6831071024883244
2.017690182705415 12.336648423739769 31.31205118004848 201.88559074017715 0.7016725950702936
2.027522327827102 12.282254147240726 28.97800728101467 212.96666806961386 0.7211944889170102
2.0363279996162937 12.22576988100494 26.856159288887095 224.7834879955968 0.741744188760589
2.044067088624982 12.167162893250856 24.930154160178397 237.39693987995244 0.7633978366037478
2.050721392841057 12.106440463382233 23.177026893546675 250.87409966650208 0.7862386092682185
2.056289673777695 12.043678439069627 21.584925686037707 265.2882923256891 0.8103552810663864
2.060730122286314 11.978815656116655 20.132839023278553 280.7208415855154 0.8358460517690753
2.064029864214629 11.911905979784482 18.812357179140545 297.2620255952317 0.8628195241650858
2.0661865451331196 11.842988646065102 17.61128678573679 315.0121643224197 0.8913958237331474
2.0671709716261404 11.772085166401755 16.516503280303937 334.0805461060887 0.9217002195470704
