M[M_sun], R[km], Lambda[1], P_c[MeV/fm^3], rho_c[fm^-3]
0.24162668629717493 15.618656898711224 2160425.4255784233 3.5677272577965504 0.1711233750220791
0.253645185814618 15.277248090311645 1723053.4402684402 3.784855644340797 0.17388862225362012
0.2660434026085001 14.98120255455501 1382898.3735959309 4.011477246660209 0.17666757666332664
0.2788216723697016 14.72337597820136 1116342.8205049746 4.247847036988702 0.17945889237910675
0.29197822186928785 14.498270154816892 905736.0481253993 4.494590700008651 0.1822691447392246
0.30551548983743276 14.301090865242225 738543.6785452063 4.751865758985122 0.18509407755766807
0.3194352461286245 14.127976686136728 604996.1370370893 5.020351428770124 0.18794024205748308
0.3337366892722767 13.97575191226575 497597.82161316136 5.3002759417358565 0.19080434282434158
0.34841929705053093 13.841873195694193 410910.9919860695 5.592363200226152 0.19369258081870996
0.36348450550946626 13.723832313080576 340558.7026539173 5.896786472483417 0.19660012943417693
0.3789401809511037 13.619872912576135 283221.5099953195 6.214407449760671 0.19953461882209053
0.39477678845610653 13.528301564352457 236340.31007117394 6.545478484459369 0.2024921368939526
0.4110048390637358 13.44772601973776 197801.59213556282 6.890712205909688 0.2054765672385471
0.42761607633678367 13.376923494000087 166015.67746747672 7.2508094075122544 0.20849090272143558
0.44461491879355797 13.31480050508102 139745.2624032237 7.626021945613931 0.21153057543035134
0.46199772919528365 13.260443092577212 117928.10811396291 8.017313162651039 0.21460196780902993
0.4797675305293239 13.213052921828636 99770.21772154456 8.425381858414724 0.21770662254633
0.49792848946688073 13.17189149525955 84607.85590946251 8.850659416275224 0.22084186913139017
0.5164715183303716 13.136313018894866 71909.05578568076 9.2940382452278 0.2240113837742097
0.5353925448818425 13.105773270422066 61245.95481331329 9.756394764924517 0.22721795773392098
0.5547050369983131 13.079746646288472 52279.77603025656 10.238530898854485 0.2304628375802455
0.5743908714628972 13.057778293766772 44708.67183018301 10.740928599224434 0.23374285820378865
0.5944518244675765 13.039467080846265 38307.76465747104 11.264835796132536 0.23706423868460544
0.6148930089638441 13.02447425053015 32885.42921745974 11.811185868824051 0.2404285329747671
0.6357018826406345 13.012395659941618 28276.812987797246 12.380958495067732 0.2438373752317495
0.6568768019560951 13.0030001244633 24356.9695528073 12.974824100833771 0.24728850362442123
0.6784130708715683 12.995954345316779 21015.1973869754 13.594147053633105 0.25078712090290567
0.7003066486983703 12.991041970581941 18025.034830850967 14.240108125033288 0.254335663035283
0.7225452595246994 12.988005451246854 15719.256560067925 14.91389788065375 0.2579361163199481
0.7451381922900899 12.986649813001778 13625.48684843935 15.61652038779158 0.26158811668095183
0.7680630664060302 12.986768180191547 11828.472053639265 16.34929375243504 0.26529407370372554
0.7913132835213591 12.988150456049551 10282.592463739984 17.11381049086022 0.2690584296913575
0.8148918176832439 12.990687688007956 8950.226434560518 17.911526805123664 0.2728836195000891
0.8387795499402959 12.994157634957169 7802.2427286747925 18.74377204297911 0.2767703971853876
0.8629661869930341 12.998422045640751 6809.3349952390745 19.6119637431006 0.28071989168900474
0.8874507192869779 13.003398238540449 5951.113752572639 20.518154422587376 0.28473815008332165
0.9122134235200483 13.008873111473292 5207.553127108551 21.464139739929234 0.2888281887569755
0.9372376953049124 13.01477201923908 4562.196950298154 22.45135792166791 0.2929895547085434
0.9625263928120752 13.020986971461308 4001.498240640373 23.481927986012277 0.29722679202749774
0.9880529273306349 13.027371123035525 3514.055046251192 24.55822964796812 0.3015456412321758
1.0138011995970313 13.033823996752949 3089.8257153087775 25.682150706279433 0.3059473226414544
1.0397696732878576 13.040286883543056 2719.333073953338 26.855763954944436 0.31043391517594976
1.0659248992027774 13.04661941241601 2396.4784920594184 28.08211549572345 0.31501375873354837
1.0922626975334324 13.052735964714998 2113.876561769483 29.36319521911715 0.31968684375861944
1.1187654267317522 13.05857597820083 1866.8500476453705 30.701892546893983 0.3244587633701011
1.1454020886775118 13.064032703656059 1650.6370084466312 32.10147237109872 0.32933665691364544
1.172169241893269 13.069037404796303 1460.8588471838066 33.56402191916096 0.33431916485179536
1.1990298559887538 13.073490361040433 1294.3790349651595 35.09401760253427 0.3394194006761133
1.2259802700619484 13.077354387461353 1148.0607523552355 36.69339945285759 0.34463361034504064
1.252979935277488 13.080521457766489 1019.2450543578981 38.36730261519798 0.34997673837605414
1.2800273243332403 13.082952850371186 905.8707135705401 40.118062771954605 0.35544590002667437
1.3070812802615446 13.084555644872463 806.0405458729144 41.95097491534512 0.3610546172182716
1.3341155896134853 13.085236746960085 717.8951589994629 43.86971368601325 0.36680588250336876
1.3611265855773707 13.08503166780648 640.0074042749079 45.87877982784644 0.37270639394130756
1.3880680994918524 13.083775461701704 571.239796258812 47.9836059175646 0.3787666458477771
1.41491464961874 13.081445568218985 510.3420547897663 50.18906559241119 0.3849928692343682
1.4416477598544626 13.078003241910439 456.4441585764408 52.500165697552646 0.3913909145167192
1.4682449790822316 13.073389452081733 408.6254359233128 54.923435981032924 0.39797304421316043
1.4946569689702602 13.067511545974506 366.1874868481966 57.46507297919374 0.40474833053074766
1.5208696742355152 13.060355824190607 328.5251197449238 60.13171193461884 0.4117265566825289
1.54685512076597 13.051855947875884 295.0132119429076 62.93046629495415 0.41891827544534965
1.5725729336537264 13.041960059365792 265.2002540624941 65.86897099442676 0.4263348725008584
1.5979869669496294 13.0306125578362 238.66312189746697 68.95542990220696 0.43398863511958147
1.6230956516366941 13.017792380290842 215.01150177075917 72.19866786952072 0.4418928268165193
1.6478381719785482 13.003423044459689 193.8941377603608 75.60818786157479 0.45006176868268655
1.6612233243175285 12.98618812328278 182.13475298668834 80.04619688143255 1.4576785710136686
