M[M_sun], R[km], Lambda[1], P_c[MeV/fm^3], rho_c[fm^-3]
0.24162668629717493 15.618656898711224 2160425.4255784233 3.5677272577965504 0.1711233750220791
0.25364158507471923 15.277351477159167 1723249.0007825403 3.784792513779593 0.17388783536162988
0.26603779530724214 14.98130010965045 1383051.6920796237 4.011344533251411 0.1766659729001034
0.27881074801103134 14.723617864863392 1116484.7009166044 4.247640250450752 0.1794564939668872
0.2919626499447645 14.498502098723408 905989.0139775388 4.494304413712409 0.18226595687487235
0.305496991802741 14.301321813016873 738798.2386173443 4.751490251734551 0.18509002136269556
0.31941095767463973 14.128237584070378 605187.7078538153 5.019883934079044 0.18793539161962675
0.3337067401398015 13.976070611579003 497774.88314129243 5.299704151236992 0.19079858584279002
0.34838549684128967 13.842155980589474 411104.9977649917 5.591685685886021 0.19368602568109142
0.36344588333400185 13.7241099468883 335800.1097074201 5.895988012409475 0.1965926301281903
0.37889735912450645 13.620109732965423 283371.6225438714 6.213478380892439 0.199526146832684
0.3947256866437118 13.528591043567037 236456.4876827803 6.544419770995957 0.20248285340713032
0.41094856036624006 13.448011084789844 197923.64368522647 6.8895034087081894 0.2054662726143271
0.42755292020748387 13.377188790848903 166131.57286839528 7.249439182720727 0.20847956720289382
0.44454633806309896 13.315021066789589 139844.57199860393 7.624494080010851 0.21151841263773646
0.4619246329580751 13.260659964543919 118020.68016708917 8.015601005659205 0.21458872289047862
0.4796864354546438 13.213244592670103 99841.66504742298 8.423472058133955 0.21769226351807044
0.4978393351552935 13.172077975954853 84673.82283544399 8.84855901412074 0.22082666132235892
0.5163746983624161 13.136479898579571 71963.68221751049 9.29171324891434 0.22399501565521632
0.5352920625841262 13.10589579398212 61299.675160760264 9.753829409473454 0.22720039395258124
0.5545929461583525 13.079888756958608 52322.694434318175 10.235716642728802 0.23044414644287198
0.5742708509498342 13.057904775659608 44749.75567897604 10.737861342894464 0.23372316546803315
0.5943247944732195 13.039575522374793 38345.01977483061 11.261477592183576 0.23704325656556127
0.6147583925754195 13.024539512164871 32916.36477528604 11.807516877445973 0.24040621938561146
0.6355560454949538 13.012478059291936 28308.099172097787 12.376957638646308 0.24381368586400284
0.656724827041245 13.003062228220474 24382.641287504102 12.970509752010143 0.24726384457572737
0.6782520301995849 12.995998905883617 21038.26976379013 13.589457945243318 0.2507610132036786
0.7001368097883489 12.99107864133408 18045.715192167274 14.235019113361123 0.2543080548985922
0.7223661145918686 12.98801127046372 15736.97323058638 14.908382206389767 0.25790695287096527
0.7449494522994093 12.986652073261375 13641.491127228934 15.610603390496568 0.26155787291567917
0.7678656117231488 12.986753629609872 11842.146521785997 16.342895300248145 0.2652621790243611
0.791104807928133 12.988134881379843 10294.504477194216 17.106898469339484 0.269024818871309
0.8146767841015592 12.99064612385016 8961.738384338905 17.904066970598617 0.27284822311867146
0.8385548482866256 12.994116293487743 7811.708669665291 18.735797483481267 0.27673375821064294
0.862731690730574 12.998382749847282 6818.927898465149 19.603370765461392 0.28068134041764503
0.8872017118084887 13.003331995371862 5959.3251561903435 20.508901666500563 0.2846976030714867
0.9119593216892574 13.008809145357082 5214.47106991191 21.454183012727206 0.2887855569344351
0.9369724650497797 13.014705396269902 4568.127062792128 22.440738700553375 0.2929454485097012
0.9622461175688091 13.020909443863108 4007.221005016888 23.470513001302823 0.2971804323828702
0.987767350155276 13.027300986378895 3518.8470644067193 24.545965167149262 0.30149692027210495
1.0135052221658847 13.033757404880497 3094.1047177939704 25.669084204953094 0.30589689649637
1.0394643299075175 13.040216849365041 2723.341363236001 26.841735685102726 0.31038091889855196
1.0656134753034183 13.046547489144203 2399.870838738917 28.067059787603448 0.31495806112248886
1.091938066294196 13.052672261221144 2117.3080540201886 29.3471654346147 0.31962914637674844
1.118431956230908 13.058507792881151 1869.9411175060886 30.68469729764881 0.3243981060141644
1.1450587731412554 13.063964394744813 1653.170332612266 32.08316778082571 0.329273764144397
1.1718176665854576 13.068977815283802 1463.2974293350296 33.544393267053195 0.33425301427039344
1.1986676836595531 13.073440943576758 1296.3683935603435 35.07297224035573 0.3393498093687995
1.2256109538788704 13.077310303828554 1149.889880710612 36.670998454948766 0.34456134819338674
1.252602390677439 13.0804769205125 1020.9480246834341 38.343387063166624 0.34990124578250464
1.279640373593604 13.082919053990596 907.4183663804139 40.09249761048013 0.355366809957841
1.3066808694349559 13.084516626860824 807.4207093670864 41.92375329273167 0.3609723221290534
1.3337134839502514 13.085233292992614 719.1873537780122 43.8405303876235 0.36671913464806394
1.3607192261792058 13.085037800420295 641.128737251649 45.847696004986304 0.37261600640684844
1.3876472440593512 13.08378614669302 572.2751895716342 47.950488795658444 0.37867238382839263
1.4145007056437335 13.08150566932217 511.24548212718526 50.153552013003235 0.38489335627118976
1.4412288735176582 13.078082547623639 457.2363481049517 52.46231203999244 0.39128698255559874
1.4678149042404498 13.073472659355533 409.36450933860925 54.88307462509821 0.3978643987018157
1.4942208717523355 13.0676180283223 366.8462143054786 57.4220227267893 0.40463465414579636
1.5204307436077482 13.060487120632231 329.12178898565986 60.085776794069616 0.41160750745941216
1.546412577880264 13.052011766066121 295.5419759033738 62.881434143989615 0.41879348472291605
1.5721264537891912 13.042146367454821 265.6900521674484 65.81661210834736 0.426203942660723
1.5975502614231818 13.030832383527843 239.12382390683814 68.8994953320769 0.43385113709802914
1.6226381909669998 13.018031026084566 215.42140883750236 72.13888765337393 0.441748297364086
1.6473892120342883 13.003702643599201 194.2685687971519 75.5442690495052 0.44990970734354113
1.6717384317289457 12.98778567065462 175.37772661399384 79.1257173266869 0.45835020565665424
1.695676181773542 12.970257229111963 158.50302822736353 82.89311251711413 0.46708178533831163
1.7191486382377936 12.951055005317727 143.41262315351923 86.85932288979792 0.4761265930195098
1.7421457304562447 12.930143914491621 129.9011162723275 91.03608901117947 0.4854996544060871
1.7646299927713724 12.90752068207346 117.77945028691218 95.43713295780799 0.49522146461519523
1.7865557500388074 12.883097055161738 106.91386362710723 100.07646892440602 0.5053109508733806
1.8078974005303718 12.856862538617417 97.17105438218346 104.97042255569046 0.5157930732016892
1.828610571999054 12.828751310417202 88.40945927312444 110.13541409298594 0.5266899696494874
1.8486937207133964 12.798808615053796 80.53638557460059 115.58913931751854 0.5380253213812606
1.8680846435013514 12.766926668777945 73.44631152379871 121.35189273563275 0.549828830236437
1.8867593603203583 12.733103163308236 67.06679426414117 127.44496481294951 0.56212987031093
1.9046869696924458 12.69731182484074 61.30961831860341 133.89099175835491 0.5749584979866904
1.9218353732108089 12.659525870150253 56.12435554540574 140.71516370206442 0.5883493371665014
1.93815644207606 12.619663407330458 51.43821420410816 147.94534841307632 0.6023414201716978
1.9536624575918966 12.577856275611444 47.2072850188432 155.61027025196708 0.6169713704442544
1.9682844674462114 12.533952403167593 43.377373130599274 163.74317141107855 0.6322854909973351
1.9820107174429482 12.487985725638149 39.9155199359524 172.37780240797593 0.6483253826449586
1.9948089609432227 12.439937164272113 36.77647687117922 181.55363445124223 0.6651449415033444
2.0066489417894675 12.389795504312051 33.93482917791036 191.3124375747061 0.682797933487275
2.0175119167879707 12.337570236275411 31.354606268782955 201.700172485625 0.7013434959584661
2.0273598991216515 12.28322069801127 29.017050393910967 212.7670151387602 0.7208452080593372
2.036181294613495 12.226785817512155 26.892643413133086 224.5677525836801 0.7413712849651592
2.043937867877753 12.168226346150854 24.96323199720764 237.1640710507655 0.7630007738582891
2.0506101659091374 12.107557922269628 23.20704835897517 250.62217025856924 0.7858143225489402
2.0561907415205454 12.044825028876952 21.611625633490803 265.01543999131286 0.8099012903892358
2.0606578888077154 11.980033489772413 20.158860064514574 280.42569377246264 0.8353618985294181
2.0639848321166396 11.913186890621592 18.836495900137155 296.94184126645007 0.8623007681814745
2.0661544161193817 11.844310141772644 17.633000807891506 314.6643466905018 0.8908390361149099
2.0671628617422937 11.773454925824039 16.536557029851497 333.7028013247712 0.9211036018390195
