M[M_sun], R[km], Lambda[1], P_c[MeV/fm^3], rho_c[fm^-3]
0.24162668629717493 15.618656898711224 2160425.4255784233 3.5677272577965504 0.1711233750220791
0.2536459921160747 15.27721491913334 1723077.7037623066 3.7848529050286195 0.1738885881094153
0.26604308662027265 14.98121172448982 1382912.5592261294 4.011471487998076 0.1766675070732933
0.27882006726046443 14.723441628758529 1116328.0421418343 4.247838064068497 0.17945878830675427
0.29197741045006387 14.498282295970219 905757.8594746449 4.494578277287672 0.18226900640934332
0.3055147156785593 14.301112859114225 738520.2293709818 4.751849464554459 0.18509390154671854
0.3194331435838979 14.128002844967126 604969.4184797872 5.020331142510293 0.18794003157970754
0.3337350528421394 13.97577030607982 497570.5112524362 5.300251129448071 0.1908040930057746
0.3484178232781653 13.841885641624561 410918.7060274016 5.592333799867225 0.19369229636214957
0.3634839090312634 13.723823094151872 340592.8465624794 5.896751823394835 0.19659980400260446
0.3789384840877282 13.619873484124026 283229.2664662216 6.214367132505659 0.19953425117726994
0.3947734616815533 13.528345132854803 236338.50008653582 6.545432540804974 0.2024917340301704
0.4110024077582371 13.447744574001916 197811.3829127454 6.890659748734991 0.2054761204912346
0.42761295989693904 13.376934603376588 166031.32868013438 7.250749944405613 0.20849041079839345
0.44461137967050224 13.314809173583011 139755.99272273417 7.625955640839915 0.21153004760171634
0.4619943418859737 13.260458714402114 117931.07851354341 8.01723885945719 0.21460139301375394
0.4797640600536121 13.213068498008324 99769.6567602064 8.425298977204408 0.21770599939549423
0.4979254549829571 13.17188611190496 84608.83425305766 8.850568262574194 0.22084120913964775
0.5164679710903242 13.136307405539796 71914.04722138216 9.29393734357106 0.22401067342025577
0.5353898473664649 13.105762032647961 61251.233979808145 9.756283430942808 0.22721719548254968
0.5546982866121744 13.079766396010289 51796.19830151379 10.238409597926703 0.2304620371473777
0.5743840805466136 13.057794494012605 44710.193112769295 10.740795480857225 0.23374200354263627
0.5944468199822086 13.039496976459404 38308.32127327205 11.264690049310452 0.23706332805582359
0.6148864151901239 13.024469208295981 32886.16019548111 11.811026632249046 0.24042756455071074
0.6356955031619458 13.0124011760391 28277.804436700157 12.38078485369511 0.24383634708829752
0.6568697007912044 13.003011612621368 24358.193812862355 12.974636852071553 0.24728743338728137
0.6784060222391647 12.995956524885452 21016.28475576741 13.59394353786639 0.25078598778164174
0.7002994556740976 12.99103494742302 18162.276601985617 14.239887250661052 0.25433446478103383
0.7225352002826498 12.988006221785174 15720.78763289615 14.913658485921538 0.25793485054975834
0.7451300380492839 12.986649709318854 13626.31733229677 15.616263572581925 0.26158680401195233
0.7680553107450162 12.986763029973401 11747.837194029353 16.349016038035934 0.2652926893670992
0.7913046810203823 12.988141445700851 10283.334401774428 17.113510482980317 0.2690569708546287
0.8148829550380449 12.990675224233055 8950.590331944868 17.911203017011005 0.2728820831486465
0.8387706949110799 12.994153036485079 7802.758503767873 18.743425910955768 0.2767688068878339
0.8629561470329896 12.998424511411502 6809.704284243518 19.61159076536552 0.2807182183731322
0.8874415295948842 13.003383284085329 5951.290241538376 20.51775280334849 0.2847363901255448
0.9122028052001389 13.008876017667077 5207.7349656050565 21.463707560394997 0.2888263382893635
0.9372271234640694 13.014776000836616 4562.4683794023595 22.45089698245664 0.29298764022947876
0.9625152782951613 13.020980762098597 4001.6483283329694 23.481432500955062 0.2972247797154574
0.9880393083352931 13.027370043052285 3514.052994933631 24.557697283985583 0.30154352640279825
1.0137875343960547 13.033826074733247 3089.9640357218113 25.681583524500734 0.30594513377773735
1.0397569072469248 13.040282977925335 2719.5335995245355 26.855155019302472 0.3104316147267452
1.0659115776290493 13.046611626260784 2396.5990393031693 28.081461954718748 0.3150113410011906
1.0922475076833809 13.052739351863245 2114.1964804131408 29.36249938954787 0.3196843391994116
1.11875110887885 13.05857515646055 1866.944403204989 30.701146118550575 0.3244561302957524
1.1453871227624328 13.064032039912084 1650.65045062695 32.10067778077055 0.3293339267795419
1.1721538436234782 13.06903410962302 1461.0083482959483 33.56316984325853 0.33431629326815143
1.1990140653007821 13.073492133622466 1294.4095075793734 35.09310401785278 0.33941637969924504
1.2259642770480403 13.077355006027965 1148.147432455477 36.69242701126797 0.3446304733990032
1.252964255403559 13.080509566985969 1019.4156685763021 38.36626736891705 0.34997347848476096
1.2800107702693257 13.082951620476527 905.9561710446484 40.11695295008888 0.3554424666085893
1.3070630075609777 13.084555717746698 806.1083208066785 41.94979317333681 0.36105104463314736
1.3340987765764338 13.085236131063427 715.014439779334 43.8684467696533 0.36680211657274614
1.3611080306701395 13.08502978008302 640.0272981345315 45.877430392574716 0.3727024699668443
1.3880501381336086 13.083777735356845 571.2979819946403 47.98216819742073 0.37876255363214145
1.4148964295701878 13.081449330350729 510.37573822420103 50.18752381617657 0.38498854900745155
1.4416294818844198 13.078003040311913 456.48160616825356 52.49852231357833 0.39138640240004846
1.4682256274121313 13.07339289995908 408.64569464623946 54.92168370979366 0.39796832741412347
1.4946375026515624 13.06751661454265 366.2109796345353 57.4632039513753 0.4047433952675632
1.520850456314564 13.06036135525889 328.55633499225235 60.129717638298686 0.4117213881029895
1.5468357174347096 13.051863279059837 295.03539933172715 62.92833751751039 0.41891285753750995
1.5725538840179727 13.041968338420288 265.21900351228516 65.86669775858796 0.4263291879948031
1.597966987335743 13.030623318944441 238.6841524642176 68.95300139558515 0.43398266537931085
1.6230763404270314 13.017803405858345 215.0306759553445 72.19607236688535 0.44188655172086294
1.6478194236058255 13.00343449332695 193.90959990628056 75.60541263903977 0.4500551664940438
1.6721671719191191 12.987487924208729 175.07883373024458 79.19080481222703 0.45850205401577016
1.6961037245701314 12.96992205692011 158.21532332469073 82.96277895237557 0.4672418786036408
1.7195838614046948 12.950691944857457 143.1450149413308 86.93392691199361 0.47629553442390576
1.7425598063399934 12.929720372010406 129.65757271273313 91.11566167319518 0.48567667428942807
1.7650441154549978 12.907067717150785 117.56536737254689 95.5224408406264 0.4954086491584234
1.7869550059769697 12.882583764076928 106.73183396089235 100.16758630892981 0.5055075782361671
1.8083039385145216 12.856337408680679 96.99277592568797 105.06782194803303 0.5159999010154858
1.8290081109380882 12.82817688040082 88.25033897125384 110.23970959653442 0.5269081848267312
1.8490880034455823 12.79819223006347 80.39312544840523 115.70112186423924 0.5382566386805794
1.8655465004962626 12.768207861404944 74.17039183715521 121.87821880109576 1.1994553269731423
