M[M_sun], R[km], Lambda[1], P_c[MeV/fm^3], rho_c[fm^-3]
0.24162668629717493 15.618656898711224 2160425.4255784233 3.5677272577965504 0.1711233750220791
0.25364438197041655 15.277259100741965 1723183.8465833426 3.784825632002018 0.17388824816429566
0.26604055165890067 14.981238808897844 1383013.1742496395 4.0114141541668635 0.1766668142277792
0.27881575659800295 14.723492495700846 1116395.6955259934 4.247748729239576 0.1794577521573635
0.29197095294167563 14.498400832514745 905880.0672195571 4.494454596729734 0.18226762919762593
0.30550628083937176 14.301208692424401 738608.5419709686 4.751687238142287 0.18509214919185332
0.31942323423955293 14.128117371923175 605099.4775443502 5.020129174702524 0.18793793608574955
0.33372150077149215 13.975932343098634 497651.6258930959 5.300004102288885 0.1908016058521738
0.3484031555133507 13.842009468863798 410995.609728176 5.592041096036133 0.19368946437206372
0.3634667473042817 13.723953306117206 340634.1109304694 5.896406866072394 0.19659656409043133
0.3789195638541244 13.619990530627826 283291.92902291415 6.213965746429303 0.1995305910195539
0.3947516222923636 13.528450369647679 236394.46660714727 6.544975142164041 0.20248772326200473
0.4109779199821092 13.447869875737867 197858.13302545095 6.890137506407944 0.20547167285642698
0.42758683979547185 13.377028443043711 166075.98597301217 7.250157956794676 0.20848551343660157
0.4445822465195088 13.314905510220738 139794.83994775047 7.625295543628477 0.21152479280347217
0.46196380096039746 13.260554723903098 117976.9765295096 8.016499137572993 0.2145956706669402
0.4797290652042775 13.213137092408285 99806.88008518757 8.424473861285977 0.2176997956772785
0.49788639515266825 13.171980994670925 84638.8700949325 8.849660794533161 0.22083463868329942
0.5164252365946735 13.136389633169413 71935.34191404532 9.292932835909102 0.22400360162369184
0.5353442038509486 13.105839467971638 61275.218506281286 9.755175071493293 0.22720960706706947
0.5546513100166803 13.07981677556052 52302.95708023479 10.23719715061182 0.23045400604782487
0.57433417274069 13.057831526645124 44727.476534810674 10.739470263751064 0.23373349523831383
0.5943907178058758 13.039523540395141 38323.53764294917 11.263239120515237 0.23705426262645463
0.6148292231593342 13.024510601636655 32899.42387425157 11.809441418645495 0.24041792380713065
0.6356340397200626 13.012426679299848 28290.429998990814 12.379056247235221 0.24382611188118078
0.6568048719597891 13.003010283023539 24369.753235303317 12.972772790903447 0.24727677917803872
0.6783372627653984 12.995973635620642 21026.611400174854 13.59191754817164 0.2507747076138165
0.7002256803658249 12.991065549872465 18171.316715342586 14.23768846717902 0.2543225362733322
0.7224556256331054 12.98802018978467 15728.046211553517 14.911275345184762 0.2579222499863513
0.745047251908067 12.986646707029285 13633.264895308617 15.61370702337417 0.2615737366282284
0.7679699777740023 12.986747879289409 11835.517343801928 16.34625145412507 0.2652789086096851
0.791213914789907 12.988140087981295 10287.953468852878 17.11052398657198 0.2690424485339075
0.8147907694519975 12.990663516060286 8955.908799322606 17.90797981010847 0.2728667892623643
0.8386730321258805 12.994136548293232 7806.974553397275 18.739980290879778 0.2767529760463964
0.8628522744561351 12.998415090859838 6813.481745786669 19.607877923485734 0.28070156119318446
0.8873352763156696 13.003353944105548 5954.846270268453 20.513754866006007 0.28471887054422
0.9120923030682796 13.008844835222627 5210.874916607413 21.45940542982352 0.28880791781209747
0.9371117436876274 13.014737284510105 4564.898144967622 22.446308581583924 0.29296858262449277
0.9623963734590697 13.020947924315815 4004.2153520660318 23.476500238763094 0.29720474833317795
0.9879176565166956 13.02733331521504 3516.316009397585 24.552397939685807 0.3015224746236121
1.0136592843794572 13.033797170305702 3091.5874219359325 25.67593761355524 0.30592334512005764
1.0396260552245513 13.04024196152737 2721.2449035036457 26.84909350693113 0.31040871542450005
1.0657761203680483 13.046581148128057 2397.98076594671 28.074956460880166 0.31498727435067614
1.0921090794618231 13.052698718426969 2115.6502882450104 29.355572973919973 0.319659408355992
1.1186063967634816 13.05854357748553 1868.3861670724148 30.69371607125609 0.32442992032246604
1.1452393589186107 13.063993746348807 1651.956221081457 32.09276835538427 0.3293067507729617
1.1720025826977214 13.069008749469072 1461.954131165058 33.55468824526642 0.3342877094084287
1.1988568482314579 13.073466570052 1295.3601906022436 35.084010206856746 0.33938630893161886
1.2258043824054001 13.077338531464058 1148.949125158627 36.682747380903216 0.34459924840982115
1.2528004023285655 13.08049321524616 1020.0611764965162 38.35596262901163 0.34994102984667863
1.2798446818538103 13.082934525737933 906.6344240222154 40.10590595242722 0.3554082908883876
1.3068875255953587 13.084524002956535 806.6760970189764 41.93803034642526 0.36101548382533327
1.3339254703887973 13.085236560348473 718.4963905195483 43.8558362048138 0.36676463145233923
1.360933123709781 13.085030502969765 640.5545877435553 45.86399851784075 0.3726634118997002
1.3878642775271355 13.08377310896088 571.7433474456114 47.96785762928495 0.37872182113567515
1.4147216782040337 13.081479888400434 510.7655905841786 50.17217759985914 0.3849455472181421
1.4414447167976097 13.078028657510336 456.8185988489763 52.48216481544045 0.3913414908387868
1.4680403455473798 13.073428076924422 408.9795571124529 54.90424248480598 0.3979213787731925
1.4944491209424708 13.06756467380913 366.49358897830626 57.444600685586714 0.40469427239638306
1.5206613447693116 13.060415439861261 328.80433079838275 60.10986762329648 0.41166994319966255
1.5466447265817043 13.051929659865937 295.2627525375107 62.907149072434976 0.418858931260237
1.5723609616786698 13.042048554689273 265.4306941099825 65.84407159385903 0.4262726084845679
1.5977853360864023 13.030719738638034 238.89330494163232 68.92882991178665 0.4339232471842206
1.6228723113386454 13.017895705320102 215.20951802394066 72.17023888145305 0.4418240946113937
1.6476244128405186 13.003558808088606 194.07338398503643 75.57779053248005 0.44998945415713565
1.6719730687998111 12.987624114828693 175.20897715965694 79.16140085666822 0.45843345492385457
1.6959104167047467 12.970069694199692 158.3500444326441 82.93130619432914 0.46716955429731366
1.7193906446202232 12.950858833569733 143.26285544636158 86.90022329733956 0.4762192123192083
1.742371656847168 12.929914093655777 129.76886912662212 91.07971317458046 0.485596702112177
1.764855029727145 12.907271224340782 117.66594935270663 95.48390106216867 0.4953240842789728
1.786782715495942 12.8828309590099 106.81421218015575 100.12642169012568 0.5054187467746643
1.8081206175520945 12.856574011488856 97.07593757234817 105.02381897740841 0.5159064606151306
1.828830355428213 12.828438982210722 88.32097260058194 110.19263538171528 0.5268097651656509
1.8489095912805 12.798471623446954 80.4562189510396 115.65052977547538 0.538152132883181
1.8682854721263318 12.766532122380818 73.37880374466144 121.41766275931911 0.5499627139026377
1.8869646385586687 12.73271103850515 66.99997306820994 127.51547243742745 0.5622713610671474
1.9048886099199496 12.6968935826401 61.25026367583292 133.9664041428906 0.5751073854491014
1.9220295678880173 12.659076592584084 56.068805151658886 140.79616181136527 0.5885071522854437
1.9383426537058668 12.619187950353359 51.38757534179912 148.03241722403146 0.6025089013615135
1.9538393131738374 12.57734178197977 47.15777172144444 155.70365570510285 0.6171483452259623
1.9684543496149436 12.533412638745041 43.33558450345511 163.84354097286075 0.6324731363449726
1.9821701580859916 12.487410990940631 39.87476941352368 172.4858758450366 0.648524928429986
1.9949597845645834 12.439335073050447 36.741452983897055 181.66990512765818 0.6653567301526202
2.006795548576569 12.389173093988866 33.89986828570139 191.43766040785974 0.6830230480762572
2.017641884459203 12.336898850914494 31.32543681752443 201.83518022923462 0.7015831213859575
2.0274766107934585 12.282514146605147 28.988926580912256 212.9123870317652 0.7210995274888253
2.0362875908569236 12.226047199694895 26.867216765267763 224.724833913688 0.741642803783654
2.0440323479986287 12.16745052234495 24.939991449286286 237.33362696030306 0.7632898822597218
2.0506918890447055 12.106743737058695 23.142760678453623 250.80567040501379 0.7861234688851885
2.056264321476561 12.043996926092031 21.59188977523474 265.21413052804144 0.810231922986029
2.0607099354421803 11.979146912580774 20.139708064117315 280.6406006447954 0.8357144379503793
2.064015991838241 11.912253075388058 18.820015045700586 297.17496941975395 0.8626784775619892
2.066176403776509 11.843348975586164 17.616979479498738 314.91759370795023 0.89124443477999
2.067169147156965 11.772454949541505 16.521952352482316 333.97783719599954 0.9215379990279143
