M[M_sun], R[km], Lambda[1], P_c[MeV/fm^3], rho_c[fm^-3]
0.24162668629717493 15.618656898711224 2160425.4255784233 3.5677272577965504 0.1711233750220791
0.2536448734374801 15.277245244686412 1723220.1955263284 3.784836331720331 0.1738883815311227
0.2660410602633431 14.981255645133917 1383082.0756680558 4.01143664723107 0.17666708604318565
0.2788175269247831 14.72348113427444 1116394.4623917069 4.2477837767494 0.179458158655662
0.29197302297939043 14.498350835281848 905803.1159528164 4.494503118487098 0.18226816949865549
0.3055095700632073 14.301166543336135 738579.8653241512 4.751750881833741 0.18509283666518683
0.31942821877510047 14.128051480194753 605040.2429922099 5.020208409277379 0.18793875817504538
0.3337244832488533 13.97592762478247 497653.4877227191 5.300101013948086 0.19080258159177643
0.34840891715417827 13.841960603692673 410955.25193165446 5.5921559268812775 0.19369057539207937
0.3634729209905686 13.723921025439896 340630.77597358974 5.8965421961390705 0.19659783513905646
0.37892745524133326 13.619938481097849 283277.6824303517 6.214123213595919 0.19953202693051061
0.3947603776205361 13.528390500245528 236370.74721734913 6.545154583075908 0.202489296716389
0.4109875884982573 13.447831732153654 197837.56584805986 6.8903423854202215 0.20547341769206967
0.4275968723488056 13.377035348895516 166061.41560085863 7.250390196694268 0.20848743469777292
0.444593557684218 13.314870252969811 139780.7357864532 7.625554502654328 0.21152685428382806
0.46197665467949045 13.26051590041388 117968.25762209899 8.016789332926633 0.21459791556261348
0.47974251330601725 13.213111469562259 99790.92832325753 8.424797556137102 0.2177022294100419
0.49790127003390267 13.171977734685797 84627.27978875229 8.850016795472314 0.22083721628220637
0.5164414280689175 13.136363739885574 71925.56565003238 9.293326904582441 0.22400637589171948
0.5353618416691789 13.105807465697074 61263.447638933794 9.755609880111527 0.2272125839970275
0.5546697129354815 13.079790445842194 52294.02054471229 10.237675533774718 0.2304571918930719
0.5743547356777141 13.057810800847276 44720.27174749066 10.73999014293689 0.23373683302372525
0.5944133257358213 13.039498642201544 38320.96856491398 11.263808314585686 0.23705781896130712
0.6148525720943956 13.024477214669528 32894.46914290347 11.810063290540597 0.2404217058258232
0.6356583392778394 13.012415878552277 28284.851710075163 12.379734369717976 0.24383012709471988
0.6568306452673892 13.003001507734606 24364.337466103527 12.973504049900791 0.24728095875460068
0.6783639858007917 12.995985436942785 21022.563900088062 13.592712328616422 0.2507791327383986
0.7002546926131804 12.991056988255014 18167.728417765473 14.238551031089566 0.25432721572464434
0.722490870610238 12.987996551341997 15725.170759275821 14.912210228444549 0.25792719306655276
0.7450798284957418 12.986644924336964 13629.914407038897 15.61470993096509 0.26157886282657833
0.7680026655621252 12.98675972424496 11832.85087798785 16.347335968750865 0.26528431464308905
0.7912503639778556 12.988141794837432 10287.26888534924 17.111695551886378 0.2690481454593061
0.8148271985582345 12.99067142759555 8953.4055043477 17.90924423070185 0.27287278884766947
0.8387114643714281 12.994138018121062 7805.365918824252 18.741331958280405 0.2767591862587308
0.8628941016912758 12.99841485993817 6812.02087957401 19.609334414354585 0.28070809554915227
0.8873766683260976 13.00336589114201 5953.478080634316 20.515323191315215 0.28472574318889765
0.9121352162167482 13.008855100730447 5209.594057795155 21.461093080678545 0.288815143844337
0.9371572774960955 13.014751851043258 4563.71006098227 22.44810852741968 0.2929760585747608
0.9624430036820278 13.020965931510784 4003.267761851116 23.478435069930956 0.297212606257445
0.9879634784252287 13.027366492214245 3515.267717132272 24.554476764462876 0.30153073280758697
1.013709327961628 13.03380562094553 3090.8501406346127 25.67815238452667 0.3059318923477772
1.039675866296227 13.04026429571018 2720.498695292027 26.85147130300851 0.3104176983099117
1.065828562069236 13.04659447965235 2397.3842791465972 28.07750841393166 0.31499671513468785
1.0921639829397098 13.052721866129518 2114.913788960359 29.358290038660947 0.3196691881207733
1.118663373220686 13.058552349074256 1867.7093504644274 30.696630690277253 0.3244402018299258
1.1452964411564928 13.064009886234057 1651.5106719234127 32.09587101517651 0.3293174112064081
1.172061505491241 13.06901771994355 1461.5009079942797 33.55801534378653 0.33429892207347967
1.1989198629100615 13.073473356536546 1294.9164452917914 35.087577449394686 0.33939810483561017
1.2258667152619531 13.077342764445177 1148.5964718582652 36.68654441465123 0.34461149705292404
1.252863866401919 13.08050475889204 1019.7305017246052 38.36000486508004 0.34995375846054283
1.2799089205737215 13.082938843763856 906.3828555106105 40.110239340576186 0.3554216969436291
1.3069534557438924 13.084524656251105 806.4886805872209 41.94264452031483 0.3610294331720457
1.3339932790542486 13.08524234784341 718.3306279193926 43.86078290334993 0.3667793355986327
1.3610018811961315 13.085030831904318 640.3774516618629 45.86926737496656 0.3726787330205019
1.387934800776054 13.083767760004898 571.5656496873354 47.97347115257469 0.3787377990350425
1.4147846178094408 13.081463868281407 510.6282230017205 50.17819735131771 0.38496241522511937
1.4415181629307052 13.078018258873145 456.7061437537152 52.48858123781335 0.391359107930597
1.4681129902019916 13.073414563967154 408.8519309117808 54.91108399290149 0.3979397948825672
1.4945240203841497 13.067544783112734 366.3887503302793 57.451897996026844 0.4047135413164096
1.5207343722501874 13.060395186351021 328.71051003733 60.117653960622796 0.4116901229008355
1.546719812434044 13.051903288520473 295.16870030674414 62.91546039578167 0.4188800842389338
1.5724363893703153 13.042019019646634 265.3581847441432 65.8529468464836 0.4262948021463187
1.5978501427009153 13.030676899701893 238.8137447973247 68.93831129602714 0.433946554265541
1.6229476782334196 13.017856396094814 215.14658974763228 72.18037216199943 0.44184859364440365
1.6477004900869474 13.003510246737942 194.01666941401555 75.5886253711991 0.4500152299816808
1.6720493831794137 12.987571065313466 175.15861246272874 79.17293459811546 0.45846036301069637
1.6959864608429802 12.97001081264158 158.29814764064284 82.94365138435974 0.46719792350804895
1.719465743347649 12.950795402956702 143.21742897118583 86.91344349483258 0.47624914956206904
1.7424478200770814 12.929849085897253 129.72157069002586 91.09381388200244 0.48562807099590705
1.764929689834131 12.90718782257713 117.62932980884885 95.49901813710473 0.4953572545168613
1.7868555910175803 12.882749218830705 106.78050679805571 100.1425682960746 0.5054535904498013
1.8081925290027439 12.856481813446669 97.04152843095595 105.04107885434621 0.5159431119999861
1.8289061953286128 12.828348536474307 88.29293521749037 110.21109987036864 0.5268483694997278
1.848979248776832 12.798359907616451 80.42944239542544 115.67037404162772 0.5381931242893219
1.8683545078850694 12.766412735395935 73.35427636838047 121.43892291222862 0.5500059917829846
1.8870301576893838 12.73258675371381 66.9771777942614 127.53818701553685 0.562316822496835
1.9049518690953147 12.696759494519828 61.23113806970814 133.99078165341163 0.5751555142240198
1.9220907467327228 12.658931917642684 56.04943776141615 140.82234522159305 0.5885581675256151
1.9384026185270724 12.619032905409416 51.36990709772385 148.06056335742306 0.6025630418494496
1.953896837632217 12.577179254269396 47.143932765274094 155.73384408348542 0.6172055552248965
1.9685097393991222 12.533235721028856 43.3202816682237 163.87595456457694 0.6325336852036741
1.9822215871383837 12.487228624296252 39.86207811049728 172.5208131508553 0.6485894363452143
1.995007169860373 12.439134186909413 36.730392722468714 181.70749281512673 0.665425196646527
2.0068409004118486 12.38896730512837 33.88895329756763 191.47814260577806 0.683095823408966
2.0176842246073567 12.336681846711155 31.314228253473974 201.87882624265262 0.7016605887544501
2.0275172694019075 12.282288468102749 28.97921786764353 212.9593841720861 0.7211817461740672
2.036322027343557 12.22580669063107 26.858032976950156 224.77561725984296 0.7417305840064629
2.044061934152719 12.16720216151814 24.931404320897464 237.38844395275032 0.7633833502674191
2.0507180878698734 12.106481336794587 23.178731043205257 250.86491715032125 0.7862231585910192
2.0562860597333104 12.043721417981883 21.58579865906892 265.2783551067323 0.8103387751078815
2.06072708690252 11.978859844292217 20.133446683534892 280.71007398698913 0.8358283904013557
2.064027797323402 11.911951887011522 18.814142743396598 297.25034341198307 0.8628005969349963
2.0661842609200733 11.843037471559784 17.611695449844383 314.99947371845735 0.8913755085722533
