M[M_sun], R[km], Lambda[1], P_c[MeV/fm^3], rho_c[fm^-3]
0.24162668629717493 15.618656898711224 2160425.4255784233 3.5677272577965504 0.1711233750220791
0.25364486717025037 15.277272155922308 1723133.166220089 3.7848502954205903 0.17388855558191013
0.2660428212804489 14.981211793895646 1383000.617172666 4.0114660020092865 0.1766674407783564
0.2788198855020511 14.723434549649758 1116360.8918840494 4.247829516025433 0.17945868916233637
0.29197727531784445 14.498278965353988 905742.5600210552 4.494566442806652 0.18226887462965052
0.30551444587817195 14.30110415787103 738591.7863595904 4.7518339417115785 0.18509373387038963
0.31943250165691683 14.128016491419215 605049.605020062 5.020311816880227 0.1879398310688366
0.33373289465895695 13.975806601262182 497596.8896405833 5.300227492136347 0.19080385501726696
0.3484164261865914 13.841897378901226 410925.9820503693 5.592305791775031 0.19369202537615285
0.3634822907305989 13.723834883840828 340599.6799677678 5.8967188151589385 0.19659949398226761
0.37893672480068297 13.619891431442621 283231.8286701806 6.214328724561513 0.19953390094306553
0.39477254201385636 13.528323209164736 236358.04143093055 6.545388772947943 0.20249135024519171
0.41100003887202075 13.447775337105881 197810.4127197425 6.890609775868953 0.2054756949013371
0.4276101843728333 13.376977717019642 166033.14055356962 7.250693297450079 0.20848994217264769
0.4446096290871903 13.314811904576617 139762.4787646717 7.625892476285763 0.2115295447712506
0.4619903440079723 13.260474505302716 117935.22893832935 8.017168075352856 0.21460084544148042
0.47976111876954314 13.213086909191011 99777.54116437714 8.425220021417084 0.21770540575835173
0.4979213143037273 13.171900468420327 84614.84577353796 8.850481426164082 0.2208405804069362
0.5164626543688738 13.136331412398086 71913.51240394633 9.293841220977182 0.22400999671120234
0.5353842837757692 13.10578063086884 61250.429233633324 9.75617737022628 0.22721646933474313
0.5546950601995162 13.079761894121152 52282.49766546442 10.23829404242703 0.23046127462707644
0.5743809261010538 13.057785841189036 44709.870223314065 10.740668667758714 0.23374118936326205
0.5944413338190758 13.039472827682864 38311.00724285742 11.264551206031488 0.23706246056050406
0.6148821566884134 13.024463206142357 32888.14797410009 11.8108749383092 0.2404266419984607
0.6356897885956228 13.012402045558078 28278.51559581562 12.380619437415133 0.2438353676462294
0.6568640664537814 13.002993081888649 24359.45672342151 12.974458473086365 0.24728641384614977
0.6783999460799723 12.995965345154962 21017.982860682074 13.593749662589316 0.2507849083360413
0.7002919392500254 12.99106187349466 18162.986041360087 14.239676839226778 0.25433332328873376
0.7225314161004561 12.987995266896485 15606.304506497072 14.913430431637336 0.25793364474079206
0.7451222451902787 12.986650925506671 13626.846401250355 15.61601892322077 0.2615855535267005
0.768047573779394 12.986761525641732 11829.807598563453 16.348751479742738 0.2652913706103611
0.7912968213508276 12.9881475990592 10284.55092515581 17.1132246875504 0.26905558112823147
0.8148732739503398 12.990678646866403 8950.868650745779 17.91089456816297 0.2728806195809177
0.838760221102347 12.994155791255228 7803.115329845533 18.743096176952974 0.2767672919307
0.8629455178777028 12.998428460600703 6810.127299186037 19.6112354577684 0.2807166243320247
0.887431497354953 13.00338495005422 5951.83481224335 20.51737021148852 0.28473471354869256
0.9121913579933298 13.008874183865027 5208.045592575292 21.463295856436662 0.288824575492238
0.9372158268554501 13.014770134732156 4562.812449771099 22.450457881686965 0.2929858164548676
0.9625040175755409 13.020974426750119 4002.009468397761 23.480960491465336 0.29722286274467197
0.9880268815820457 13.027366004828451 3514.333024337989 24.55719014329735 0.3015415117735949
1.0137754754739237 13.033821658275068 3090.1617660742486 25.681043216057272 0.3059430486233965
1.039743332614891 13.040285091969972 2719.657941494106 26.854574935825383 0.3104294232758241
1.0658992453302074 13.046605136075184 2396.7130981332216 28.080839379894428 0.31500903782619916
1.0922350519719455 13.052736144988891 2114.348362011237 29.36183653036109 0.31968195331333676
1.1187373799280587 13.058572326078435 1867.1107524235977 30.7004350587489 0.32445362198622646
1.14536951874506 13.064027872711637 1650.768652388987 32.09992084163578 0.3293313260112303
1.1721392549092842 13.06903507779847 1461.1158859432549 33.56235814322167 0.3343135577553375
1.198999286655658 13.073493824427471 1294.47103110526 35.09223372446502 0.33941350187494873
1.225948954506279 13.077350667290716 1148.219422925068 36.69150065068594 0.34462748510316316
1.2529482565021282 13.080515523464944 1019.4071124621048 38.36528118053063 0.3499703730720746
1.279994504022051 13.082944202272838 906.03960527579 40.1158957211084 0.35543919589532114
1.3070482528931686 13.084548885504011 806.160054235121 41.94866743330944 0.3610476413504958
1.334082872329674 13.085239717868921 718.0115580906476 43.867239892838356 0.3667985291107014
1.3610925154455826 13.085031412330817 640.1315659604802 45.876144908509595 0.37269873195380276
1.3880332957657444 13.083778322909112 571.3189081019907 47.980798613556075 0.3787586553543514
1.414878998127479 13.081450546000159 510.40936804976644 50.18605510917326 0.3849844335285734
1.4416118814183516 13.078003589915802 456.5111551657448 52.49695681569262 0.39138210412939567
1.468207887566939 13.073400125216937 408.68460261817086 54.9200144867097 0.3979638341657846
1.494619548524212 13.06752230717553 366.2287931508037 57.461423506967876 0.40473869391338896
1.5208325435936227 13.060364638329208 328.5776469218646 60.127817864319425 0.411716464495189
1.5468175902489762 13.05186898754313 295.05306419704283 62.926309638254594 0.41890769642358044
1.5725354739362531 13.041976001316726 265.25500456291957 65.86453226997982 0.42632377292396206
1.5979491574842786 13.03063086788388 238.71687441002396 68.9506879980542 0.4339769785995103
1.623058202345743 13.017812678327061 215.04407870353532 72.19359989133115 0.44188057406536024
1.6478001418584394 13.00344647074771 193.92643802697978 75.6027689650912 0.45004887725637077
1.6721482196335544 12.9875004903531 175.0873407053553 79.1879905883762 0.45849548846372296
1.6960849903711566 12.969938301639417 158.22970598716148 82.95976671021349 0.4672349564799254
1.7195651363326316 12.950707912228156 143.15463537681873 86.93070113891255 0.47628822963498774
1.7425460109935786 12.92975676523078 129.673803826088 91.11222102672978 0.48566902011749896
1.7650252164751463 12.907087832739839 117.57119113925711 95.51875216151365 0.495400555372808
1.7869375016045572 12.882603514636768 106.73338656457761 100.16364638488916 0.5054990760510162
1.8082870990251427 12.856358805522778 97.00289715815211 105.0636103403907 0.5159909576578294
1.8289906070045587 12.828202936102103 88.25307987189478 110.23520401116926 0.5268987648462533
1.8490708481574465 12.798218016072045 80.39864683550168 115.696279545454 0.5382466361209248
1.8684420791742757 12.766260342048243 73.32236406585116 121.46667692329689 0.5500624887788091
1.8871184021214313 12.732418491914702 66.94958313880977 127.56783984788139 0.5623761702930468
1.9050348379854607 12.69658303530771 61.20006526267813 134.02260555300325 0.5752183444830468
1.9221735882737747 12.658741793142473 56.02689881687604 140.8565268596226 0.5886247663551166
1.9384817939279775 12.618839604509139 51.34774556642991 148.09730749889738 0.6026337210337105
1.9539710886404529 12.576964975569174 47.12390743982049 155.77325455583377 0.6172802420150406
1.968579633244967 12.533010209539459 43.302134699190326 163.91827027195356 0.6326127312967218
1.982289974002174 12.486987097517693 39.845453520311 172.56642386132074 0.6486736515351168
1.995070038837943 12.43888235156464 36.71414257656934 181.7565639187815 0.6655145803422435
2.0069002345317113 12.388698000936623 33.875675129718466 191.53099287479782 0.6831908329714265
2.0177391142333767 12.336398302744128 31.302420794900783 201.93580732699806 0.7017617245584429
2.0275670851220706 12.281991031411543 28.967829113225566 213.0207406502342 0.7212890856617458
2.036367742977776 12.22549528261117 26.84793532891267 224.8419172624133 0.7418451851392849
2.04410223085268 12.166873697052516 24.922129834720447 237.46001057981675 0.7635053779407897
2.0507509472033627 12.106139481548652 23.169010729128008 250.94226764387733 0.786353310009607
2.0563141143090973 12.043362914330997 21.57749811229985 265.3620632932769 0.8104778164090367
2.060749446111465 11.978485245721059 20.12583874602333 280.80077741164524 0.8359771651288289
2.0640433171157206 11.911560008069852 18.80676675381708 297.34875147221436 0.862960035625437
2.0661897663188094 11.84262742818716 17.606221626747228 315.1063769531311 0.891546639624718
2.0671759040729234 11.77171510231001 16.51188038589961 334.18286710919716 0.921861827398136
