M[M_sun], R[km], Lambda[1], P_c[MeV/fm^3], rho_c[fm^-3]
0.24162668629717493 15.618656898711224 2160425.4255784233 3.5677272577965504 0.1711233750220791
0.2536440019420222 15.27728159439407 1723227.9370724787 3.7848196315992206 0.17388817337216947
0.2660399392230702 14.981251897446247 1382931.9585600768 4.011401540094361 0.17666666179415733
0.27881490703158374 14.723524599503918 1116426.0408229071 4.247729074714533 0.17945752419449174
0.2919694009854188 14.498421453624802 905910.8925319533 4.494427385972385 0.18226732619952754
0.30550436695539307 14.301241027418667 738649.5879237588 4.751651547187065 0.18509176366141972
0.31942074878106286 14.128150259632744 605105.9190875106 5.0200847406099784 0.1879374750648894
0.33371706378091975 13.975998212142434 497675.95752199134 5.299949755192363 0.19080105866708996
0.34839992557633703 13.842035687262806 411010.9428097581 5.5919767002128875 0.19368884132475914
0.36346196423680216 13.723999253247177 340653.8879310729 5.89633097473644 0.19659585130294374
0.37891514125470044 13.620012597710154 283297.8453052846 6.21387744114599 0.19952978578169656
0.39474802177105256 13.5284430359759 236403.94309836964 6.544874514585522 0.2024868408940823
0.4109724128059099 13.447881517174128 197865.88000480726 6.890022613869912 0.2054706943833603
0.42758056848038195 13.377061419588332 166086.7603795968 7.2500277211119935 0.2084844360301753
0.4445753348848468 13.314953366562948 139803.52980667606 7.625150324730098 0.21152363676766564
0.4619566632914563 13.26058342502178 117979.36390940208 8.01633640242478 0.2145944117790031
0.4797216514298211 13.213150621634906 99811.14814568413 8.424292340848432 0.2176984308973491
0.49787769273130233 13.171993403749653 84646.48725547001 8.849461158076284 0.22083319323005351
0.5164164681170408 13.136404599441589 71939.7359901947 9.292711852603116 0.224002045887441
0.5353337124167387 13.105853500217082 61277.654587856516 9.754931242948553 0.22720793768778622
0.5546402712982152 13.079814756325359 52300.955006756 10.236928887387293 0.23045221951939934
0.5743233415386834 13.05784179306351 44731.740102203396 10.739178731437763 0.23373162351055704
0.5943785157678527 13.039530632315817 38326.30456059732 11.26291993476258 0.23705226834809595
0.6148165007027263 13.024517449383836 32903.13312810548 11.809092693773511 0.24041580297807438
0.6356199801987257 13.012451522519992 28293.425981163768 12.378675979917647 0.24382386029017647
0.6567903636535004 13.003028133088396 24371.713277132363 12.972362727393428 0.2472744354231699
0.6783221422078053 12.995988031533752 21028.410526537526 13.591471865299393 0.2507722261709894
0.7002094579891369 12.99105399772888 18173.315633777336 14.237204775158341 0.25431991222051337
0.7224433534531418 12.98799885434774 15730.525052190404 14.910751100676727 0.2579194781080219
0.745030094094254 12.98665749299911 13634.547100597918 15.613144634802264 0.2615708620708959
0.7679512797893544 12.986759294401907 11837.076261997978 16.345643305333326 0.2652758771404873
0.7911949797445932 12.988132979821984 10289.070417631452 17.10986702524739 0.2690392539534518
0.8147685245751974 12.990672710142858 8956.572386351847 17.907270781567686 0.27286342497263627
0.8386512268286689 12.99412798643219 7807.958131921655 18.739222339995603 0.27674949365425794
0.8628311129408582 12.99840779900715 6815.0035757888045 19.607061194735845 0.28069789704636755
0.8873112900512841 13.003362806615723 5955.674402255001 20.512875428313862 0.2847150167118941
0.9120671277359401 13.008841643036668 5211.359762660458 21.458459082914047 0.28880386582868084
0.9370873316944004 13.014730321119059 4565.543019965769 22.445299267670404 0.2929643905091122
0.9623654982383261 13.020936633244125 4004.6354995429024 23.475415291255135 0.2972003420389788
0.9878896442935164 13.027327418492824 3516.662355408215 24.551232251605757 0.3015178438982482
1.0136314005179476 13.03378631887925 3092.0532793658695 25.67469569722482 0.305918552325759
1.039595617010445 13.040237636770083 2721.6003082073885 26.84776017916315 0.31040367835228433
1.0657462032075955 13.046572516590999 2398.4754302936913 28.073525480138365 0.3149819805306741
1.0920778143094303 13.05269928828488 2115.9219843822802 29.354049411976774 0.3196539244684683
1.1185749018766822 13.058538214546594 1868.7060490622998 30.692081737717004 0.3244241551050047
1.1452055899715503 13.06399438238752 1652.1784820601833 32.091028584509516 0.32930077309159655
1.171968582158796 13.069001271150933 1462.120212453232 33.55282262907139 0.3342814220894984
1.1988243910840994 13.0734592543229 1295.5849354853626 35.082009939681825 0.33937969459034506
1.225769463487754 13.07732620193749 1149.1121562480807 36.680618267525126 0.34459238021964306
1.2527643101987687 13.080492892957674 1020.2320182449696 38.353696028663244 0.3499338925394727
1.2798050046210705 13.082936429139655 906.6726298064444 40.103476101945574 0.355400773742758
1.30685054142103 13.084522749079794 806.78903701274 41.935443058092304 0.3610076620607303
1.3338869160193878 13.085232605461046 718.6232183435393 43.85306246985066 0.3667563864775587
1.3608933715688774 13.085033937028733 640.6811003503949 45.8610441483155 0.3726548209944415
1.3878249494551318 13.083774301153111 571.8335306242085 47.964710005800384 0.3787128619831631
1.4146818033546515 13.08148443843346 510.8529225331924 50.16880220651124 0.3849360889940053
1.4414041012372727 13.078036639867003 456.88227105497157 52.47856701073752 0.39133161261505345
1.4679991022690366 13.073436415084664 409.0407587825065 54.900406337524245 0.3979110525546261
1.4944078476793035 13.06757310370215 366.5592231622077 57.440508974025654 0.40468346802352706
1.5206196065818716 13.060428901013784 328.857397999228 60.105501719735926 0.4116586281711055
1.5466028334304505 13.051944410908183 295.3063392433937 62.902488816063546 0.4188470705372649
1.5723190425310758 13.042066306643123 265.47549978035886 65.83909515088855 0.42626016427630914
1.5977427354093572 13.030738734545244 238.93765393854596 68.9235136213136 0.4339101787111754
1.6228304777959757 13.01791962232467 215.25735858888947 72.16455708544962 0.4418103578449826
1.6475810327522886 13.003584053050263 194.10774670498435 75.57171538809656 0.449975001532618
1.6719304839664193 12.987650550401149 175.24541278252886 79.15493385229388 0.45841836747663656
1.6958680116752325 12.970105046750279 158.37505677787357 82.92438423195685 0.46715364764794215
1.719348312574199 12.950895124299903 143.28731502862735 86.89281074330297 0.47620242653136136
1.7423343504242335 12.929957250619525 129.7875669354633 91.0718069435062 0.4855791136582158
1.7648146825323727 12.907311980267409 117.6856015772537 95.47542498770578 0.49530548587898576
1.786740870899412 12.882877972888982 106.82818737835116 100.11736839182852 0.5053992101497052
1.8080801147592305 12.856627858150858 97.09109384360828 105.01414150776954 0.5158859104880676
1.828790555539355 12.828496439281423 88.33696896264036 110.18228253227271 0.5267881201114049
1.8488709546760496 12.798533421589152 80.47135529445043 115.63940334454814 0.5381291495163214
1.868257340396813 12.766628255531195 73.38687398102948 121.40574250256705 0.5499384486281772
1.8869272325605306 12.732781168486833 67.01126086255552 127.50270259537494 0.56224574957956
1.9048508744985244 12.696971002601526 61.2596538969437 133.9527361288258 0.5750804005454568
1.9219944552650512 12.65915689250566 56.07877113319323 140.78148132303403 0.5884785491114669
1.9383094112616175 12.619285740297093 51.39601909719765 148.01663634451452 0.6024785460546149
1.9538073156788502 12.577433478714092 47.165427418936304 155.68672985228767 0.6171162690405758
1.9684245713072432 12.533510256661605 43.34170739115415 163.82536757320767 0.6324391882833892
1.9821410012301899 12.487515119720033 39.88212288834959 172.46628755999433 0.6484887608033942
1.9949297151683658 12.439445521770159 36.746312298742296 181.6488309459714 0.6653183432384677
2.0067685670897504 12.389289223025587 33.90457351945938 191.4149634718502 0.6829822455221841
2.017618242397053 12.337020634405462 31.330650040955742 201.8107095686179 0.7015396883771944
2.0274564071294403 12.282639979079532 28.994024476031296 212.8860376392712 0.7210534308030911
2.0362677501440145 12.226180897283415 26.870415193046725 224.6963618928533 0.7415935892178186
2.044016624349808 12.167590410088797 24.944197931422877 237.30289359801685 0.763237479053809
2.0506762283077764 12.106891611583336 23.18911943547853 250.77245365248098 0.7860675777426207
2.0562527680326452 12.044151034070804 21.595834380810626 265.17811565697417 0.8101719921481532
2.0607002019998593 11.9793112908806 20.143179391820734 280.6016507585769 0.8356505510714742
2.064008553488944 11.912420155052569 18.822627655191543 297.1327116043521 0.8626100123292357
2.0661720393911853 11.843523505890884 17.619675988102845 314.871688618557 0.8911709497607077
2.067168521058061 11.772639100665115 16.52440022712207 333.9279820540275 0.9214592568135701
