M[M_sun], R[km], Lambda[1], P_c[MeV/fm^3], rho_c[fm^-3]
0.24162668629717493 15.618656898711224 2160425.4255784233 3.5677272577965504 0.1711233750220791
0.2536443053818344 15.277281033935523 1723236.924361452 3.7848253580179696 0.17388824474921666
0.26604058297406236 14.98125294824358 1382932.8863028865 4.011413578195821 0.17666680726750908
0.27881654810815315 14.723470739238884 1116448.4151023673 4.247747831793558 0.17945774174834211
0.29197098087991324 14.49836913082961 905905.3846433287 4.49445335425705 0.1822676153624042
0.30550617146923215 14.301227436977525 738683.9323704569 4.751685608452912 0.18509213158809776
0.3194235281680111 14.12811148592352 605098.9103680926 5.020127145789626 0.18793791503499513
0.33372158993418294 13.975952417177446 497649.6830848591 5.300001620734107 0.19080158086703483
0.348403008218236 13.842010711640787 410996.3840067837 5.592038155641485 0.1936894359229366
0.36346652364849813 13.723951195372655 340633.7301983061 5.896403400774733 0.19659653154362236
0.37891950235303956 13.619990869920072 283295.96521415864 6.2139617142906705 0.19953055425130456
0.39475169302510177 13.52846205764575 236399.07837941727 6.5449705473687 0.20248768297185685
0.41097773057620735 13.447873758520004 197866.69880367618 6.8901322602496915 0.20547162817794182
0.4275866080558339 13.377031652319042 166073.9122755319 7.2501520100407815 0.20848546424063064
0.44458193276940783 13.314913194647593 139801.10928533738 7.625288912713197 0.21152474001712288
0.46196347575743246 13.260555605140269 117977.19182609704 8.016491706832243 0.21459561318415302
0.4797290416562617 13.213134145326126 99809.04456592396 8.424465572771954 0.2176997333592402
0.49788605607781905 13.171999041651533 84640.64074570379 8.849651678805262 0.22083457268153456
0.5164246849883177 13.136398397422527 71935.32389616787 9.292922745439872 0.2240035305861594
0.5353437893855686 13.105840390093363 61274.29608060576 9.755163937861946 0.22720953084033588
0.5546508149097467 13.07981724682822 52305.01408417548 10.237184901239793 0.23045392447178567
0.5743336974255766 13.057832656725186 44325.64346591806 10.739456951861042 0.2337334097718564
0.5943907398408722 13.039519691656713 38324.58224013907 11.263224545906347 0.23705417156403455
0.6148284869635883 13.024498564489669 32899.61249033852 11.809425495211743 0.24041782696608577
0.6356334960947471 13.01244321677061 28290.9782606028 12.3790388834985 0.2438260090692072
0.6568043293676514 13.00301899431338 24369.667800665422 12.972754066601134 0.24727667215760496
0.6783365527814585 12.995973896794231 21026.690542265107 13.59189719740139 0.25077459430618004
0.700224744610858 12.99104982262989 18035.05209234777 14.237666380815378 0.2543224164537315
0.7224585836339293 12.987997551582708 15728.14337601431 14.911251407090479 0.25792212341662335
0.7450482706209285 12.986652743584635 13536.612439126855 15.613681343523565 0.26157360536986624
0.767968933430297 12.986748462617497 11835.513381415336 16.346223684741318 0.26527877018627194
0.7912138430431145 12.988139683899059 10288.17773121187 17.110493988275906 0.26904230266235196
0.8147894720030306 12.990669197635855 8955.635563686936 17.907947434279844 0.2728666356413725
0.8386739171994723 12.99412064029695 7807.137135579743 18.739945681122094 0.2767528170324674
0.8628522995751893 12.998416119635785 6814.120290783537 19.607840629763487 0.28070139387977266
0.8873338887967175 13.003365343760267 5954.937014622523 20.513714708812024 0.28471869456916954
0.9120907566830517 13.008844686357591 5210.810120616155 21.459362217357672 0.2888077327888325
0.9371105928919875 13.014737305539734 4564.933066322398 22.446262493859624 0.2929683912023244
0.9623951752891724 13.020950843266336 4004.2865324262757 23.476450697379406 0.2972045471308986
0.9879163750763496 13.02733304107399 3516.3177708279673 24.55234471143849 0.30152226317305414
1.0136575469051226 13.033796217300987 3091.6409557121847 25.67588090449167 0.30592312626885976
1.0396248005596853 13.040240915636293 2721.2353599359208 26.8490326237309 0.3104084854187328
1.0657747601983363 13.046582544562021 2397.996531151874 28.074891118529763 0.314987032620909
1.092107012550065 13.052701430851418 2115.62096534564 29.355503404014218 0.3196591579470474
1.1186051953406975 13.05854167158536 1868.4334258423526 30.69364144315103 0.3244296570669897
1.1452367297972361 13.06399577439525 1651.9744762052337 32.09268891266155 0.3293064778155912
1.1720012505838326 13.069007628994404 1461.9419991004784 33.55460305601575 0.3342874223118706
1.1988563995695247 13.073471155847669 1295.3629507447956 35.083918868974216 0.3393860069020031
1.2258026800126214 13.07733159457978 1148.9558698076557 36.68265015945729 0.34459893478848613
1.2527985857030652 13.080499491370764 1020.0926271627632 38.355859129428815 0.3499407039364145
1.2798431057525437 13.082937098442434 906.6417396555785 40.10579499825154 0.35540794763323547
1.3068853637442996 13.084527939407412 806.6675647076427 41.937912203069324 0.36101512666006963
1.3339236986831207 13.085231334944485 718.5127963367778 43.85570954760912 0.3667642549616247
1.3609318736274665 13.085030596478731 640.5681264948275 45.863863612190904 0.372663019612396
1.3878628956447108 13.083773327158582 571.7577081468319 47.96771389893177 0.37872141203269283
1.4147190158887157 13.081481770939162 510.7514547861363 50.17202346864757 0.3849451153255017
1.4414428822399592 13.078029382641038 456.8218414918791 52.48200052806371 0.3913410397672034
1.4680386326386958 13.07342840221847 408.9843731071105 54.90406731377002 0.39792090724426754
1.4944471306475888 13.067563529676422 366.48838278610214 57.44441384446686 0.4046937790328863
1.5206595766857396 13.060416615036313 328.80545924574255 60.109668261461394 0.4116694265174166
1.5466433269839615 13.051930097961257 295.26953527681525 62.90693626924356 0.4188583896591962
1.5723606970276671 13.042047528641397 265.436385984856 65.84384435227244 0.42627204023900667
1.597783430604062 13.030720390814572 238.89428705822488 68.92858715132911 0.43392265043193406
1.622870441852157 13.01789709608241 215.20953631366328 72.16997943044836 0.4418234673418043
1.6476220803617379 13.003557389269355 194.07806940349067 75.57751311947948 0.4499887941981815
1.6719704981802672 12.987623940428422 175.20660319538104 79.16110554964528 0.45843276597594856
1.6959087390172922 12.970070841663897 158.35663616695618 82.93099011189216 0.46716882794079406
1.7193890043356799 12.95085990690559 143.26230155376277 86.89988481226268 0.476218445817047
1.7423690701353816 12.929915802201856 129.76930302930597 91.07935214597629 0.4855958989564225
1.7648537170715222 12.90727247020468 117.66770204781731 95.48351401185595 0.49532323500416253
1.786780703912585 12.882833725532537 106.81515749529986 100.12600828108091 0.5054178546558808
1.8081186473192976 12.856576131866042 97.07285751618656 105.0233770657467 0.5159055222147907
1.8288284394373961 12.828440361851301 88.32134861004094 110.19216262896857 0.5268087767654135
1.8489084520722077 12.798474109509923 80.45561171452856 115.65002169717256 0.5381510833687316
1.8682835784228469 12.766534797568047 73.37761301853297 121.41711843099489 0.5499616058496436
1.8869635767559638 12.732713206051244 67.00061074495453 127.51489087240928 0.5622701971108083
1.9048874298321863 12.696896920132929 61.251115480587224 133.9657800031662 0.5751061532034918
1.9220279334774564 12.659080003321556 56.0689000777621 140.79549143681638 0.5885058461408919
1.9383413784093104 12.619192503830877 51.387066099352765 148.03169659982427 0.6025075152049977
1.953838683981593 12.577346414387756 47.15651868504046 155.7028827953609 0.617146880484632
1.9684524393717033 12.533415897863865 43.332931147705466 163.84271109342967 0.6324715861232986
1.9821685107743914 12.487415639198582 39.87495985607651 172.48498135413053 0.6485232768503296
1.9949591296673084 12.43933916441959 36.741991734164316 181.668942782462 0.6653549772275017
2.0067941159537184 12.389179179193684 33.90076832940708 191.4366239585437 0.6830211848388915
2.017641822603218 12.33690317717844 31.32555887742851 201.8340627814771 0.701581138026415
2.0274768104875207 12.282518730627809 28.988607778110676 212.9111837902561 0.7210974224897928
2.0362870117053933 12.22605530073205 26.867541879837596 224.72353374038505 0.7416405564031471
2.044031252491412 12.167457596874193 24.94019585659053 237.33222352062847 0.7632874892661544
2.050691357636788 12.106750343605812 23.18592173126842 250.8041535586358 0.7861209166104866
2.056263671824186 12.044004065417132 21.591970565416815 265.212485902122 0.8102291862329483
2.060709458520784 11.979155013989672 20.140077029636995 280.6388219877251 0.8357115205388052
2.0640147555468205 11.912258103512638 18.81866183019787 297.1730397014293 0.8626753510725341
2.066175414299962 11.843357399680494 17.6165217159564 314.91549743128604 0.8912410790533566
2.06716884576916 11.772463203378582 16.522225111819736 333.97556053383715 0.9215344032218874
