M[M_sun], R[km], Lambda[1], P_c[MeV/fm^3], rho_c[fm^-3]
0.24162668629717493 15.618656898711224 2160425.4255784233 3.5677272577965504 0.1711233750220791
0.2536446638672094 15.277250884197121 1723019.517630289 3.784832538930303 0.1738883342558247
0.2660407453530884 14.98125668401187 1382891.481356698 4.011428673976289 0.1766669896911071
0.2788168745714069 14.723474784011854 1116327.471888021 4.247771353227557 0.17945801456153046
0.2919721107821304 14.498362493675762 905857.3136060303 4.494485918638946 0.18226797797435443
0.30550848085780397 14.301184060440157 738626.320422784 4.75172832157951 0.18509259297138422
0.31942552478286046 14.128091062257466 605061.3013843425 5.020180322373553 0.18793846676257764
0.3337227856970536 13.975975123971988 497667.43362488237 5.3000666608675475 0.19080223571325747
0.34840686892315087 13.841978133843005 410976.098363442 5.5921152217923815 0.19369018155914672
0.3634706261829165 13.723930631220988 340636.5567651341 5.896494224456273 0.19659738457885972
0.37892530235849087 13.619951468535273 283284.1131606981 6.214067394708213 0.19953151792946505
0.39475823568998364 13.52841042669037 236384.35491412634 6.545090974877369 0.20248873895841826
0.41098421234816557 13.44782001464177 197837.33964340307 6.890269759842895 0.205472799182177
0.42759212927217716 13.377035049539634 166064.87935091252 7.250307872127181 0.2084867536477274
0.44458962300046234 13.314897427764995 139787.29594399434 7.625462706578485 0.21152612352803965
0.4619721006047302 13.260537847063233 117969.71802180167 8.016686464048284 0.21459711978867355
0.4797383887605796 13.213114394333354 99808.96992037339 8.424682812179412 0.21770136669588916
0.4978963117052542 13.17195209024875 84631.39681434845 8.849890599468349 0.22083630256921827
0.5164364497558513 13.136366343976595 71929.09843943629 9.2931872140898 0.2240053924619426
0.5353557579964404 13.105816274428022 61266.10432500756 9.755455747847776 0.2272115287259629
0.5546638901297336 13.07979753860231 52298.078090064024 10.237505954890125 0.23045606256385343
0.5743478113202287 13.057838505503085 44321.800960744666 10.739805854228463 0.23373564983313166
0.5944062282280281 13.039525834021429 38322.35199460027 11.263606544334754 0.237056558297128
0.614843644549619 13.024487252867988 32895.76094213444 11.809842846599489 0.24042036515885867
0.635649891194369 13.012442193366613 28287.58749850049 12.37949398555598 0.24382870376225949
0.6568215323750995 13.00300477228158 24365.985341789965 12.973244829412273 0.24727947715658669
0.678354812857336 12.995968705666613 21024.00609441431 13.59243059041178 0.25077756409555735
0.7002439883256717 12.991048973013637 18168.843971004324 14.238245264294438 0.2543255569248578
0.7224793239890244 12.988000512623364 15725.764833205902 14.911878825097812 0.2579254408121351
0.7450692139776032 12.986639247621625 13631.299271343909 15.614354413604577 0.2615770456576553
0.7679920311047829 12.986746815773529 11833.74887794833 16.346951522370283 0.26528239827430433
0.7912382927522663 12.988144658839833 10286.81731581756 17.111280246715072 0.26904612597089217
0.8148123674718986 12.99068030000273 8954.289219934704 17.90879600901478 0.27287066206781374
0.8386966524206719 12.994132817467813 7805.895170797082 18.740852808238184 0.2767569848122057
0.8628801060532363 12.99840311867908 6812.641800377383 19.608818105073716 0.2807057791950282
0.8873629673693318 13.003369336022482 5954.08967154246 20.514767237399543 0.2847233069126372
0.9121198939182804 13.008851399484964 5210.028997608402 21.46049482652045 0.2888125822932786
0.9371404192411614 13.014749877531479 4564.204914710119 22.447470465321654 0.292973408428063
0.9624265059658224 13.020960867637832 4003.5719516957147 23.477749191618727 0.2972098207018247
0.9879481417545191 13.027341409111779 3515.687934616626 24.55373984102665 0.3015278053606088
1.013691249533085 13.033805197175521 3091.346905415605 25.677367268754306 0.3059288624348069
1.0396575911919104 13.040255104488427 2720.7460172329443 26.850628395386483 0.3104145139566977
1.0658101695940407 13.046583742864222 2397.569170248304 28.076603768165324 0.31499336845662806
1.0921449936277337 13.052709849487838 2115.157383032072 29.357326861299235 0.319665721273665
1.1186432888033027 13.058548448059767 1867.932236055716 30.69559748031823 0.324436557114845
1.1452758451032732 13.064007162937342 1651.6675642638454 32.09477114516733 0.3293136321613894
1.1720402288757583 13.06901256948924 1461.6728942115815 33.55683591049264 0.33429494726167464
1.198897231239086 13.073472567188773 1295.0517342808807 35.08631288518421 0.3393939232645903
1.2258444924066838 13.077339329538667 1148.7261626535112 36.68519838962487 0.3446071549845492
1.2528416323841913 13.080502388697411 1019.8427920120041 38.358571915907234 0.34994924624096957
1.2798857649135127 13.082942613826532 906.4571900223481 40.108703177754755 0.3554169445690584
1.306929641437149 13.084522938779987 806.5336850305008 41.94100881876444 0.3610244881984512
1.3339682444213528 13.085242363310108 718.3866371740328 43.859029321211885 0.36677412304563256
1.3609779952978502 13.085030272532252 640.4356505963528 45.86739958707429 0.372673301747031
1.3879105420013838 13.083768707584316 571.6461212588405 47.971481179794566 0.3787321349301331
1.4147602415325888 13.081464605443173 510.6736273713102 50.17606336930501 0.3849564355723501
1.441491827196566 13.078021439034355 456.7489224173615 52.48630663469634 0.3913528627226579
1.4680871124147796 13.073420882837771 408.888288771163 54.90865869532721 0.3979332664176775
1.4944961277508428 13.06755604318657 366.42047527901474 57.449311114605536 0.404706710524211
1.520708878501157 13.060402138629872 328.73974726408125 60.1148937168582 0.41168296922998876
1.546693265783865 13.05191238926046 295.20328780953326 62.91251404170849 0.41887258553357204
1.572409531839926 13.042028593274324 265.38425860499945 65.84980057620113 0.42628693451016464
1.5978237679801914 13.03069057455526 238.84300322978865 68.93495014821926 0.4339382919123549
1.6229212833248037 13.017867269695852 215.16496183067787 72.17677991241455 0.44183990873325796
1.6476741940518045 13.003526562069771 194.03886535422393 75.58478441394404 0.45000609243539524
1.6720216991999886 12.98759116325064 175.17480495391635 79.16884587468589 0.45845082406571325
1.6959593176205927 12.970031744805043 158.3203265348366 82.93927499535388 0.46718786657885963
1.7194395634074022 12.9508161905656 143.23443933732244 86.90875690751704 0.47623853674764416
1.742416348688189 12.92983934706364 129.74804158326285 91.08881514577949 0.48561695064777965
1.7649034871797302 12.90721689128773 117.64253846591465 95.49365908785565 0.4953454955661913
1.7868302609228734 12.882777648984291 106.79353169068841 100.13684426722894 0.5054412382438823
1.80816778033905 12.856514198959495 97.05306246426343 105.03496015848994 0.5159301189365101
1.828876178705362 12.828373456967888 88.2997737850323 110.2045541254014 0.5268346840882203
1.8489555939016564 12.798398501899399 80.44016996002773 115.66333914735324 0.5381785926253062
1.868330097347755 12.766455473019064 73.36191260519084 121.4313860672933 0.5499906495286419
1.8870079263043433 12.73263010769648 66.98717389068865 127.53013455753005 0.5623007061396778
1.9049296039150472 12.6968072098879 61.23697666922925 133.98213966148202 0.575138452248636
1.922069459679621 12.658983052585135 56.05816061368476 140.81306301036827 0.5885400822483027
1.9383813183211198 12.619088068922018 51.37562066842444 148.05058532903783 0.6025438486154128
1.9538753536766067 12.577238979011174 47.14985601674521 155.72314204579408 0.6171852737921824
1.968490599384288 12.533297843420794 43.3265098256228 163.86446365056676 0.632512220080807
1.9822040483917318 12.487291879369849 39.86520929276622 172.50842753338895 0.6485665676567781
1.994989157566206 12.43920705952251 36.73207903525679 181.69416758738464 0.66540092455943
2.006824138973129 12.389040723437942 33.89262909697493 191.46379121702174 0.6830700237452797
2.017668369179243 12.336758501495304 31.317958008031447 201.86335321614408 0.7016331256586857
2.027502652074377 12.282368099096212 28.982116056189565 212.94272310081746 0.7211525986266829
2.0363103856279374 12.225891271439545 26.861490985291308 224.75761389385167 0.7416994647597476
2.044051388875886 12.167290212598537 24.93475479420036 237.369010566939 0.7633502145594295
2.0507091299403184 12.10657370667224 23.180709205790016 250.8439133115835 0.7861878171305859
2.056278769811484 12.043818831675821 21.588214525670153 265.25559512762294 0.810300922488775
2.0607217018912043 11.978964337479113 20.136314575560302 280.68544456032885 0.835787992409184
2.064024052798324 11.912058514072113 18.816468507426332 297.223622046121 0.8627573035343358
2.0661806949664663 11.843148150844504 17.613460920173715 314.97044578695807 0.8913290405632777
2.067169191294668 11.772246631776207 16.51861230194933 334.03523736312303 0.921628658006793
