M[M_sun], R[km], Lambda[1], P_c[MeV/fm^3], rho_c[fm^-3]
0.24162668629717493 15.618656898711224 2160425.4255784233 3.5677272577965504 0.1711233750220791
0.25364503021960966 15.277252258119654 1723080.0939200956 3.7848436546339808 0.17388847280770867
0.2660424384803399 14.981213997780591 1353319.7816492505 4.0114520415917765 0.17666727207494964
0.2788197727439585 14.723419282680545 1116410.8741956993 4.2478077635110045 0.17945843686594934
0.29197478638072244 14.498334910342976 905788.5155654473 4.494536327223849 0.18226853928564654
0.30551234351920736 14.30113239095841 738555.4940529616 4.751794440301645 0.18509330717977276
0.31942986296964176 14.128047328750595 605027.3033599126 5.020262638488969 0.18793932082404619
0.33372874863990787 13.975862929453974 497613.33088907046 5.300167341803079 0.19080324940321838
0.34841275402976096 13.841881374122321 410936.9185240635 5.592234519137704 0.19369133579378028
0.3634781101647412 13.723869708148005 340628.04742413 5.896634818708914 0.19659870506983346
0.37893261178293997 13.61990578782868 279330.1565198885 6.21423098756268 0.19953300969931917
0.3947666195751165 13.528376979413048 236371.2277200561 6.545277396695687 0.20249037362592137
0.4109940981040758 13.447778509764913 197821.2700101037 6.890482609898946 0.2054746119025734
0.42760419807720035 13.3769766243667 166042.86755751297 7.2505491481420625 0.20848874966236475
0.4446015188853855 13.314864829408998 139772.15689728802 7.625731741886939 0.2115282652220841
0.4619833039244233 13.260485051036657 117950.09299056043 8.016987951808257 0.21459945204023934
0.4797522361999916 13.213085909969404 98721.08182496323 8.425019103779208 0.2177038951385926
0.49791235951367113 13.171913934060795 84620.31540812648 8.850260455110444 0.2208389804820942
0.5164532746299019 13.136335013870246 71920.4340110322 9.29359661989892 0.22400827470436227
0.5353740313174007 13.105790383433357 61258.23929754338 9.755907480219294 0.2272146215248942
0.5546828004347001 13.079777058982154 52289.7373911868 10.237999991660038 0.23045933426352766
0.5743679940164435 13.057815544636034 44715.849975089455 10.740345970571925 0.2337391175473638
0.5944262877483331 13.039523607374196 37982.904107293114 11.264197896546822 0.2370602530764503
0.6148683702059831 13.024489419649214 32891.66969326044 11.810488928770916 0.24042429441642524
0.6356751029859221 13.012422941307012 28282.49955789602 12.38019850979331 0.2438328753025465
0.6568481420929836 13.002994492990297 24361.867160195186 12.974004560384953 0.24728381946728417
0.6783823893569049 12.995976232812483 21020.022631753367 13.593256317906738 0.25078216152502364
0.7002743744633235 12.991052004219334 18165.37616542552 14.239141416588268 0.25433041859478855
0.7225069504173259 12.988031251726305 15723.32368029682 14.912850115028316 0.2579305763881282
0.7451027511502508 12.986642016976347 13628.704295687063 15.615396378819252 0.26158237149266994
0.7680269310598306 12.986753813836879 11831.290205764557 16.348078275261965 0.26528801485486997
0.7912743890329279 12.988139205769816 10285.567767478264 17.112497443347806 0.2690520447859398
0.8148507197854962 12.990681285852627 8952.146092454472 17.910109680489537 0.27287689534502946
0.838737542907948 12.994135949375977 7804.0672882512645 18.74225712747011 0.2767634369324621
0.8629203066709151 12.998421967378212 6768.7323603062505 19.610331334393436 0.280712568100642
0.8874063406676228 13.003367743941686 5952.623441657837 20.51639666142175 0.28473044730134867
0.912165366075164 13.008866556120044 5208.729703693765 21.462248228755307 0.2888200898538858
0.9371885999358728 13.014775555430361 4563.063113623071 22.44934054103501 0.29298117565791665
0.962474874770519 13.020980801899155 4002.6595569957985 23.479759412717247 0.2972179848070007
0.9879984920922525 13.027357039341132 3514.8254951469044 24.555899671392062 0.301536385341331
1.013745095281164 13.03381615960863 3090.660306097412 25.679668347046587 0.30593774273909946
1.0397115045071246 13.040274170641679 2720.145272379833 26.8530988575084 0.31042384691773933
1.0658658966764756 13.04660158048778 2396.963855216248 28.079255180691778 0.31500317718448595
1.0922012047804224 13.052735881565555 2114.676870687699 29.36014982598085 0.3196758822132097
1.118702257900932 13.058560394838192 1867.4004972493728 30.69862570644168 0.3244472393787196
1.1453355146444235 13.06401691599256 1651.074488124607 32.097994747909325 0.3293247081428988
1.1721030113102116 13.06902826609974 1461.2529670128893 33.56029270919792 0.33430659702972226
1.1989607859800675 13.073488929007446 1294.693775195896 35.09001919868494 0.33940617903855336
1.2229658305030373 13.07550729601035 1162.2326267273138 36.787960592008304 0.608990096944527
1.2301956750682543 13.059405635448375 1112.258604174792 39.08953127545736 1.0681420003454125
