M[M_sun], R[km], Lambda[1], P_c[MeV/fm^3], rho_c[fm^-3]
0.24162668629717493 15.618656898711224 2160425.4255784233 3.5677272577965504 0.1711233750220791
0.25364557439426066 15.277230394827727 1723048.9648358978 3.7848440255525 0.1738884774310291
0.2660423186549703 14.981225214354144 1383032.4602776298 4.011452821344485 0.17666728149780095
0.2788195712757169 14.723453413842094 1116344.2129828262 4.247808978486338 0.17945845095783228
0.2919748143797083 14.498322393685152 905745.916767665 4.494538009312135 0.18226855801609002
0.3055120133941692 14.301140650533059 738565.7266890096 4.7517966466273425 0.18509333101230113
0.3194299604323008 14.128050812716884 605010.5886144703 5.020265385313287 0.18793934932340867
0.3337320651212567 13.975779181764192 497608.906778111 5.300170701453793 0.1908032832293264
0.34841306108590425 13.84192533597699 410941.3206053275 5.592238500012127 0.1936913743098354
0.3634783722340545 13.723859224073143 340619.76774553664 5.89663951025639 0.19659874913384018
0.37893319636952244 13.619894039992186 279341.18419653113 6.214236446570578 0.19953305947889813
0.3947669034790782 13.52836233151518 236369.94532256018 6.5452836175051985 0.20249042817401688
0.41099445448793015 13.447797810293475 197822.4542586245 6.890489712620002 0.20547467239232645
0.4276046493484677 13.376969970585451 166046.10124211365 7.250557199441225 0.20848881626869936
0.44460257026788025 13.314835057641913 139771.9873648824 7.6257407195195785 0.2115283366898125
0.4619832026411635 13.260490375117069 117944.49909756884 8.016998012388823 0.21459952986696365
0.4797530540226085 13.213081920901956 99790.32922767247 8.425030325777092 0.21770397951232862
0.4979128798612726 13.171912863250625 84619.93213772884 8.850272797155272 0.22083906984377208
0.5164533185452705 13.136340632205656 71919.3190584398 9.293610281753736 0.2240083708846719
0.5353745364843849 13.105794445330492 61257.80026123447 9.755922554537234 0.2272147247316541
0.5546840150636801 13.079773115652927 52287.71792684399 10.238016415428326 0.23045944263964802
0.5743686465688168 13.057802510159803 44715.53782874822 10.740363994325644 0.2337392332654457
0.594428216994082 13.039490465259306 38315.72841862542 11.264217630083829 0.2370603763719466
0.6148693305291858 13.0244671964332 32891.671281976094 11.810510488695977 0.24042442553674157
0.6356761714091098 13.012406331475697 28281.56917993358 12.38022201998716 0.24383301450814882
0.6568492004484593 13.003000912192768 24361.32494552005 12.974029912883184 0.24728396437176778
0.6783836364330436 12.995961772323184 21019.665133773953 13.593283872782203 0.2507823149431878
0.7002752868222178 12.991044223018513 18165.32941108685 14.239171321622635 0.2543305808310595
0.7225128382443057 12.98799861308884 15722.921926792325 14.912882527500056 0.25793074776508423
0.7451034813788049 12.986651020519492 13628.353199447592 15.615431149815215 0.2615825492189368
0.7680270387568311 12.98675833083842 11831.169251283602 16.348115875740394 0.26528820228382444
0.7912762531076306 12.988148781747064 10285.9060497898 17.11253806206596 0.26905224230101155
0.8148519984156082 12.990683598451811 8952.26405619563 17.910153518721096 0.2728771033543036
0.8387389404857002 12.994138382410592 7804.276617291063 18.742303990756533 0.2767636522450155
0.8629212285780861 12.99842033262648 6810.815669095016 19.610381832190704 0.28071279465241106
0.8874060951010103 13.003371615747074 5952.432360772332 20.516451036838042 0.2847306855828539
0.9121663605828639 13.008862734214372 5208.6398131359965 21.46230674154896 0.2888203403887237
0.9371894603675862 13.014759381535884 4562.911796778449 22.44940294743281 0.2929814348585643
0.9624763713728316 13.020972244192183 4002.5097798676484 23.479826496038736 0.29721825725230167
0.9879999612961183 13.027358757662684 3514.75437571907 24.55597174747658 0.30153667166539866
1.0137454084476556 13.033817531662796 3090.516276429207 25.679745136857086 0.30593803908576706
1.0397128630946364 13.04027410859261 2720.0425094078482 26.853181300021888 0.3104241583707099
1.065868153038127 13.046601728890668 2396.9515994795374 28.079343661923485 0.3150035045150366
1.0922030371018774 13.05272932397647 2114.6211365257495 29.36024403228675 0.31967622129806794
1.1187042410758534 13.058564149450572 1867.3874054265161 30.698726762807926 0.3244475958615998
1.1453381377400746 13.064020964688583 1651.0526848586687 32.098102324451496 0.32932507776530184
1.172105263524498 13.069025012068868 1454.4247731071803 33.56040806807475 0.3343069858010312
1.1989632322739385 13.07348681415274 1294.6875521662134 35.09014288451701 0.3394065880340687
1.225912956478135 13.077350151406977 1148.405521819989 36.68927511470463 0.344620305868593
1.2529110594526642 13.080505816945974 1019.5868158651433 38.362911914231866 0.3499629124796332
1.2799556051369312 13.08294466134124 906.1811315845719 40.11335578757979 0.35543133818952055
1.3070084372384851 13.084550800670103 806.2975317209713 41.945962909418355 0.36103946516503943
1.334042037593963 13.08524321998955 718.119518927649 43.864340447424496 0.36678991045944864
1.3610517690709587 13.085029759605472 640.2368428975723 45.873056618385924 0.3726897516256356
1.3879923215728331 13.08377964141617 571.4314283171975 47.977508283858946 0.3787492900138918
1.4148364149658168 13.08145695120874 510.50682272367715 50.18252664917874 0.3849745463948244
1.4415697339986813 13.078010271680656 456.5890825363989 52.49319582823359 0.39137177786695343
1.4681650050612234 13.073406124315891 408.76317723061595 54.916004313450465 0.3979530395005847
1.4945761369061004 13.067535200950665 366.2953946027139 57.45714613997428 0.40472739930790386
1.5207890101246189 13.060378777893112 328.64038909843697 60.12325382520115 0.4117046359625055
1.5467733370647587 13.051882908643684 295.10253697264267 62.92143784524421 0.41889529732304426
1.5724914374925236 13.0419927917664 265.29336030717155 65.8593298916076 0.42631076373641813
1.597904159865602 13.030652191366302 238.75810866467359 68.94513029190928 0.4339633166799225
1.6230135534330175 13.017837383580787 215.08738703326233 72.1876600262191 0.44186621337034265
1.6477545466752779 13.0034769719009 193.95767142393612 75.59641782468381 0.4500337680438529
1.672103148506835 12.987531035629805 175.1213195084594 79.1812297303107 0.4584797154592054
1.6960406035336266 12.969969916135135 158.2566720337587 82.95253014849065 0.46721832688216264
1.719520168695033 12.950746315014564 143.184522581041 86.92295160844687 0.4762706807613245
1.7425018283043745 12.929797988164921 129.69404909978573 91.1039553023308 0.485650631923215
1.7649831423416074 12.907132469850676 117.59520214046213 95.50989058699493 0.4953811110996205
1.7868936372741553 12.88265534063133 106.7541488492863 100.15418124331192 0.5054786506861261
1.808245087938887 12.856413121790608 97.02101573907258 105.05349253332716 0.5159694724733223
1.828948838479896 12.828260390050078 88.26993928910133 110.22437998313657 0.5268761346829125
1.8490297644276608 12.79828144792257 80.41335454175088 115.68464658863051 0.5382226064463523
1.8684011946456225 12.766329551002435 73.33481954635306 121.45421386660445 0.5500371185625841
1.8870767949107619 12.732495501824006 66.96091092607153 127.55452409701053 0.5623495198719366
1.9049981576970063 12.696661770122201 61.215423938157436 134.0083148476306 0.5751901301934165
1.9221363030583036 12.658827550307667 56.03676955976059 140.84117736936562 0.5885948597109799
1.9384449287790226 12.618922185317121 51.356682768958066 148.08080726752277 0.6026019820177237
1.9539380406246454 12.577060585295595 47.133295042987896 155.7555569569697 0.6172467032936386
1.968547350295623 12.53311421413506 43.31120701515672 163.8992680178645 0.6325772349281636
1.9822594428612004 12.487095846049984 39.853667195878074 172.54594191225172 0.6486358338556109
1.9950416464676044 12.438993935652567 36.720735035853224 181.7345280010822 0.6654744416126089
2.0068739423801185 12.388818173635329 33.88068169676193 191.5072598319784 0.683148167795715
2.017713970619137 12.336525781745227 31.306522669861412 201.91021923704588 0.7017163082228347
2.027545298203942 12.282125686160082 28.972950121139558 212.9931876766781 0.7212408833829514
2.0363471134624955 12.225635404381029 26.85242126057114 224.8121442616532 0.7417937217986764
2.044084120779885 12.1670211088943 24.92681182407339 237.42787245124177 0.7634505794793106
2.050736307158271 12.106292383871759 23.173391486787136 250.907532097358 0.7862948633152541
2.056301018089778 12.043523498570218 21.580234376512553 265.3244726259598 0.8104153774110031
2.0607397796303397 11.978653268950689 20.12964369807826 280.7600453038248 0.8359103549916883
2.064036517019774 11.911735395439731 18.810028191344035 297.3045593342372 0.8628884364435174
2.066185625549252 11.842809309784027 17.60899963074898 315.0583697533844 0.891469789540213
2.0671727007118097 11.771902191749382 16.51390010885325 334.1307280788673 0.9217794779645665
