M[M_sun], R[km], Lambda[1], P_c[MeV/fm^3], rho_c[fm^-3]
0.24162668629717493 15.618656898711224 2160425.4255784233 3.5677272577965504 0.1711233750220791
0.25364173143659635 15.277362157478624 1723229.081737626 3.784798366802423 0.17388790831673587
0.26603814129279163 14.981265405068399 1382946.180020107 4.011356837375704 0.1766661215881841
0.278811428088333 14.723583358123026 1116494.764674525 4.247659421843482 0.1794567163261522
0.2919642184253949 14.498508154774624 905972.8544856473 4.494330955341299 0.18226625242207004
0.3054985658186564 14.301305527375067 738690.0536764672 4.7515250646895595 0.18509039740905117
0.3194127822524994 14.128243228716206 605209.3918727605 5.0199272746907555 0.1879358412952012
0.3337098494660465 13.97602483309204 497765.2279997149 5.29975716040025 0.19079911955710593
0.34838859287044255 13.84213063559554 411071.1333020444 5.591748495837888 0.19368663338465417
0.3634499423831044 13.724074691879892 340705.9269195685 5.896062034088774 0.19659332535546695
0.3789013960448677 13.620088120373486 283358.58746751817 6.213564509897054 0.1995269322255
0.3947303142907458 13.528568343918664 236451.80249190718 6.544517917788799 0.2024837140219137
0.41095377854742965 13.447987473645446 197913.01178985692 6.889615467773754 0.2054672269563532
0.427559900960683 13.377160164426899 166119.55394054344 7.249566205400442 0.20848061802896997
0.44455211414683704 13.315009401700935 139840.25596009905 7.624635715123126 0.21151954014430124
0.4619320891635298 13.260635255818576 118012.30659838671 8.015759723346783 0.21458995070010975
0.479693903338463 13.213235219518833 99842.4568801317 8.42364909580236 0.21769359459384274
0.49784810883006386 13.172053664639112 84668.85515475833 8.848753718919374 0.220828071068292
0.5163829405586762 13.136475704897904 71959.66938679249 9.291928771360036 0.2239965329466703
0.5352995820674512 13.1058953081088 61295.58838146495 9.754067210561336 0.22720202206470433
0.5546039304390029 13.079865985001858 52315.97730455712 10.235978272216785 0.23044588879319994
0.5742836951557241 13.057879692808255 44746.19289185377 10.738145663960577 0.23372499089734924
0.5943373215949781 13.03955875525653 38341.45568810454 11.261788880006378 0.2370452014975113
0.614771496586197 13.024527735694923 32914.331139477275 11.807856970573626 0.24040828771926043
0.6355691083526588 13.012453079485848 28304.66978684428 12.377328490312742 0.2438158817042381
0.6567384619357617 13.003040445199412 24379.662082428764 12.970909659231674 0.24726613028141597
0.678267251483962 12.995997288566391 21035.873817179458 13.589892585935909 0.25076343316660776
0.7001512451880689 12.991082095467098 18179.70329703995 14.235490817489701 0.2543106139165113
0.7223825172967305 12.987996827307002 15735.019171349817 14.908893453602825 0.25790965602769683
0.7449673547297597 12.986653718130755 13640.31762177373 15.61115183223336 0.26156067618604184
0.7678821712814667 12.98676331144365 11840.854480935117 16.343488362343578 0.2652651352901617
0.7911259339906237 12.988130759247843 10293.535490309367 17.1075391275857 0.26902793417541526
0.8146965808984881 12.990646521096862 8960.536241679487 17.904758398051495 0.27285150389249596
0.8385759904184078 12.99411981786352 7810.752131063471 18.736536613649836 0.27673715413133126
0.8627525022474369 12.998379468595308 6817.8401780456725 19.604167207130722 0.28068491354912584
0.8872241582175178 13.003338176060991 5958.800053170709 20.509759252043583 0.28470136114430694
0.9119818131862565 13.008826334899618 5213.934752484836 21.455105836911365 0.28878950820035376
0.9369979456046567 13.014714083867062 4567.486656844448 22.44172291966992 0.29294953639558197
0.9622736009565179 13.020905716180573 4006.6863777763783 23.47157096422422 0.2971847290846454
0.9877945910098365 13.027303395981669 3518.4547205921767 24.54710185241739 0.3015014357830654
1.0135340536082178 13.03375899732217 3093.7815114988334 25.67029521320159 0.30590157001042795
1.0394923141981112 13.04022341138411 2722.9917082831694 26.843035818121134 0.31038583056698116
1.0656430302808235 13.046554219355517 2399.4968458781145 28.068455129763827 0.31496322309988134
1.0919685122465033 13.052679148522458 2116.8637393031922 29.348651041332225 0.3196344936487644
1.1184631731817116 13.058511884550255 1869.6569568086654 30.686290901695706 0.3244037275557028
1.1450897417195314 13.063964866395041 1652.880392706268 32.084864181869456 0.32927959281129454
1.1718496570412655 13.06899128106566 1462.926296352557 33.54621235914952 0.3342591447983143
1.198701990289823 13.073441068549656 1296.1924676071478 35.07492260695127 0.33935625870238534
1.225645449592607 13.077308887061827 1149.7313390325442 36.673074437266415 0.3445680449909883
1.2526374434319019 13.080476872363024 1020.8257444925611 38.34561254071247 0.3499082956074967
1.2796765002107116 13.082927927065167 907.2647016429153 40.094866783004356 0.3553741393861415
1.3067169413158006 13.08451455022851 807.2388709320916 41.926275951038804 0.3609799485072969
1.333751590532621 13.085230173890277 719.0125024858426 43.84323480765829 0.36672717358303036
1.3607569572292362 13.085037388582947 641.0281925182688 45.85057652130042 0.3726243825570013
1.3876862284948226 13.08378373853013 572.1868060001611 47.953557708641 0.3786811189454076
1.4145401238388366 13.081501183673165 511.16314975731575 50.15684296516113 0.3849025778818066
1.4412612643152427 13.078057805962011 457.1572871977475 52.46581980824302 0.39129661357296763
1.4678543202686543 13.073464544453449 409.28232188267714 54.88681473729592 0.3978744664112075
1.4942610193572368 13.06760935001859 366.77876773045915 57.426011968360726 0.4046451879414238
1.5204712640511164 13.060474281161687 329.0620481838244 60.09003332058676 0.4116185390175827
1.5464536500523753 13.051997110880125 295.4917881616892 62.88597760497526 0.4188050481923457
1.5721679298965738 13.042129689358246 265.6435237491816 65.82146378355897 0.4262160748718415
1.5975916376472001 13.030812565300863 239.08862073240095 68.90467828167695 0.4338638777933479
1.6226721647400013 13.017977153968664 215.38426644342266 72.14442688355707 0.4417616894519183
1.6474307524866063 13.003676264487604 194.23223445971664 75.55019169535511 0.44992379717766134
1.671780761096365 12.987755845437759 175.3500484516455 79.1320219388622 0.45836491424472975
1.6957181695147878 12.970223036540443 158.47349991888544 82.8998605875893 0.46709729238461
1.7191808734708562 12.950986340682093 143.39323192016735 86.86654914477381 0.47614295693164516
1.7421854634075569 12.93010514529348 129.87255016595842 91.04379645894709 0.4855168006403605
1.7646669779583644 12.90746867976438 117.7626445946355 95.44539582222959 0.49523959518474414
1.786596301072494 12.883051187560087 106.89766638428853 100.08529439942852 0.5053299958655968
1.807936998808183 12.856811309641753 97.15731404140348 104.97985639166373 0.5158131059721526
1.8286498871303674 12.828696456722337 88.39466440325556 110.14554609289601 0.5267112180585273
1.848731617657726 12.798748649420865 80.52047952879865 115.59998536919437 0.5380477255813381
1.8681221794076388 12.766862305892525 73.43555983147031 121.36351246922747 0.5498524837558786
1.8867969336634054 12.73303349357574 67.05795188054113 127.45742344414239 0.5621548746843249
1.904723439501523 12.697238125023473 61.30051732260738 133.9043148705441 0.5749848019469415
1.9218704099915525 12.659446873235822 56.11442720681154 140.72947354937017 0.5883772181908129
1.938189114135813 12.61957817407774 51.42944529165847 147.9607306588109 0.6023710086866827
1.9536932753974716 12.577767648028376 47.19959291405063 155.62676833964161 0.6170026359718794
1.968315136812386 12.5338569595975 43.36929181294444 163.7609371177169 0.6323187561110073
1.9820393504212848 12.487885498091053 39.90836275703036 172.39689510070883 0.6483606352145381
1.9948351596573375 12.43983106951821 36.7712009897404 181.5741751556015 0.6651823566811478
2.0066752841992805 12.389686063430824 33.92918842848069 191.33455962896045 0.6828377025695221
2.0175350669717753 12.33745151282068 31.350221163540954 201.72402297423255 0.7013858282230878
2.027380643144928 12.283095607080563 29.011641933965812 212.79269637248228 0.7208901358412745
2.0361992911470956 12.226655744089387 26.888171575946206 224.5955021643468 0.7414192507759655
2.043954522862827 12.168089246276176 24.95922999517156 237.1940241209774 0.7630518465945363
2.050624866099309 12.107413625821113 23.203361882450302 250.6546081334667 0.7858690054737958
2.0562027993057876 12.044675364652743 21.607412375467117 265.05053925584104 0.8099596976046349
2.06066916157722 11.979875629533337 20.156051076799727 280.46367873276324 0.8354242448364321
2.0639902570804893 11.913024502475489 18.83307959253815 296.98302330833855 0.862367490468378
2.0650161406863963 11.848407923449273 17.763489417946865 315.60121331349626 1.3789927982128183
