M[M_sun], R[km], Lambda[1], P_c[MeV/fm^3], rho_c[fm^-3]
0.24162668629717493 15.618656898711224 2160425.4255784233 3.5677272577965504 0.1711233750220791
0.25364337336733556 15.27728895278175 1723267.4180938085 3.7848092354192944 0.173888043788802
0.266038122365645 14.981291927268282 1383177.0850427533 4.011379685267465 0.17666639769147213
0.27881296899425223 14.723590432231354 1116463.705669272 4.247695021876569 0.1794571292328879
0.29196660225628 14.49847090683939 905954.1846341459 4.494380241570395 0.18226680123566974
0.30550121521167134 14.301281134524947 738698.0910168437 4.751589710473598 0.1850910957068971
0.3194172437420483 14.128183212185867 605139.4788483095 5.020007756102069 0.18793667632090652
0.33371473521222217 13.976011758248957 497706.16498398426 5.299855596129388 0.19080011064156394
0.3483943549549215 13.842082659209495 411037.96157460695 5.591865131525781 0.1936877618670199
0.36345639574968786 13.724032534993473 340684.8541789205 5.89619948991915 0.1965946163697146
0.3789080859603575 13.620087693083898 279415.5754359218 6.213724449085836 0.19952839067832237
0.3947406178071947 13.528493783771413 236426.80819502953 6.544700174150125 0.20248531216398627
0.41096351239217566 13.447920127619872 197888.75375758347 6.889823559486146 0.20546899915269823
0.42757063825211544 13.377091346125077 166105.13601177535 7.2498020849312015 0.2084825693998772
0.4445636689047018 13.314975584876246 139817.27000979066 7.624898730407966 0.21152163391508685
0.4619447418958895 13.260621661432074 118000.07099919608 8.01605446163815 0.21459223073907915
0.47970780454428896 13.21320647991664 99826.32355759772 8.42397785513298 0.2176960664044119
0.4978637958688936 13.17201521149447 84653.40355174766 8.84911528700631 0.22083068897572758
0.5163999898346832 13.136436144642717 71946.45810654043 9.292328999019725 0.22399935057434578
0.5353165022109924 13.105881975957754 61285.46188669019 9.754508811088108 0.2272050454956634
0.554623206157344 13.079845456799283 52308.72372557942 10.236464123760342 0.23044912437494872
0.5743032355018678 13.057865064060133 44737.26498773336 10.738673655449286 0.23372838076625804
0.5943584770262224 13.039545047635375 38335.18479398991 11.262366950968348 0.23704881329534264
0.614794006201856 13.024519434860323 32908.07733043935 11.808488535518661 0.2404121286878691
0.6355939976922641 13.012443416734186 28298.17336623471 12.378017176753726 0.24381995946775772
0.6567651022909313 13.003026620853728 24376.243922640664 12.97165230464162 0.24727037493804313
0.6782951660525942 12.99598285869335 21032.732804769515 13.590699735043026 0.250767927156588
0.7001819481639006 12.991070354571885 18040.6882431481 14.236366797502843 0.2543153661508348
0.7224133348946625 12.98799617545653 15733.458644688908 14.909842869737458 0.2579146759486857
0.7449999500323656 12.98664693703863 13541.022756744476 15.612170322987417 0.261565882035185
0.7679183720961972 12.986758442651603 11838.528257283677 16.34458971878437 0.2652706252757893
0.7911616362447993 12.988129201801122 10291.640903412263 17.108728876417565 0.2690337195211019
0.8147335292020814 12.990662127395707 8958.229671976216 17.90604243236015 0.2728575965434777
0.838614321900947 12.994121070269227 7809.594991432402 18.73790923854555 0.2767434606325119
0.8627926649707729 12.998398608951797 6816.278430144958 19.605646268059747 0.2806915491627195
0.887266187527428 13.003333705647284 5956.724134025111 20.511351866657304 0.28470834022848307
0.9120244785564988 13.008843898790767 5212.648472340065 21.45681961021742 0.28879684608136386
0.9370427924851202 13.014723080242941 4566.381388400942 22.443550713236792 0.2929571280094709
0.9623184516519607 13.02093279771307 4005.606454973755 23.473535712736744 0.2971927085121384
0.9878433771310038 13.02731472778391 3517.6493405577717 24.5492128023604 0.30150982158507394
1.0135833971745671 13.033779837864554 3093.096397883047 25.672544194074167 0.3059102492607445
1.0395448322074068 13.040234843288207 2722.259877876114 26.845450320554058 0.3103949521223944
1.065694094100383 13.046554479097853 2399.013664004002 28.07104645417638 0.31497280953567763
1.0920235356603722 13.052681704876079 2116.336043518349 29.351410004513728 0.31964442422220574
1.1185203956389542 13.0585242867654 1869.1594278802377 30.689250438236943 0.3244141675126252
1.1451492301373658 13.06398213645316 1652.4930147145683 32.08801463348879 0.32929041745275156
1.1719104523796506 13.068992655400596 1462.6192921804964 33.54959067482593 0.33427053007046276
1.1987652059257967 13.073453246830429 1295.9238884968552 35.07854472887597 0.33936823607763084
1.2257089298065742 13.07732414020087 1149.4385653179795 36.67692985556688 0.3445804819736197
1.2527022207386036 13.080487013990327 1020.5117811816809 38.34974560704949 0.34992138825559416
1.279741497464903 13.082934410518781 907.0094985870172 40.09926672465137 0.35538775133567185
1.3067862282966503 13.084519411192353 807.0572824548357 41.930960952671626 0.3609941119770076
1.3338209319781174 13.085234207234649 718.7928164823353 43.84825738715367 0.3667421032867775
1.3608273778945457 13.085037555956925 640.8445255567759 45.855926156146424 0.3726399385684405
1.3877570070370058 13.083779632281631 572.0070438433796 47.95925724489019 0.3786973416654232
1.4146120098576893 13.081494807692067 511.0067131121774 50.162954889011495 0.38491970416598326
1.4413345401074573 13.078044275662698 457.04173975086263 52.47233441865262 0.39131450025233877
1.4679272845946232 13.073452466279495 409.1651205801782 54.8937608751962 0.3978931641651994
1.4943360299246418 13.067591504150153 366.66797795047086 57.43342081058848 0.40466475136681823
1.5205469539888283 13.060450742830875 328.96048791018416 60.09793858899964 0.4116390269501727
1.5465294674494166 13.051970641806712 295.39458819814644 62.894415796430174 0.4188265240604644
1.5722455340312909 13.042096175214208 265.5599156173185 65.83047442307759 0.4262386070851873
1.597668920860752 13.03077532498319 239.00590389023063 68.91430420140321 0.4338875401709242
1.622755497253641 13.017961351996844 215.3134225609789 72.15471453043205 0.44178656169336383
1.6475077110128773 13.003630751761397 194.17200209377006 75.56119147080007 0.44994996538276877
1.6718561610873413 12.987702179848142 175.29560632670442 79.14373115013873 0.45839223170067583
1.6957944597367458 12.97016240533128 158.42437615898805 82.91239345270411 0.4671260928721422
1.719259472104952 12.950923349636716 143.33916595434525 86.87997016603555 0.47617334894153485
1.7422618390863405 12.930029688619587 129.82684309527437 91.05811122326415 0.48554864572189066
1.7647421172488205 12.907388519949599 117.72346892868241 95.4607421985854 0.4952732685611481
1.786670033565528 12.882963709454248 106.86329278288528 100.10168574941342 0.5053653676877456
1.8080096173014373 12.856717579168196 97.12176385204002 104.99737769532855 0.5158503124972109
1.828721847805437 12.828594592629088 88.36343299449732 110.16434885325916 0.5267506255590854
1.8488026208531991 12.798639292533402 80.49472946993731 115.62012970988938 0.5380893368379365
1.8681913780495008 12.766744337019079 73.41079369684631 121.3850938470676 0.5498964155324684
1.8868638614927509 12.732904305289805 67.03408212839408 127.48056299837229 0.5622013155850306
1.9047886105771503 12.697101021090086 61.279769799382144 133.92906012060536 0.5750336567538944
1.9219339104533393 12.659299799941449 56.096060709634656 140.75605158845474 0.588429002318067
1.9382511295445473 12.61942123526629 51.411656899843415 147.98930061092807 0.6024259644110238
1.953750658567746 12.57759573996058 47.17976200572248 155.6574109009564 0.6170607066929347
1.9683704432502014 12.533680710993483 43.3553117479978 163.7938877469506 0.6323803837063254
1.9820909636719688 12.487695920749287 39.895239421161655 172.4323570345413 0.6484261117980321
1.9948852209688372 12.439632952810236 36.75974323487061 181.61232672927906 0.6652518503016029
2.0067177479412286 12.389475789359896 33.91641538427297 191.3756485316233 0.6829115685826265
2.017579700699376 12.337230190415571 31.341158218596224 201.76832243193817 0.7014644553907341
2.027419168822745 12.282861504961579 29.00298113411705 212.84039643548354 0.7209735842476911
2.0362351248348087 12.226411549624904 26.880264942631108 224.64704421468278 0.7415083424370134
2.0439853199573528 12.167834439680503 24.9510156485421 237.24965920144717 0.7631467095174628
2.0506514443281385 12.107147559052816 23.196156248602776 250.7148588382675 0.7859705745430868
2.0562244137367536 12.044395866931412 21.60098450599985 265.1157336179226 0.8100681848108513
2.060684347443491 11.979585879141462 20.149293923215826 280.53418526389106 0.8355398919577331
2.063997665683824 11.912706899205194 18.827951970920175 297.0595168218195 0.8624914236664102
2.0661654514204835 11.843824924549988 17.624543548846884 314.7921768538299 0.8910436670641401
2.067166307265314 11.772950021972903 16.528946040334983 333.8416289365163 0.9213228689622996
