M[M_sun], R[km], Lambda[1], P_c[MeV/fm^3], rho_c[fm^-3]
0.24162668629717493 15.618656898711224 2160425.4255784233 3.5677272577965504 0.1711233750220791
0.2536453470634824 15.277235790061336 1723073.74005721 3.784844051072463 0.1738884777491231
0.26604226069773296 14.981213373481314 1382930.3253662274 4.011452874993095 0.17666728214611274
0.278819387969741 14.723419859098826 1116320.7617661606 4.247809062079168 0.17945845192738313
0.29197479221682954 14.498339894296242 905778.734990485 4.494538125043327 0.1822685593047837
0.3055118951772878 14.301138231670365 738565.3013009977 4.751796798427175 0.18509333265202904
0.31943000607645977 14.128047524127314 605024.65581828 5.020265574300557 0.18793935128422454
0.33373213689174897 13.975800341918248 497615.5738562746 5.3001709326048205 0.1908032855566337
0.34841303287450354 13.841922183134566 410943.4758961825 5.59223877390467 0.1936913769598211
0.36347832793450774 13.723858503827124 340611.3229227075 5.896639833044768 0.19659875216553693
0.37893273221444557 13.619908086154716 283250.49129718187 6.214236822161864 0.1995330629038384
0.39476757991302464 13.528358948535718 236358.61671775038 6.54528404551008 0.2024904319270415
0.41099426082324236 13.447776088344908 197820.99022884463 6.8904902013023035 0.20547467655415
0.42760405503408316 13.3769828564576 166037.64383075712 7.250557753387753 0.20848882085135703
0.4446024605972149 13.31483550625966 139768.99833870094 7.625741337199857 0.21152834160694467
0.4619836071400841 13.260489385624016 116628.27043288416 8.01699870457827 0.21459953522160863
0.47975381682095014 13.213073705882902 99797.38512557503 8.425031097874568 0.21770398531742227
0.49791291562921713 13.171912789942123 84619.90591769156 8.850273646314431 0.22083907599204722
0.5164537819848807 13.136335236200559 71918.27665710164 9.293611221718734 0.22400837750208408
0.5353746041477999 13.105790038954487 61258.21006263684 9.755923591682786 0.22721473183250154
0.5546841197373361 13.079784301873929 52287.51615394045 10.238017545419043 0.2304594500961591
0.5743685584072218 13.057801833198315 44714.28323235821 10.740365234398897 0.23373924122710013
0.5944284176108345 13.039490807925853 38314.980860135576 11.264218987793942 0.23706038485494396
0.6148687857314952 13.024472521533527 32890.483056334975 11.810511972065658 0.24042443455810417
0.6356762497182974 13.012404712826632 28282.041646131962 12.380223637539642 0.24383302408579707
0.656849188105254 13.00300807660915 24361.359749383373 12.974031657190292 0.24728397434151192
0.6783837609656074 12.995971519340035 21019.51239164002 13.59328576861779 0.25078232549869245
0.7002753608360367 12.991044518782825 18165.33015273264 14.239173379154426 0.2543305919932699
0.7225115945415851 12.988010261255141 15722.60434364549 14.912884757549124 0.2579307595561943
0.7451030769667043 12.986655445403274 13628.15275611051 15.615433542136069 0.2615825614468941
0.7680271183303192 12.986763560256765 11831.519558152142 16.348118462736014 0.26528821517934875
0.7912765446100485 12.988141590671933 10285.799972869892 17.112540856723292 0.2690522558904838
0.8148520823997789 12.99068367402336 8952.255773062854 17.910156534888234 0.272877117665801
0.8387390333762939 12.994138216867638 7804.262314457608 18.74230721505431 0.27676366705899547
0.8629213686623937 12.998426581050609 6810.903936114336 19.610385306551034 0.2807128102396747
0.8874061680876417 13.003373810044467 5952.694392909383 20.51645477798739 0.28473070197715045
0.9121661665870114 13.008863681087933 5208.593450427688 21.462310767359345 0.28882035762607794
0.9371898123150734 13.01476280062063 4563.032750352686 22.449407241132064 0.29298145269214654
0.9624770382519428 13.020980550469405 4002.564376056991 23.479831111520973 0.2972182759971464
0.9879999826809407 13.027353574564655 3514.7526586140666 24.555976706472432 0.301536691365135
1.013745677297908 13.033811758959773 3090.5303166567523 25.679750420168094 0.30593805947508174
1.0397129347471268 13.040270019283914 2719.993260351589 26.853186972251898 0.3104241797993735
1.0658687711243728 13.046600302900957 2396.9808003654434 28.07934974963125 0.3150035270361148
1.092203386171375 13.0527287731971 2114.6560506281767 29.36025051389287 0.31967624462787025
1.1187043571088173 13.058560871636782 1867.382177242959 30.698733715714102 0.32444762038842695
1.1453381130612468 13.064016963493781 1651.0335260855356 32.098109725960846 0.32932510319615893
1.1721046704861284 13.069024445480727 1454.3975405618507 33.560416005026944 0.3343070125493784
1.1989632230178828 13.073485373896585 1294.6833695384248 35.09015139438317 0.33940661617388906
1.2259133878438726 13.077348956645432 1148.3913802340219 36.68928417278512 0.3446203350885585
1.2529112535546725 13.080511483048044 1019.5775773000038 38.36292155729563 0.3499629428447165
1.2799557720801922 13.08294929649965 906.1659428463867 40.11336612525821 0.355431370170844
1.3070083284603267 13.084548776584416 806.2876030489543 41.94597391697888 0.36103949844256256
1.3340423729257544 13.085241861405802 718.1403048543614 43.86435224831255 0.3667899455377909
1.3610519369430865 13.08502870915112 640.2404703975698 45.87306918786915 0.3726897881759854
1.387992503051082 13.083784982722493 571.4114990439225 47.97752167563942 0.37874932813122203
1.4148362890330783 13.081454843614257 510.5142438421391 50.18254101014201 0.3849745866358261
1.4415698247504833 13.078008869255065 456.5981721420397 52.493211135576644 0.39137181989518227
1.4681646758674645 13.073409288312705 408.75579476815716 54.916020634970856 0.39795308343518226
1.4945759808691415 13.06753525504021 366.3008586004507 57.45716354896228 0.4047274452772237
1.5207892190505568 13.060379566060917 328.641799960528 60.123272400931334 0.4117046841048693
1.5467735391295934 13.051882842099898 295.10036647334846 62.921457673517 0.4188953477875749
1.5724915806968047 13.041992925463981 265.2929535693103 65.85935106534367 0.4263108166839517
1.5979043235429056 13.030650967435214 238.7485791739367 68.945152911807 0.43396337228401805
1.623013212904659 13.017838930068935 215.08525077265793 72.18768420147715 0.4418662718183884
1.6477546365576015 13.003476285450839 193.9556538331355 75.59644367380129 0.45003382953829085
1.6721034613028993 12.987532754416609 175.1199680133791 79.18125724694873 0.45847977965520714
1.696040730673096 12.969968737367964 158.25248905590246 82.9525596012012 0.4672183945644057
1.7195203484004444 12.950746159645655 143.18441106604084 86.92298314889186 0.4762707521849142
1.7425020312765387 12.92979858458184 129.6930576117579 91.103988943637 0.4856507067627384
1.7649822134849058 12.907133208046742 117.5925168897728 95.50992665334748 0.49538119023725125
1.786893911584748 12.882654519994588 106.75205535409535 100.15421976611816 0.5054787338166706
1.8082454588440098 12.85641329997513 97.02579667366079 105.053533712408 0.5159695599171867
1.828948620267239 12.82826090320582 88.2706627131111 110.22442403645209 0.5268762267866767
1.849029951748851 12.798281411715312 80.41336760004118 115.68469393417803 0.5382227042459158
1.868401692274622 12.766329887478134 73.3332462779129 121.45426459054622 0.5500372218179413
1.8870770181544096 12.73249596542557 66.95916149584869 127.55457829130229 0.5623496283375208
1.904998275629393 12.696661986172716 61.21671971903043 134.00837300984162 0.5751902450236802
1.9221361315548802 12.65882773353615 56.0366720096643 140.84123984066463 0.588594981428827
1.9384466970859011 12.618920572864388 51.357164592024866 148.08087442214796 0.6026021111929865
1.9539381075511995 12.577059510426169 47.13343297572263 155.75562898468036 0.6172468397933604
1.9685481786046397 12.533113435767685 43.31158801229882 163.8993453552931 0.6325773793951229
1.9822599476122695 12.487095294372697 39.85289902072489 172.54602527175825 0.6486359877698253
1.9950417700996645 12.438993856198197 36.720571056224536 181.7346176849413 0.6654746049730018
2.006874053296335 12.388817543774602 33.88088377453611 191.50735642279443 0.6831483414381834
2.017714063964943 12.33652526881065 31.306496520889855 201.91032337751255 0.7017164930618904
2.027545080832084 12.282125974754782 28.972240493286336 212.99329981379867 0.721241079560135
2.036347161704768 12.22563435437665 26.852165333689538 224.81226543377477 0.7417939312475733
2.0440840588713907 12.167020562057791 24.925778504326956 237.4280032488793 0.7634508025012978
2.0507360120605167 12.106292511439818 23.17270955095836 250.90767346585167 0.7862951011845831
2.05630109119847 12.043523548828798 21.58008120418098 265.3246256140679 0.810415631527912
2.060739816618798 11.978652502864879 20.130219791437234 280.76021107676155 0.8359106268978879
2.0640366494652103 11.91173405473567 18.80995603494828 297.30473918854017 0.8628887278397147
2.066185716359208 11.842808582523586 17.60936655242735 315.0585651338912 0.891470102305976
2.0671727673753617 11.771901747087002 16.513924280181804 334.13094027470356 0.9217798131109397
