M[M_sun], R[km], Lambda[1], P_c[MeV/fm^3], rho_c[fm^-3]
0.24162668629717493 15.618656898711224 2160425.4255784233 3.5677272577965504 0.1711233750220791
0.25364220430363604 15.277337430876814 1723179.1515845049 3.784805846667577 0.17388800154964662
0.26603834906815205 14.981302647572152 1382966.8570034993 4.011372561459358 0.17666631160445534
0.27881194124064224 14.723630222403338 1116463.3384726834 4.2476839220276 0.17945700049136698
0.291965569227179 14.498486008339867 905941.2510360337 4.494364874438016 0.18226663011908417
0.3055000907262912 14.301283289001756 738696.6786353113 4.751569554302833 0.18509087798178422
0.3194160916783584 14.128196422152511 605156.1388343001 5.01998266244519 0.18793641596453114
0.3337125045793693 13.976010658059852 497716.22878998844 5.29982490437593 0.19079980162653346
0.3483929568943219 13.842084868115203 411049.06505105953 5.591828765074679 0.19368741001160142
0.36345308446958746 13.724078514776334 340678.5002295478 5.8961566317923 0.19659421383711748
0.37890584314299003 13.620068794772827 283335.6080973815 6.213674580683046 0.1995279359385344
0.39473640734509274 13.528538369057129 236440.25790744653 6.544643347276031 0.2024848138690698
0.4109604200571384 13.447932744631792 197893.08345401482 6.889758677162579 0.2054684465876039
0.4275670803322098 13.377111322604517 166104.01609051073 7.249728538364945 0.20848196096798294
0.4445604773096287 13.31498133733696 139829.70671371586 7.624816722900297 0.21152098108259515
0.4619409815252652 13.260614731507042 116683.86912852238 8.015962562864953 0.21459151982777153
0.4797026873285187 13.213209789028888 99826.93713664252 8.423875348548254 0.21769529569819632
0.49785849407453237 13.172062836862764 84661.65840108288 8.849002550589121 0.22082987271589855
0.5163949325026886 13.136451164735313 71952.0928052553 9.292204208453875 0.22399847204098242
0.5353119181788448 13.105878342965985 61288.44261311206 9.754371120342043 0.22720410279193187
0.5546167392585925 13.079858591342658 52312.41094906332 10.236312635397688 0.23044811552154926
0.574296925241163 13.057893273641822 44740.319298709685 10.738509027697242 0.23372732380509464
0.5943524068047452 13.039547546735303 38003.840687482836 11.262186708224455 0.23704768713541707
0.6147864596344138 13.024539934852056 32909.07956708812 11.808291613099861 0.240410931071005
0.6355869853483449 13.012458296503409 28301.756243034324 12.377802443558519 0.24381868801657508
0.6567569024556481 13.003031191686302 24377.151072856006 12.971420746751933 0.24726905144810046
0.6782866067005942 12.995985361847886 21034.00594627767 13.59044806451579 0.2507665259225189
0.7001727218449908 12.991072358733545 18178.022761630436 14.236093665057943 0.254313884393991
0.7224046620020984 12.98799753098078 15734.387731747986 14.909546839406582 0.25791311072473694
0.7449902129445826 12.986653231197431 13638.27816495533 15.611852754709918 0.2615642588368018
0.7679077831175601 12.986758647858812 11757.702272347282 16.34424631235164 0.2652689134808515
0.7911503195535815 12.988134641214344 10293.27711009755 17.108357908521885 0.26903191562984546
0.8147224256462717 12.99065912767082 8959.178671647831 17.905642065448113 0.27285569683110766
0.8386022104223085 12.99412324440095 7809.607293565927 18.737481248330887 0.2767414942389236
0.8627808118380794 12.998398321246203 6816.782640979352 19.605185090096896 0.2806894801480499
0.887253069092656 13.003333201634428 5957.162170917705 20.510855281545677 0.2847061641155272
0.9120135576802837 13.008825390703777 5213.159817905384 21.456285246587356 0.2887945580910447
0.9370295274603504 13.014716558923906 4566.840808725778 22.44298079693022 0.29295476090159456
0.9623052116249797 13.020918781605294 4006.056327572086 23.47292309236825 0.29719022047879473
0.9878283633178087 13.027310609912607 3517.882354322217 24.548554594707696 0.3015072068385356
1.0135676329725551 13.033774218740472 3093.348771755871 25.671842946806265 0.3059075430124851
1.0395286172425173 13.040230611640473 2722.524885534787 26.8446974616277 0.31039210795693756
1.0656777093879641 13.046547375089524 2399.210187161126 28.0702384598996 0.31496982041350496
1.092005208071697 13.052686349292491 2116.5048089249008 29.350549738349777 0.31964132779222165
1.1185027734616926 13.05852109291942 1869.33301946951 30.688327630569248 0.32441091224878094
1.1451312703613006 13.063975481227194 1652.7450575213977 32.08703229592742 0.3292870422376471
1.171891491349395 13.068988921913377 1462.755030159701 33.54853728595234 0.3342669800413498
1.1987444341195619 13.073453885886122 1295.9406065371727 35.07741531756448 0.33936450142060787
1.2256886571827068 13.077318536676477 1149.5520219173386 36.6757276989881 0.3445766040025864
1.252681748714657 13.080484392819368 1020.5994681573903 38.34845687540566 0.34991730583626457
1.279721149117554 13.082927866058116 907.0898645342877 40.097894777089955 0.3553835069882549
1.3067631274513767 13.084518127408161 807.0885582802822 41.929500118805784 0.3609896956549158
1.3337989879351122 13.085227783667353 718.8505989494562 43.84669129069183 0.36673744803816744
1.3608052927172818 13.08503549693558 640.9008309828754 45.85425807823532 0.3726350880244663
1.3877350133985573 13.083782714489802 572.0713752205622 47.95748006158418 0.378692283228047
1.414589606794615 13.081496995053689 511.05679818951165 50.16104911555079 0.3849143639787258
1.4413116434569002 13.078049502968241 457.0572474298771 52.47030308005162 0.39130892295761727
1.467904092926634 13.073456186294274 409.2021618554019 54.891594978111435 0.39788733395977527
1.494311616023907 13.067596913045655 366.6888265273675 57.43111063326298 0.4046586512258831
1.52052346046642 13.060459366335875 328.9859428109008 60.09547361605209 0.4116326385270417
1.5465057188890057 13.051978945480348 295.42542318881215 62.89178464713666 0.4188198275763268
1.5722219319016608 13.042105803228488 265.5885643109958 65.82766477242485 0.426231581207856
1.5976446828773176 13.03078747297082 239.0361414763326 68.91130269309598 0.4338801618813805
1.6227258437079024 13.017947440335677 215.3341292916351 72.15150668094698 0.44177880613877657
1.6474840468560918 13.003644164513167 194.19428593273102 75.55776156345624 0.4499418057144808
1.6718324859568905 12.987718555642088 175.3124355348632 79.14008002470966 0.4583837136668214
1.6957707485756726 12.97018080491304 158.4402932891118 82.90848549240992 0.467117112390768
1.7192353301232806 12.950945016673032 143.3490647225097 86.87578525698225 0.4761638721815436
1.742237903184364 12.93005387545939 129.83990032839364 91.0536476233926 0.4855387158551685
1.7647190631059793 12.907414413316404 117.73534329855478 95.45595691569 0.4952627685819739
1.7866469966542862 12.882990081166499 106.87169110433364 100.09657461703672 0.5053543380858169
1.807986649745583 12.856746274812702 97.13378768871704 104.99191421383259 0.5158387107828023
1.8287008299307557 12.828625296040286 88.37336397793707 110.15849631195562 0.5267383767196185
1.8487805743568955 12.798673351211763 80.50152546127511 115.61384829339136 0.5380763615990017
1.8681695763681971 12.766780440048569 73.41793385753036 121.37836432191415 0.5498827166853518
1.883733227814496 12.733926388906795 67.81519188675298 127.84648307883174 0.8938406589645717
1.8914546888164414 12.69657024079856 64.13281728205662 135.5420579203493 1.2540648740674727
1.892729970678907 12.65174755053692 61.65334436446934 144.52082600689278 1.603157249921171
