M[M_sun], R[km], Lambda[1], P_c[MeV/fm^3], rho_c[fm^-3]
0.24162668629717493 15.618656898711224 2160425.4255784233 3.5677272577965504 0.1711233750220791
0.2536444240949898 15.277256035649103 1723153.3143380424 3.7848287327353325 0.17388828681344057
0.2660402233727885 14.981280693684804 1382938.1819588698 4.011420672552889 0.17666689299862742
0.27881685239339166 14.723466113562107 1116364.848038954 4.247758885831928 0.17945786995852914
0.2919712673886648 14.49838687465941 905858.9437886458 4.4944686580724875 0.18226778577394095
0.30550725425863784 14.301190915792805 738606.5870716379 4.751705681714654 0.18509234841763497
0.3194244533532671 14.128113431381527 605074.4594014249 5.020152136392882 0.1879381743221494
0.3337235364688828 13.975890615296306 497649.17832214356 5.30003218665187 0.19080188861510866
0.34840482252487215 13.84199540298629 410986.84845798794 5.592074373220501 0.1936897863379767
0.36346814492121754 13.723954644986408 340651.73537204764 5.896446083738524 0.19659693243105097
0.3789225450097949 13.61996295380081 283289.38822778803 6.214011379206854 0.1995310071355397
0.39475521562237886 13.528427747801425 236394.93017075272 6.545027142703442 0.202488179236486
0.4109806879082158 13.44784631338273 197852.7821408924 6.890196878630313 0.20547217849518726
0.4275903954832213 13.377013625014413 166064.4390411932 7.250225257888778 0.2084860702013053
0.44458532048193017 13.314894875750452 139791.93631819394 7.625370587607782 0.21152539020180056
0.46196750457992036 13.260548119387309 117975.71050319381 8.016583233453431 0.21459632121656402
0.4797333492351504 13.213126490396624 99804.6679464257 8.42456766489024 0.21770050094924756
0.49789144406653807 13.171990336097506 84637.7414071456 8.849763960014798 0.22083538564546568
0.5164300328487539 13.136380011353067 71932.28680115868 9.293047032897944 0.22400440557761264
0.5353488158260508 13.105850548697962 61271.71196539126 9.755301074340966 0.22721046974926182
0.5546571879442211 13.079806871482557 52300.74576680032 10.237335780725715 0.23045492927030362
0.5743404910555098 13.057823244527844 44724.988085358236 10.739620918794737 0.2337344624903613
0.5943990208840326 13.03950176628551 38321.8516880771 11.263404066251901 0.23705529321040222
0.6148356875659833 13.024489948301817 32897.72347012193 11.809621629580574 0.24041901979029123
0.6356409139354028 13.012424770414558 28288.533410256303 12.379252758674673 0.2438272754399955
0.6568123903077405 13.003007943422281 24367.951427967284 12.97298470043006 0.24727799036599524
0.6783452947224953 12.995972920975312 21027.9895808811 13.59214786513029 0.2507759899569366
0.7002340552377961 12.991047537250887 18170.423474571016 14.237938426601437 0.25432389231539804
0.7224694115871994 12.988003179810262 15728.140652033198 14.911546261460419 0.2579236824228234
0.7450582384682759 12.986652334857105 13632.258755059049 15.613997651877304 0.26157522212835493
0.7679792683290992 12.986750677838769 11834.558715024335 16.346565730824985 0.26528047520021086
0.7912257759456578 12.988144225090664 10287.619642199848 17.11086348890173 0.26904409941877194
0.8147996827827751 12.99067466872261 8954.93105760782 17.908346220088994 0.2728685278515223
0.8386839141770301 12.994134068288636 7806.492184732098 18.74037198328385 0.276754775670326
0.8628653963992913 12.998410841020398 6813.238064985513 19.60829999160994 0.2807034547466733
0.8873467238027724 13.003367254554334 5954.576208938083 20.514209341441326 0.28472086212604514
0.9121040411258367 13.00884968779277 5210.427899047584 21.459894483287403 0.2888100117974063
0.9371251122802248 13.014746131122898 4564.525113804689 22.446830175772327 0.2929707490298007
0.9624098444294191 13.020951132210124 4003.97446704378 23.477060919775596 0.29720702542536426
0.9879314890198014 13.027339327828916 3516.0896089798066 24.553000346840577 0.3015248677012619
1.0136749250640178 13.03379949983784 3091.600137192018 25.676579414902772 0.30592582195506174
1.0396399816699038 13.0402516576573 2720.9967047575497 26.849782549198466 0.3104113185021105
1.0657914837915037 13.046582929303062 2397.7785695035122 28.0756959697498 0.314990010115548
1.0921240052295258 13.052716300071177 2115.2921124651034 29.35636032830021 0.3196622423483228
1.1186233198834 13.058541920993594 1868.2898792246601 30.694560672070658 0.3244328997065682
1.145254397380452 13.063999704711602 1651.8193733632527 32.09366744587372 0.32930983995932656
1.1720194347755395 13.069013889766158 1461.833640570362 33.55565237246665 0.33429095861649916
1.1988767057864156 13.07347120448116 1295.1967538757149 35.08504392165532 0.339389727146217
1.2258224771990651 13.07733409214943 1148.8601328107227 36.68384768335371 0.34460279781520325
1.252818524392258 13.080503257066667 1019.970267823796 38.35713398476932 0.34994471833366575
1.279863562247355 13.082933223672347 906.5656305506056 40.107161676253675 0.35541217567839645
1.306907021001604 13.084523178792875 806.6132996407998 41.939367434472274 0.3610195260450674
1.3339443968368887 13.085238188732495 718.4584975208256 43.8572696492925 0.3667688923906528
1.360954609940728 13.085032748472484 640.5091434642812 45.865525314997974 0.3726678516184337
1.38788475752456 13.083770140973709 571.7013307147963 47.969484301050166 0.37872645116862
1.4147424305469152 13.081482505403363 510.72425199882656 50.17392198474387 0.3849504351768243
1.441465445712859 13.078025359932884 456.78037609361087 52.484024144074816 0.3913465958585865
1.468061427114851 13.073427078190349 408.9341121970897 54.9062249907876 0.3979267153227491
1.4944705310822317 13.067559268760196 366.46403866694226 57.44671526947952 0.4046998560628934
1.5206826109047875 13.060410973559561 328.78190095236897 60.11212391234974 0.41167579078074545
1.546666616509058 13.051922308182654 295.2423596021552 62.90955748626145 0.4188650608649027
1.5723826402351213 13.04203840538554 265.41335886098494 65.84664341673542 0.42627903964426733
1.5978071395633229 13.030707977204663 238.87225626442694 68.93157737232161 0.43393000097506895
1.6228943492328198 13.017884071975567 215.19150911361967 72.17317524045866 0.44183119378879027
1.6476462068443893 13.003542262583977 194.05634794271626 75.58093017998601 0.449996923304148
1.6719951137536277 12.987607829001254 175.19135263267998 79.16474302332217 0.45844125216042136
1.6959319235575372 12.970054522844489 158.3335646943061 82.93488349127979 0.4671777749152875
1.7194123721171892 12.950839822396082 143.24942415712826 86.90405414129384 0.4762278872959536
1.742391735390138 12.92988514105304 129.7645676059534 91.08379916003335 0.4856057919258125
1.7648767835996477 12.907246137235521 117.65527064815045 95.48828155476365 0.4953336960578426
1.7868037596793085 12.882806916173791 106.80546267408796 100.13110050420195 0.5054288434524562
1.8081415547367012 12.856547315427639 97.06589413051744 105.0288203771953 0.5159170810980614
1.8288509513169482 12.828409401668386 88.31252152082006 110.19798583374357 0.5268209515375804
1.8489307509398654 12.798438918731655 80.45026880459191 115.65628003469038 0.5381640109344572
1.8683055821240016 12.766498478059944 73.3710588823677 121.4238232886832 0.5499752544828408
1.8869840712313624 12.732674071524348 66.99327565414497 127.52205440389749 0.5622845343519183
1.904907505972789 12.696854318212413 61.244818514162574 133.97346796188208 0.5751213316210869
1.9220471811842996 12.65903507462375 56.062925950029545 140.80374890795522 0.588521934834828
1.9383610108254523 12.61914249595369 51.38088821847719 148.04057303801628 0.6025245894754903
1.953855969984091 12.577296071969453 47.154898907241844 155.71240327834332 0.6171649227528975
1.9684715018971226 12.533359589916039 43.33118877150638 163.85293332055275 0.6324906813285172
1.9821842613906193 12.487356779096325 39.87167555990786 172.4959994571713 0.6485436205728999
1.994973527183646 12.439275899923294 36.738656310711136 181.68079670633384 0.6653765693141982
2.0068085323411333 12.389113663800815 33.897949117982876 191.4493906888696 0.6830441357431123
2.0176540171297095 12.336836117986207 31.321534656406868 201.84782724287797 0.7016055685876493
2.0274894953805744 12.282447527539464 28.985836901213506 212.9260050514008 0.7211233513994376
2.0362978356944437 12.225977715608634 26.86489582872641 224.73954900082185 0.7416682391620814
2.0440406659606145 12.167378565592427 24.937576523377825 237.34951081002257 0.7633169656826089
2.050699126074264 12.106667900669168 23.183075736459244 250.82283778668716 0.7861523550496523
2.0562703678522536 12.043917335281591 21.58987211133935 265.23274411569054 0.8102628970773037
2.0607153137188527 11.979064611409683 20.13853545392506 280.7568997692454 0.8358760979750195
