M[M_sun], R[km], Lambda[1], P_c[MeV/fm^3], rho_c[fm^-3]
0.24162668629717493 15.618656898711224 2160425.4255784233 3.5677272577965504 0.1711233750220791
0.2536441495380238 15.277257977132141 1723182.8894352303 3.7848230687786373 0.17388821621495276
0.26604066170794216 14.981242324776312 1383000.0618298103 4.011408765744219 0.17666674911187158
0.27881577621552334 14.723505514147723 1116389.122668189 4.247740333302916 0.17945765477715067
0.29197032384461313 14.498395563753725 905829.2873445987 4.4944429729467545 0.1822674997641047
0.3055056936547659 14.301232518369753 738693.4082847264 4.7516719918127635 0.1850919845023964
0.31942190810831766 14.128137463148882 605128.7685949219 5.020110193501077 0.18793773914845846
0.33372024126232785 13.975968153390244 497678.77127623564 5.299980886470882 0.19080137210740852
0.3484017775344267 13.842021094932512 411002.85434052383 5.592013587619964 0.19368919822056999
0.36346466138624306 13.723981861488333 340640.78021907655 5.896374447018318 0.19659625960381485
0.37891762223426734 13.619998416929551 283308.93978085305 6.213928024397094 0.19953024704004044
0.3947517768876601 13.528431924503538 236412.10265200317 6.544932156301464 0.20248734633406099
0.41097597030747646 13.447882761355098 197866.75300407436 6.890088426844072 0.2054712548742656
0.4275840282602163 13.37704702390704 166072.21784554305 7.250102322945526 0.2084850531920253
0.4445788997952084 13.314926255644517 139798.36158946215 7.625233509244225 0.21152429896988556
0.4619607310160763 13.260561253323932 117979.9065817623 8.016429620585475 0.2145951328968397
0.47972557430768814 13.213147313638714 99804.87587908683 8.424396319580143 0.21769921267205197
0.4978827726617357 13.17197949182687 84639.40024949085 8.849575514004052 0.2208340212158311
0.5164209792767332 13.136410712883858 71936.52616293999 9.292838436399748 0.22400293704526086
0.5353396616153917 13.1058460644383 61275.14100718189 9.755070912912423 0.22720889394229046
0.5546477179007189 13.079814516460562 52300.04436941294 10.23708255397178 0.2304532428789065
0.5743289660521959 13.057853680254068 44729.08525818262 10.739345726967318 0.2337326956735855
0.5943865634507238 13.039537454383524 38327.17736724204 11.26310277066079 0.2370534107100966
0.6148233020389848 13.024502421117182 32623.105254071743 11.809292450181951 0.2404170178303239
0.6356283636175556 13.012430028143694 28291.52880840905 12.378893804366705 0.24382515004490254
0.6567988785670993 13.003026357407943 24371.174682063913 12.97259761959649 0.24727577797068054
0.6783304480132778 12.995981351376807 21027.22179375238 13.59172716085079 0.2507736475882218
0.7002188968335369 12.99105243977012 18172.21522748523 14.23748184295571 0.2543214153268364
0.7224531560013423 12.98800226337155 15729.518645975362 14.911051397573777 0.25792106589091435
0.7450409399368958 12.986653880377142 13634.04223583829 15.613466781213958 0.26157250866966436
0.7679621062571862 12.986759187218967 11835.896971772258 16.3459916638924 0.26527761362053287
0.7912061087175887 12.988145192071292 10288.537538132476 17.11024334435143 0.26904108386582243
0.8147818082631962 12.990666427523864 8956.086375206129 17.90767692553328 0.2728653520967123
0.8386638035148236 12.99412787840676 7807.304508342398 18.7396565073932 0.27675148842880565
0.8628452368943152 12.998407375862527 6814.501326872389 19.607529030923573 0.28069999593229306
0.8873247642635573 13.003370360088292 5955.2545370693215 20.51337918505027 0.28471722425202173
0.9120812931396156 13.008843820593064 5211.010348591746 21.459001166155986 0.2888061868721426
0.9371012803255138 13.014741941715997 4565.079010588687 22.445877419266782 0.29296679182169394
0.9623851958408949 13.020945173608181 4004.39733657106 23.476036766760018 0.2972028660356625
0.9879061116262785 13.027331234540936 3516.459248703399 24.55189997633936 0.301520496451631
1.0136475920711765 13.033798800221172 3091.8800068466057 25.675407086476355 0.3059212977138865
1.0396125513425845 13.040248159569876 2721.3969935021755 26.848523930003836 0.3104065636654322
1.0657619381440848 13.046577933439519 2398.262797143263 28.074345167768 0.3149850129116436
1.0920949827912856 13.05270819032912 2115.724044354753 29.35492213123084 0.3196570657219306
1.1185927981351385 13.058540692668561 1868.5332300298157 30.693017908204205 0.32442745750706065
1.1452243355204774 13.063993192214829 1652.068189360134 32.09202515071401 0.3293041971949174
1.1719874538496795 13.069004726450055 1462.0060464591397 33.55389128084149 0.3342850235561462
1.1988432697849856 13.073463222829224 1295.4684054786142 35.08315572095337 0.33938348337838803
1.2257885077294366 13.077335834866023 1148.9279851484994 36.681837853272945 0.34459631441447774
1.252784947677033 13.08049681808908 1020.1376508708366 38.35499436837614 0.34993798088676126
1.2798279632040335 13.082938975330409 906.6775835627931 40.1048679529211 0.3554050796646889
1.306871565016661 13.08452501067617 806.7157087334081 41.93692509101363 0.36101214247077845
1.3339086189503382 13.085237902070412 718.5667242251567 43.85465130110219 0.36676110930572126
1.3609176005520023 13.08503315628304 640.6031752395978 45.8627364487076 0.3726597419741001
1.3878475935720227 13.08377604780645 571.7813291770995 47.96651300378588 0.37871799389745026
1.4147048430449811 13.08148381018832 510.8055165777517 50.17073567294568 0.384941506780027
1.4414280720659067 13.078029445454069 456.86785526110236 52.48062787624 0.3913372709795837
1.4680224418077317 13.073433025253637 409.00215020353204 54.90260372756036 0.3979169675334114
1.4944313972440462 13.067568813535434 366.5181433393573 57.442852753244374 0.4046896568919733
1.5206432683743192 13.06042391355505 328.8213795251536 60.10800255815221 0.41166510954608415
1.5466269060425437 13.051935001266585 295.2817905707386 62.905158261843816 0.418853864489006
1.5723441519308192 13.04205548158276 265.45633449776096 65.84194571047604 0.4262672924514678
1.597767196108585 13.030728174234023 238.91347186787098 68.92655884771769 0.4339176644682799
1.6228538454988883 13.0179054430093 215.22723797282356 72.16781167562573 0.44181822640361906
1.6476062894225245 13.003568679620331 194.09073522190718 75.57519529045683 0.44998328013786526
1.6719552477463269 12.987634141199408 175.2292801367226 79.15863821432131 0.4584270097108659
1.6958925945960315 12.970085031677362 158.35800854836722 82.92834919619607 0.46716275912421606
1.7193724548965266 12.950874015631593 143.27186624611963 86.89705672070819 0.47621204158112357
1.7423539075974819 12.929932142664647 129.77532894253744 91.0763357014198 0.4855891884775977
1.7648376584428096 12.907288583126439 117.67682100209156 95.480280154115 0.49531613919819356
1.7867643214461164 12.88285291473984 106.8163313543768 100.12255419429108 0.5054104008864397
1.8081033873357764 12.856597131645731 97.08228466134224 105.019684837761 0.5158976817609239
1.828813259884823 12.828462129395538 88.32708242667431 110.18821272191344 0.5268005185604672
1.8488934750861552 12.798497100212387 80.46273709745337 115.64577664344306 0.538142314552582
1.8682702857824576 12.766559663579306 73.38628800317024 121.41257050667151 0.5499523479423496
1.886948605744 12.732741456566167 67.00761256921537 127.51002364044955 0.5622604428586091
1.9048733890135168 12.696926040322559 61.25647334668608 133.960565251453 0.5750958576644439
1.9220145273061666 12.659111052189491 56.07286049409571 140.789890391889 0.5884949331754037
1.9383279516332987 12.619223326279851 51.39014560378903 148.02567571797783 0.6024959337392085
1.9538253527268896 12.577380914577919 47.16044573636721 155.696425066891 0.6171346424427537
1.9684421043763782 12.533452031562124 43.33662243259231 163.835777382529 0.6324586338937129
1.9821571671641613 12.487455209445043 39.87824203817691 172.47750781436727 0.6485094777762966
1.994947751203632 12.439381030025032 36.74415001782045 181.66090232030064 0.6653403314141875
2.006784536275368 12.389222738170787 33.9027297844903 191.4279643572306 0.6830056173697546
2.0176318300937788 12.336950365373431 31.326489195024454 201.82472643964664 0.7015645669406201
2.0274685725629653 12.282567120280913 28.990870592524438 212.90113064346394 0.7210798351109405
2.036280033281864 12.226103988317199 26.86938195826138 224.7126707317255 0.7416217794340675
2.0440249979293186 12.167511106622735 24.942109302194137 237.32049772534708 0.7632674957080497
2.050684938864641 12.106807226985298 23.18700464884405 250.79148025560474 0.7860995922686259
2.0562580873506016 12.044063798760694 21.59310906159009 265.1987450085487 0.8102063205877132
2.0607078227029305 11.97921541864073 20.141473124923063 280.623961271996 0.835687145506208
2.0640137801427523 11.912320900009147 18.82083992268362 297.1569168799885 0.862649229212895
2.066175290714936 11.843423588189125 17.6184688459534 314.89798302871566 0.8912130419396592
2.0671687396095364 11.772535915124251 16.522700930184733 333.95653902653544 0.9215043602705316
