M[M_sun], R[km], Lambda[1], P_c[MeV/fm^3], rho_c[fm^-3]
0.24162668629717493 15.618656898711224 2160425.4255784233 3.5677272577965504 0.1711233750220791
0.25364527555045097 15.277252103084134 1723192.315861659 3.784845346294914 0.1738884938934461
0.26604251380967003 14.9812060476303 1382948.3742461258 4.011455597837798 0.17666731505008407
0.27881892303944555 14.72345326529933 1116307.0398877175 4.247813304693688 0.17945850113531808
0.2919753119468794 14.49830894485411 905803.5823952276 4.494543998787545 0.1822686247102888
0.30551224133507837 14.301148128233688 738635.6970211733 4.751804502777156 0.1850934158737128
0.31943039869585793 14.128038821640311 605041.542665158 5.020275166040363 0.1879394508022271
0.333730099233165 13.975837265796825 497596.13921984786 5.300182664299831 0.19080340367533605
0.3484137674721583 13.841919657973516 410940.6641731575 5.592252674878764 0.1936915114555695
0.3634792050701598 13.723859065546502 340611.5750029745 5.8966562156512285 0.19659890603444374
0.37893417355100667 13.619895510644287 283243.8559316661 6.214255884700292 0.19953323673123607
0.39476812702306113 13.528368045395332 236361.82355846858 6.545305768221224 0.2024906224058723
0.41099558314696866 13.447792171873328 197825.294261462 6.890515003605242 0.2054748877809697
0.4276058243948676 13.37696310832359 166035.87219927204 7.250585868080093 0.20848905343700158
0.44460383057696085 13.314833624213243 139770.56115069543 7.625772686605514 0.2115285911683713
0.4619854003784585 13.26047748401652 117948.63389799868 8.017033835589086 0.21459980698837947
0.47975447866159066 13.213081575880077 99776.20983079565 8.42507028450359 0.21770427994609062
0.49791484160924554 13.171907621480372 84619.93444979386 8.850316744099189 0.22083938803842312
0.5164558762381243 13.136331966068495 71916.61283463247 9.293658928225097 0.22400871335886302
0.535376382833857 13.105791042526706 61255.788557116364 9.755976230453314 0.2272150922253879
0.5546867801746532 13.079765640225197 52288.0013513603 10.238074896416801 0.23045982854028518
0.5743696290856262 13.057824322919169 44713.543186488234 10.740428172484648 0.23373964530910643
0.5944310489169405 13.039490363481367 37980.99987286622 11.264287896379646 0.2370608153970344
0.6148715484904483 13.02446899062165 32889.9931787204 11.810587258333154 0.2404248924242229
0.6356798067256766 13.012420934544112 28281.141464595534 12.380305734078206 0.24383351018549373
0.6568522847882937 13.002993071336578 24360.79624810603 12.974120186992838 0.24728448034155992
0.6783868288754837 12.995961207530675 21019.202384291504 13.593381989050018 0.2507828612282801
0.700278841282196 12.991045823385281 18165.004847841825 14.239277806267808 0.25433115851545657
0.7225167004649097 12.988000907945553 15722.19743061787 14.912997940557934 0.25793135799742656
0.7451068790500256 12.986650133032308 13627.666313304759 15.615554961040658 0.26158318205979403
0.7680317224514953 12.986759267308825 11831.237450813043 16.348249762113614 0.26528886967381504
0.791279634484677 12.988146225223668 10285.302775144562 17.112682695712405 0.2690529456054571
0.8148566781790978 12.990679672146879 8951.959350385385 17.910309616334626 0.27287784402631826
0.8387447448581943 12.99414604029023 7804.121944086756 18.742470859914047 0.27676441892245385
0.8629268915994674 12.99842572633984 6810.713553548191 19.610561643035826 0.28071360135027235
0.8874125852935781 13.003381211493876 5952.473328446825 20.516644655029644 0.2847315340477905
0.9121713528409442 13.008864249415339 5208.545957545098 21.46251509203396 0.2888212324851649
0.9371955824285533 13.014767330485768 4562.8299859252875 22.449625162187807 0.29298235781214665
0.9624821956039509 13.02096912000687 4002.409226648036 23.480065364303137 0.29721922736729806
0.988005816558643 13.027354970531974 3515.0057928577667 24.556228393891292 0.30153769119976853
1.0137519426537003 13.033819799432816 3090.486070936575 25.68001856783062 0.30593909430855376
1.0397198507871044 13.040275399564848 2720.002774394102 26.85347485906128 0.3104252673838997
1.0658744876939263 13.04659881864594 2396.873881808351 28.079658723553933 0.31500467006500693
1.0922108027079138 13.052733767342977 2114.589316248052 29.3605794796867 0.319677428702742
1.1187109057714386 13.0585616980334 1867.314102803542 30.699086601830437 0.3244488652170687
1.1453465565306424 13.06401338257117 1651.1306748876416 32.098485380445304 0.3293263939079671
1.1721118169176588 13.069026057410609 1461.222509293633 33.560818835341266 0.3343083701290712
1.198971348902006 13.073483605904432 1294.6539635538088 35.09058330234701 0.33940804437643496
1.2259204942770807 13.07734745276914 1148.3693670080647 36.6897439047878 0.34462181811283416
1.2529193871253028 13.080508496695094 1019.5992484000072 38.36341097951586 0.3499644839883688
1.2799634991602173 13.082945842542633 906.1434635751172 40.113890801945836 0.3554329933452324
1.3070167942912603 13.084547134216276 806.2437288842399 41.94653259285526 0.36104118740437585
1.3340501557497833 13.085238094896214 718.1063711775213 43.864951188747675 0.3667917258985133
1.3610611701272946 13.085029533353683 640.231517281412 45.87370713759916 0.3726916432471413
1.3880011621052741 13.083784068237545 571.3993531685431 47.9782013602631 0.378751262733068
1.4148461820868155 13.081450168374205 510.5021221069568 50.18326988472751 0.3849766290227383
1.4415794879020152 13.078008243994246 456.5817974179628 52.493988042773076 0.3913739529912617
1.4681746046594206 13.073403978326722 408.7324140748816 54.916849015796934 0.397955313287385
1.4945868153746438 13.067528753848407 366.29173579640513 57.45804712321066 0.40472977840004604
1.5207982263573552 13.060377162499734 328.6259785345353 60.124215192133306 0.41170712751875277
1.546782676961027 13.051880072580676 295.0933146894778 62.922464036397535 0.4188979090611153
1.5725003128050503 13.04199055291741 265.2789494177113 65.8604257160469 0.426313503980327
1.5979140531834553 13.030646348672922 238.75151885107817 68.94630096119958 0.4339661944120823
1.6230227908090074 13.017831252059386 215.07624453565606 72.1889111918839 0.44186923828895436
1.6477649126411111 13.003468440093972 193.95404338940622 75.59775561956182 0.4500369506261642
1.6721129983625955 12.987525781347077 175.11842817101035 79.18265382633783 0.458483037858944
1.6960500741604227 12.969962184871287 158.24912511789663 82.95405444440568 0.4672218297097359
1.7195292734759098 12.95073935868039 143.1760173979256 86.92458395344534 0.476274377219617
1.7425105238740166 12.92978960048752 129.6866961700849 91.10569637576945 0.48565450517074993
1.7649940276793286 12.907121642977753 117.5963948650039 95.5117571669075 0.49538520679273573
1.7869032149932629 12.882643611166948 106.7485699108088 100.15617495515747 0.505482953029794
1.8082540339340398 12.856402367060559 97.01883852519262 105.0556237187419 0.5159739980500176
1.8289571223723013 12.82824884486391 88.26668336696954 110.22665992253108 0.5268809014297048
1.8490377046762763 12.798268679361966 80.41118285326993 115.68709691527722 0.5382276679756617
1.8684109205909814 12.766314439628143 73.33448397349088 121.45683903979825 0.5500424624531881
1.8870847815925291 12.732480943779546 66.95651007617639 127.5573288758568 0.5623551334147325
1.9050060221044323 12.69664541877851 61.21114400431742 134.01132498363785 0.5751960731365338
1.92214430039573 12.658809776309242 56.03433074149504 140.84441051959996 0.5886011591171413
1.9384534212620983 12.618904531481258 51.35532638122246 148.08428280054872 0.6026086673784178
1.9539450707965074 12.577040816587704 47.13110935252949 155.75928469369637 0.6172537677278873
1.9685537730414049 12.533091735817157 43.308831272784 163.9032705560696 0.6325847117027942
1.9822661733603821 12.487073003207726 39.851080078250845 172.55025611994864 0.6486437995684174
1.9950480677504516 12.438971211109312 36.72040498994099 181.73916952239105 0.6654828962080314
2.006879309561324 12.388792815462184 33.87924035506877 191.5122588194432 0.6831571545354342
2.0177192186656443 12.336498534883965 31.305998316974893 201.91560895314834 0.7017258744372649
2.0275493966254055 12.28209801494509 28.971808574400498 212.9989912559635 0.7212510363976941
2.0363522442344193 12.225605639169618 26.85179055848315 224.8184154436473 0.7418045616860489
2.044088298429415 12.166990582576245 24.92569054040346 237.43464179790223 0.7634621218372094
2.050740549058172 12.106259087187617 23.172854730221037 250.91484853467134 0.7863071740924912
2.056303842092716 12.043490177829339 21.579700258247954 265.33239043232146 0.8104285290768588
2.0607411057114993 11.978618099732227 20.128681936523808 280.7686247848747 0.8359244273374669
2.0640374402082595 11.911697974456896 18.809333568815415 297.31386759225126 0.8629035174893642
2.066186549035855 11.842770845742399 17.608426921035147 315.06848156595413 0.8914859765632968
2.0671723460737743 11.771862853765873 16.51322708908539 334.1417101647163 0.9217968232919221
