M[M_sun], R[km], Lambda[1], P_c[MeV/fm^3], rho_c[fm^-3]
0.24162668629717493 15.618656898711224 2160425.4255784233 3.5677272577965504 0.1711233750220791
0.25364455746037295 15.277279317849251 1723088.256375137 3.784847917266876 0.17388852593937135
0.26604254821512197 14.98120106793137 1383007.3684104418 4.011461002594735 0.17666738036338198
0.27881961588527227 14.723446359950048 1116378.9621435278 4.2478217261494455 0.179458598811514
0.2919764323217155 14.498293540271897 905742.0035263217 4.494555657992222 0.18226875453823882
0.30551314180736333 14.301130875335936 738534.921317777 4.751819795689449 0.18509358106635254
0.3194314203003675 14.128029194488443 605023.5041616986 5.0202942053794155 0.18793964834271826
0.33373202778248184 13.975842422515388 497571.3121813551 5.300205951406699 0.19080363813786194
0.3484151432819752 13.84190813140874 410930.68657304626 5.592280267965057 0.19369177842626997
0.3634807493132183 13.72384435969622 340602.6597543814 5.896688734737228 0.1965992114605812
0.3789349393823947 13.619899412513744 283238.7116906049 6.214293723412516 0.1995335817747308
0.3947698316043634 13.52836796740605 236362.70554305444 6.545348887342575 0.20249100050231544
0.41099791144753894 13.447766286563883 197821.13409460118 6.89056423568261 0.205475307062
0.42760800903953344 13.376958115895343 166035.18916130936 7.250641675220007 0.20848951511516794
0.44460622827452534 13.314824125705858 139766.16295068455 7.625834914626578 0.21152908654343147
0.4619884831319409 13.260464003922825 117940.93141796286 8.017103570073786 0.21460034644099654
0.47975801437568505 13.21307133410831 99780.44121952822 8.425148069373021 0.2177048647795675
0.4979185977420749 13.17193121043479 84616.75500910736 8.850402292600837 0.2208400074461271
0.5164599906750499 13.136322780081056 71916.50216585981 9.293753625033203 0.22400938003029575
0.5353809381156188 13.105776034544766 61254.15701439713 9.756080717807146 0.22721580760112062
0.5546911000479975 13.079757668344831 52286.122949592536 10.238188737547818 0.23046057974791928
0.5743768109102115 13.057785795737681 44712.68140115786 10.740553104002869 0.23374044740815236
0.5944363340945086 13.03949260101813 38314.148922066124 11.264424679368076 0.23706167001962142
0.6148768803154913 13.024474505176222 32888.793203118636 11.810736701059227 0.2404258012853371
0.6356841825528637 13.012422459656 28280.74613006655 12.380468695244364 0.24383447509065076
0.6568585289109522 13.003003788964907 24360.606080775735 12.974295918241221 0.2472854847493137
0.67839337574857 12.995973855867058 21018.310346263766 13.593572986277922 0.2507839246496738
0.700285593462355 12.991052643252116 18163.824322627355 14.239485093854675 0.25433228306073197
0.7225241325881784 12.9879989369303 15721.386353922147 14.913222608713449 0.257932545902654
0.7451150913540603 12.986638022848455 13627.383889260253 15.615795977561328 0.2615844139763751
0.7680397850948949 12.98675460738175 11830.073443627247 16.348510391530333 0.2652901688460893
0.7912872394467604 12.988158448295586 10284.644070462196 17.112964246440786 0.2690543146913082
0.8148653116375685 12.990683055024812 8951.428378125955 17.910613483552144 0.27287928585453786
0.8387547432114718 12.994142038612493 7803.666015729075 18.742795695706242 0.2767659113748444
0.8629373124755605 12.998428125887992 6810.448044384141 19.610911671975554 0.2807151717093732
0.8874217088963591 13.003383195560941 5951.9783128771105 20.5170215622858 0.2847331857138274
0.9121817606606701 13.008872230005894 5208.261392445764 21.46292067819226 0.2888229690876422
0.9372063331960117 13.014761267279749 4563.069852060231 22.45005773749121 0.292984154483686
0.9624930063846192 13.020977786358761 4002.1802725630305 23.480530358524323 0.29722111584699357
0.9880178146849633 13.027363442138823 3514.796579575348 24.556727996363204 0.301539675883217
1.0137650551678068 13.033821062291294 3090.362957489704 25.680550844350037 0.30594114846615283
1.03973198002499 13.04027885438216 2719.76870499543 26.854046318402958 0.3104274262543901
1.0658867214117616 13.046608344322207 2396.7255317470444 28.0802720415056 0.31500693899480126
1.0922240103510037 13.052729698303223 2114.4425046600995 29.361232482148726 0.31967977911065976
1.1187242054022886 13.058568253421983 1867.1916939826035 30.699787086982063 0.32445133622383143
1.1453588770795577 13.064019261997357 1651.0505289658104 32.099231061605906 0.32932895599498824
1.1721259197967981 13.069032364297028 1461.1045136426812 33.5616184615669 0.33431106495189655
1.1989861331053178 13.073484601372872 1294.5729707272142 35.09144064886961 0.33941087938895803
1.2259355748973437 13.07735031563022 1148.2913726163167 36.69065648312604 0.34462476194928926
1.252933889532387 13.080513652355027 1019.5388334643611 38.36438249414786 0.3499675431948092
1.2799794142373828 13.082950802485664 906.0678727461419 40.11493229825798 0.3554362153868807
1.307032884223247 13.08454768814749 806.2272427731793 41.9476415790475 0.3610445400376457
1.334063785785346 13.085245664988017 718.0168406027738 43.86614010199918 0.3667952599635574
1.3610772646171987 13.08502872814632 640.1591420893842 45.874973486133854 0.3726953256166598
1.3880177457542773 13.0837794071383 571.3813216197115 47.97955055458355 0.37875510297563336
1.4148626285618457 13.081454580032771 510.4636630634914 50.18471672368826 0.3849806832249513
1.4415959506637834 13.078006945199377 456.54203835722655 52.49553022895391 0.39137818725670703
1.4681914423165001 13.073401933792063 408.70391752184497 54.918493379878484 0.3979597396197601
1.4946034199390008 13.067525287207541 366.2649782400357 57.459801049269 0.4047344097311683
1.5208161159705684 13.060371381637708 328.60469871732977 60.126086667196326 0.4117119777847947
1.546801202455688 13.051874263472758 295.0715277158535 62.924461704948364 0.41890299328639885
1.5725191004530439 13.041981706445473 265.2590365156681 65.86255894002366 0.4263188383694855
1.5979327116818516 13.030637747944729 238.72958261145473 68.94857988610974 0.4339717964514952
1.6230419100484652 13.017821543728967 215.0671558275021 72.19134681972771 0.44187512685847263
1.6477820707780437 13.003460408003406 193.9336958306237 75.60035988934334 0.45004314612225765
1.6721310030162282 12.987511442909712 175.09965043687896 79.1854260993664 0.4584895055402028
1.6960685298842928 12.969949680536246 158.2367186640675 82.95702177789128 0.46722864863344354
1.719547034173639 12.95072304653878 143.16457216362525 86.92776162773495 0.4762815730884375
1.7425281714238747 12.929774156161272 129.67445701625633 91.10908571334802 0.48566204519929196
1.7650098555439757 12.907105061728815 117.58334873781078 95.51539083034018 0.49539317986166465
1.7869208265738383 12.882623550158526 106.74173477808885 100.16005610874588 0.5054913283908586
1.8082710419142707 12.856380837346803 97.00830028078286 105.05977249501812 0.5159828079851363
1.828974714608554 12.828223580519868 88.26673094216125 110.23109828160895 0.5268901808578986
1.8490544459387919 12.798243195330135 80.40163427987848 115.69186697185481 0.538237521266531
1.8684269434131928 12.766286582343882 73.32581351860638 121.46194947496298 0.5500528654264178
1.8871024642391843 12.732447084233089 66.95445757428483 127.56278895429786 0.5623660613294374
1.905022591151139 12.69661192551861 61.20727988277516 134.01718483739538 0.5752076423073196
1.9221593193523374 12.658774261129315 56.02949206426039 140.85070452276938 0.5886134222288038
1.9384674610224786 12.618867169058332 51.35160134437139 148.0910486591614 0.6026216818440817
1.9539602557508469 12.577000898757332 47.1277072446997 155.76654152661698 0.617267520152691
1.9685683150164197 12.533046820093283 43.30493594416955 163.9110623558947 0.6325992668496219
1.9822784261009323 12.487028778352343 39.84887580948994 172.5586546604321 0.6486593065551428
1.9950599783536866 12.438924853239016 36.71645920536735 181.74820525894253 0.6654993549274475
2.0068899064821877 12.388743598290413 33.87648084840869 191.5219904523165 0.683174649208564
2.017728942935812 12.336447173214635 31.304033035909406 201.92610123705984 0.7017444972062293
2.027558370917601 12.28204341722894 28.969106230096482 213.01028922857387 0.7212708015248397
2.0363597467694166 12.225548568009815 26.849623120548188 224.83062372449857 0.7418256639901383
2.0440951845039774 12.166934742882656 24.922046901184938 238.2044678803838 0.7646648832780588
