M[M_sun], R[km], Lambda[1], P_c[MeV/fm^3], rho_c[fm^-3]
0.24162668629717493 15.618656898711224 2160425.4255784233 3.5677272577965504 0.1711233750220791
0.2536416596915139 15.277368352193331 1723206.0195658628 3.7847967859877394 0.17388788861264345
0.26603780209530264 14.981285584364283 1383111.9354160803 4.01135351421149 0.17666608142970577
0.27881178407645707 14.723586635193373 1116470.5957545415 4.247654243926383 0.17945665627011678
0.2919646287216975 14.498484973586708 905979.8047533709 4.494323786824147 0.18226617259896782
0.30549756423537616 14.301320925533958 738714.629520009 4.75151566219745 0.18509029584419145
0.31941208121413595 14.128254960696852 605179.2878515373 5.019915568989421 0.18793571984403185
0.33370729218383677 13.976106505399825 497755.34614919184 5.299742843345866 0.19079897540812457
0.348387669247768 13.84208766646235 411052.3078631233 5.5917315317119405 0.19368646925206895
0.36344846149245785 13.724089413987024 340713.91986316483 5.896042041811003 0.1965931375837633
0.37890032328548384 13.620093906676214 283357.6628974864 6.213541247573832 0.19952672010112188
0.39472856230911374 13.52858774134573 236453.3979164739 6.54449140959987 0.20248348158090762
0.41095236840694854 13.44799374327221 197915.86738152555 6.889585202037103 0.20546696920063937
0.4275584987073449 13.377141196706834 166119.4605849114 7.249531898156673 0.20848033421393447
0.4445511023544644 13.31502794832649 139843.17670498881 7.624597461219186 0.2115192356186287
0.46192956507210653 13.260652029847927 118013.60893719729 8.015716855619415 0.2145896190835815
0.47969332921964564 13.213220673274085 99835.03365763684 8.423601280036817 0.21769323508613106
0.4978460927000714 13.172056735921773 84671.21253196933 8.848701131440531 0.22082769031247626
0.5163810022340961 13.136476500556219 71961.17094706952 9.291870561239659 0.22399612314379386
0.5352969131571538 13.105901294360695 61295.677511169255 9.754002983193747 0.22720158233014828
0.5545997858979165 13.079866703712549 52317.00942415847 10.235907609021698 0.23044541820388648
0.5742781726382202 13.057916740730178 44747.10402022185 10.738068871979761 0.23372449786904523
0.5943338733379567 13.039561536797926 38343.37777727759 11.261704804545955 0.23704467619251313
0.6147677660150214 13.02453185965894 32914.59278247386 11.80776511505168 0.24040772908442945
0.6355657927964736 13.012456815597034 28305.633315168445 12.377228327170931 0.243815288630843
0.6567342665125642 13.003042683893336 24380.769938451267 12.97080164842865 0.2472655129359578
0.67826360618728 12.9959943479487 21036.959881769148 13.589775193903519 0.2507627795592226
0.7001477578949503 12.99107668488837 18180.23545451518 14.235363414915128 0.25430992275132636
0.7223784825184052 12.987994734504058 15735.9940982931 14.908755370743867 0.2579089259315708
0.7449622757961223 12.986645448800072 13640.539482571663 15.611003703416438 0.2615599190497875
0.7678795561969856 12.986759377242098 11841.433318423226 16.343328181891756 0.26526433683078404
0.7911206539159382 12.988118625324596 10225.029980220357 17.107366091748762 0.2690270927607351
0.8146917493946825 12.990654813721845 8961.037683933806 17.90457164979823 0.27285061778538733
0.8385699937222325 12.994120703292353 7810.899709833969 18.73633698121819 0.27673623692360044
0.8627470244290943 12.998376789675783 6818.10495686789 19.60395209523127 0.280683948477697
0.8872178339446279 13.00333423818435 5958.294574508881 20.509527625563603 0.2847003461211574
0.9119749743844974 13.008823904423373 5213.987099762507 21.45485658986518 0.2887884409966807
0.9369904678103558 13.014713437579331 4567.720448733369 22.441457090221938 0.2929484322913954
0.9622669143806837 13.020910326121397 4006.9017079000896 23.471285216986846 0.29718356858021067
0.9877866939104851 13.027314150379336 3518.528325896767 24.54679484269674 0.3015002161791896
1.0135260875982275 13.033756544613919 3093.908122432524 25.669968129246254 0.3059003077304515
1.039485022038171 13.040215176534812 2723.1267535165766 26.842684662007606 0.3103845039624168
1.0656347487095434 13.046551796225513 2399.596264756476 28.068078258111488 0.31496182888776303
1.0919591048469346 13.052677523615138 2117.0325100936934 29.348249789655565 0.3196330493890982
1.1184548383090358 13.058510092505623 1869.731400821449 30.685860480406085 0.32440220921671303
1.1450812674606767 13.063964013144414 1652.9845973297283 32.084405995561255 0.3292780185282691
1.171842498960461 13.068977171384894 1463.057233487081 33.545721034464435 0.3342574889834679
1.1986928300406943 13.073439403827624 1296.2538342026169 35.074395825501846 0.3393545167789429
1.2256364475747181 13.077313974838415 1149.7955761555181 36.672513727476975 0.3445662362280036
1.2526285367673724 13.080481622390797 1020.858441865444 38.34501145273929 0.34990639149256925
1.2796665220494858 13.082927377634562 907.3075192192404 40.094226883487 0.35537215975081143
1.3067077897894877 13.084518763878062 807.2844167602406 41.92559459548143 0.36097788866622205
1.3337409632864494 13.085228383650563 716.0642186496873 43.842504358716056 0.3667250023110137
1.3607464187807823 13.08503541985598 641.0529084948639 45.849798509209 0.3726221202035244
1.3876747916760122 13.083788031164644 572.2097088079726 47.95272881105572 0.378678759635306
1.4145291523504633 13.08150396243323 511.1862001109697 50.15595409519588 0.38490008717020846
1.4412500683836338 13.078060416121748 457.17714418923777 52.464872376656125 0.39129401228080196
1.4678433429857034 13.073468709736698 409.3148714643084 54.885804549987995 0.39787174716865276
1.49424992982266 13.06761301387299 366.79833025102937 57.42493449155495 0.404642342809019
1.5204603456794399 13.060475958694449 329.07568755017564 60.088883650422666 0.4116155594394593
1.5464430316147793 13.052002065076177 295.51440497827565 62.884750434066284 0.41880192494481794
1.5721575431191894 13.042133692205452 265.65866280969084 65.82015336418146 0.42621279800687256
1.5975802987065366 13.03081843203284 239.09587576390064 68.9032783852077 0.433860436576325
1.6226686942934772 13.018015753995083 215.39617346269904 72.14293075573472 0.44175807229311775
1.6474190293708884 13.003683652304796 194.23583437665354 75.54859200688927 0.44991999155671103
1.671768613457685 12.987764547076239 175.3552084891442 79.13031908125105 0.4583609414974049
1.695706391977219 12.970232458380162 158.4809957265527 82.89803795156962 0.46709310397234516
1.7191697831952255 12.951002403690323 143.40358479564438 86.86459735062982 0.47613853707820997
1.742175871974199 12.930114033861603 129.88230406729943 91.04171469415635 0.4855121694799712
1.7646556488007992 12.907483054282036 117.77138478871952 95.4431640385066 0.4952346981529228
1.786585474895351 12.883064271092481 106.90242469736273 100.08291065368404 0.5053248518456961
1.8079258932794486 12.856824949118645 97.15966982197575 104.97730832647247 0.5158076951503779
1.8286394969317534 12.828710578553478 88.39953704333223 110.1428094518606 0.5267054788887058
1.8487217337254154 12.798763739755488 80.52543973772855 115.59705586094901 0.5380416742281988
1.8681114746838503 12.76688098109016 73.43984122610803 121.36037398726182 0.5498460949567219
1.886786859837768 12.733052481374983 67.05819268312528 127.4540583732302 0.5621481210138545
1.904713909752421 12.697258282485686 61.30272856598447 133.90071630050505 0.5749776972523383
1.9218614925317377 12.659468080812324 56.11760013708544 140.7256084583323 0.5883696875236513
1.9381811241537672 12.619600595484552 51.432053793340465 147.95657590838564 0.602363016817528
1.9536852144779127 12.577789662016894 47.202083786805666 155.62231219545654 0.6169941911325825
1.9683076078538515 12.533882474467056 43.37250978407637 163.7561385833132 0.6323097711718969
1.982032084571416 12.487912756428548 39.909512875706376 172.3917381405619 0.6483511134514772
1.9948276261343936 12.43985983937841 36.77463361456197 181.5686270795293 0.6651722507836538
2.0066676224395583 12.38971513828297 33.93060357355078 191.32858442092365 0.6828269608663725
2.017528573526536 12.337483694068666 31.351915942878588 201.71758090513143 0.7013743941858911
2.0273745184583953 12.283130075004538 29.01237698503718 212.78575980720834 0.7208780007353293
2.0361955027244285 12.226690174269558 26.89002620652637 224.58800692372037 0.7414062950741063
2.0439500288719317 12.168126550607655 24.960239212248688 237.18593370151902 0.7630380516861611
2.0506217703174654 12.107452011116951 23.204499693437125 250.64584654819782 0.7858542354214916
2.056199595065401 12.04471542399395 21.608786759038974 265.04105880702383 0.8099439215870006
2.0606656113734796 11.979918398407209 20.155973666012148 280.45342583689956 0.8354074277008751
2.0639880473627605 11.913068635651245 18.83402448670708 296.9718998467189 0.8623494684674399
2.0661574161014706 11.844186155640262 17.630853415371124 314.69699897951585 0.8908913060074104
2.0671642450923415 11.773328151489768 16.534368177466742 333.7382625918259 0.9211596100777064
