M[M_sun], R[km], Lambda[1], P_c[MeV/fm^3], rho_c[fm^-3]
0.24162668629717493 15.618656898711224 2160425.4255784233 3.5677272577965504 0.1711233750220791
0.2536451069289272 15.27727455475237 1723147.5277893334 3.78484346261325 0.1738884704142629
0.2660422367151179 14.981232661012497 1382979.196181414 4.01145163792182 0.17666726719683645
0.2788191280801592 14.723443805850861 1116363.0963728523 4.247807134530849 0.17945842957072738
0.29197475295999586 14.498354980615805 905814.5892637878 4.4945354564242335 0.18226852958909073
0.3055108502294238 14.301162252844156 738524.0074173409 4.751793298109884 0.18509329484192186
0.31942977729298244 14.128048210809087 605033.0627878811 5.02026121648685 0.18793930607022535
0.3337300551859062 13.975831673755286 497595.03846611816 5.3001656025473425 0.19080323189179907
0.3484127540160328 13.841928367640682 410941.8152157682 5.59223245828121 0.19369131585442678
0.3634779726372018 13.723870941894452 340627.98285855906 5.896632389944731 0.19659868225836627
0.37893211418241785 13.619913561104886 283245.38976176624 6.214228161492686 0.19953298392896363
0.39476647877985427 13.528373371063424 236362.26357616068 6.545274176249415 0.20249034538695818
0.410993921876631 13.447803751773227 197827.90728955297 6.890478932896889 0.2054745805876809
0.4276039361248139 13.376970167204794 166046.23717368022 7.250544980071742 0.2084887151809872
0.44460150592454223 13.314860886302823 139773.28341382908 7.625727094264206 0.21152822822401873
0.46198277393757525 13.260490830384533 117942.9843386633 8.01698274355563 0.21459941175019456
0.47975198499564553 13.213086079205402 99792.10021227498 8.425013294274049 0.21770385145923535
0.49791208949811655 13.171914495853265 84620.5154568084 8.850254065769809 0.22083893422053802
0.516453047065936 13.136335961745736 71920.22077198605 9.29358954730779 0.22400822491287978
0.5353735141109496 13.105790939210117 61256.962680626115 9.75589967641235 0.22721456809590107
0.5546832398969539 13.079754075700562 52288.093412879054 10.237991489258281 0.23045927815841827
0.5743675825020123 13.057802435783353 44714.76138305423 10.740336639876395 0.2337390576414082
0.5944268474364083 13.0395066082993 38316.45823630325 11.264187680716525 0.2370601892477577
0.6148681773909014 13.024479486985259 32890.95533013024 11.810477767441034 0.2404242265369173
0.6356739769182057 13.012417569776105 28285.318002446063 12.380186338832344 0.2438328032373835
0.6568477798106434 13.0030162743936 24361.680619478262 12.97399143568487 0.24728374445188053
0.6783821323319515 12.995963598827066 21019.930337024234 13.593242053062234 0.2507820821021912
0.7002736055932899 12.991042553256976 18165.833297946265 14.239125935094705 0.2543303346069304
0.7225114416909151 12.987998935307768 15724.064095533478 14.912833335464605 0.2579304876682497
0.7451010390683243 12.986643821467865 13628.379024802307 15.615378378276063 0.2615822794858334
0.7680251719285922 12.986758677276432 11831.551539897036 16.348058809930055 0.2652879178250725
0.7912738556577767 12.988148635330953 10285.669822175041 17.11247641551003 0.26905194253468534
0.8148500372637282 12.990679479439509 8952.182489541887 17.91008698594913 0.27287678766105794
0.8387368893593389 12.9941353907544 7804.263536899721 18.74223286689592 0.27676332546767646
0.8629190426762162 12.998427086759216 6810.9639691871325 19.610305192277885 0.2807124508174565
0.8874057267494321 13.003378620229364 5952.779737219152 20.516368511910958 0.28473032394582776
0.9121638691071352 13.008862518788012 5208.8076565748115 21.462217937375865 0.288819960154971
0.9371872319215845 13.014757683245088 4562.994564468319 22.449308233985217 0.29298104147282467
0.9624746759186718 13.02097106909579 4002.6155749657282 23.479724684482814 0.2972178437653219
0.987998118263966 13.027351287353843 3514.8481133598148 24.555862358467277 0.3015362371147941
1.013743708251493 13.033807389238143 3090.7049888799324 25.67962859388529 0.305937589323994
1.039710546122118 13.040273858719177 2720.0518393119205 26.853056178014814 0.31042368568229783
1.0658647295682984 13.046601730136183 2396.964631351791 28.079209375030935 0.31500300772942863
1.0921992865728056 13.052738151707107 2114.6855328255083 29.360101056522183 0.3196757066731031
1.118701434860241 13.058566699903484 1867.4115213605862 30.69857339079517 0.32444705483188657
1.145335096850416 13.064021742981183 1651.0690310038738 32.097939056851665 0.32932451679391
1.1721019810784286 13.06902800706595 1461.2772476656432 33.56023298932684 0.33430639576759935
1.1989594792032496 13.073483108284584 1294.699065093483 35.08995516805795 0.3394059673066286
1.2259087123994203 13.077347049287189 1148.408330306067 36.689075305376555 0.34461966131463045
1.2529074881486295 13.080512133742348 1019.5840172162134 38.36269920096126 0.3499622426659361
1.279951987414857 13.082943473942688 906.2279451657915 40.11312775204966 0.35543063272377207
1.3070045000096726 13.084549149956578 806.2997360087556 41.9457200971947 0.36103873110690143
1.3340372162179328 13.08523875580168 718.1459971626018 43.86408013547419 0.3667891366777089
1.3610481666379743 13.085029239492576 640.2483799162528 45.8727793522681 0.3726889453734287
1.3879886199762472 13.08378127716559 571.45109186144 47.97721287898407 0.37874844919625916
1.4148334273293957 13.081458433049294 510.5445605083013 50.18220986545617 0.3849736587319235
1.4415660295719965 13.078011353307225 456.6032722088821 52.492858168666764 0.391370850780293
1.4681615614091343 13.073408036510365 408.7627413179598 54.91564428251903 0.3979520703620674
1.4945730436243518 13.067531887003778 366.30928867744666 57.45676212099906 0.40472638528623345
1.5207850386626351 13.060378947026573 328.64560504662444 60.12284406949448 0.41170357400649615
1.5467694199013302 13.05188527684973 295.1026353879806 62.9210004601773 0.41889418414327534
1.5724872629289228 13.041994809000458 265.2982564828169 65.85886282747477 0.4263095957850574
1.5979007235935139 13.030654411995759 238.75965788517826 68.94463132745392 0.43396209012852005
1.6230091920515959 13.017840767562804 215.0891401423407 72.18712675266757 0.441864924085369
1.647751641613697 13.00347749439195 193.96378985804168 75.59584762811971 0.45003241155973966
1.6720995561067393 12.987535275200115 175.1241793030024 79.18062275055617 0.4584782993823824
1.696037878507222 12.969971329841282 158.26121972305685 82.95188046168245 0.46721683390376956
1.7195162067547973 12.950749745908539 143.1869860724776 86.92225586913453 0.47626910525409233
1.7424973682740859 12.929801367402241 129.69312176567354 91.10321322095668 0.4856489810653079
1.764978572628138 12.907138775621425 117.59568762296009 95.50909501250737 0.49537936543155164
1.786889847375309 12.882659911213494 106.75481261083043 100.15333148290964 0.5054768169400438
1.8082413252263336 12.856419272300881 97.0224203141854 105.05258417924755 0.5159675435815302
1.8289453269217508 12.828264402668989 88.27365593402637 110.22340822750067 0.5268741030003723
1.8490255498828292 12.798286822886796 80.41544146648927 115.68360221103332 0.5382204491226236
1.8683974248359678 12.766336266446425 73.33511512545749 121.45309496642334 0.5500348408918465
1.8870734252633332 12.732502712788559 66.96193455418641 127.55332864583482 0.5623471272710568
1.9049940445724332 12.696669529436656 61.21666313530543 134.0070318698195 0.5751875971968563
1.9221333362893014 12.658835484041976 56.038693265804866 140.83979933923993 0.5885921747842567
1.9384427791981653 12.618929779094337 51.35803766798616 148.07932592994499 0.6025991325911918
1.9539349556866241 12.577068579754286 47.1344002025782 155.75396812612544 0.6172436923001444
1.9685470233027151 12.533124219225373 43.31387872785696 163.89756206228768 0.6325740481889687
1.9822572969311236 12.487105771418392 39.854692536719334 172.5441031183544 0.648632438723729
1.995039295929027 12.439005443334702 36.721238479933994 181.73254970113354 0.6654708381118217
2.0068722834694794 12.388829106828265 33.882603662775935 191.5051291746049 0.6831443374874012
2.0177136202945003 12.336536209338695 31.308878006327426 201.90792204539338 0.7017122309342507
2.0275426065290163 12.282138660286462 28.973480659090427 212.99071409051442 0.721236555991948
2.036345230353555 12.22565052577275 26.852961347152167 224.80947137662713 0.7417891016532765
2.044082472592647 12.167034838333535 24.926351273339066 237.42498724149453 0.7634456599316517
2.050734685724321 12.106306492376284 23.17293702297174 250.90441371012548 0.7862896162573059
2.056300393381604 12.043538389790271 21.580789382434354 265.32109792724714 0.8104097719556781
2.0607392634437924 11.978668288358952 20.13029314318524 280.7563885907891 0.8359043571312172
2.0640360977163246 11.911753742418073 18.810577725252557 297.3005920072733 0.8628820086629658
2.066185129906615 11.842825633179448 17.60922492522136 315.0540599416278 0.8914628903792655
2.0671714948015336 11.771920236809908 16.51387477253086 334.126047346192 0.9217720851212001
