M[M_sun], R[km], Lambda[1], P_c[MeV/fm^3], rho_c[fm^-3]
0.24162668629717493 15.618656898711224 2160425.4255784233 3.5677272577965504 0.1711233750220791
0.2536437456602691 15.277286792402695 1723149.5274308352 3.7848140385852194 0.1738881036579481
0.2660393568690365 14.981277784525556 1383062.5507179291 4.011389782461876 0.17666651971010763
0.27881406162930483 14.72354806627096 1116470.2759370694 4.24771075468373 0.17945731170974213
0.29196788248034267 14.49845569272429 905897.5414391855 4.494402022810884 0.18226704377483777
0.3055034332693636 14.30123006226403 738655.7369500534 4.751618279697564 0.18509140430904114
0.31941960669445757 14.12815077093684 605125.778234814 5.0200433237356705 0.187937045348833
0.33371657002316785 13.975996850832257 497699.8835707379 5.299899098541454 0.19080054863866988
0.34839691755902047 13.842061125325385 411026.3957808291 5.5919166773083315 0.19368826058664582
0.36345910241489426 13.724013399834941 340670.85192682827 5.896260237083221 0.19659518691993502
0.37891203095543635 13.620026859670507 283322.7217717108 6.213795132721984 0.1995290352279754
0.39474349356049987 13.528489127397735 236422.06982364898 6.544780720848046 0.20248601844971378
0.41096716319135246 13.447904081895638 197874.41702949585 6.889915524143722 0.2054697823623136
0.42757500977923846 13.377082647029276 166087.44062786052 7.249906330487502 0.20848343179664863
0.4445693176705589 13.314959894865304 139809.71254525037 7.625014968718367 0.21152255924677862
0.4619499186695649 13.260596200751374 117989.1901594641 8.016184720106109 0.21459323839363828
0.47971388203097054 13.213190038828122 99825.15362424987 8.424123149437477 0.21769715881446397
0.49787033397102654 13.172037180607647 84653.27614415747 8.849275081407859 0.22083184595546967
0.5164076260567058 13.136418229935952 71945.25272898327 9.292505879395266 0.2240005958232168
0.5353254758949327 13.10588902945396 61282.69549964143 9.754703976663164 0.22720638170249738
0.5546292167353453 13.079853075626056 52304.467176592894 10.236678846627322 0.23045055434547915
0.574312176138065 13.057855981293319 44734.95685762442 10.738907002629539 0.23372987892743718
0.5943666774392866 13.039552704586905 38331.62908433523 11.262622431527324 0.23705040954249837
0.6148036949502629 13.024516791180774 32905.806290779816 11.80876765862313 0.24041382622205087
0.6356037420544621 13.012444080481544 28295.750594070854 12.378321545719631 0.24382176165898994
0.6567763105906717 13.003031308671115 24373.795080197808 12.971980521764435 0.24727225089252539
0.678307139125336 12.99598256942693 21030.644964389514 13.591056460879221 0.2507699133104714
0.7001945786053935 12.991059155370534 18174.78844969939 14.23675394464094 0.2543174664429537
0.7224268463346433 12.987996819195304 15732.097156490358 14.910262473648443 0.257916894552734
0.7450142112362221 12.986646864954327 13636.14963809342 15.612620456025956 0.261568182816693
0.7679338206612152 12.986756379788254 11837.949619888348 16.34507647640436 0.26527305164044196
0.7911771769166187 12.988129417529203 10290.6883357498 17.109254701401255 0.26903627642993827
0.8147502670312279 12.99065853263764 8957.576502141252 17.90660992943673 0.27286028927652806
0.8386305390146849 12.994121437032831 7808.794592675794 18.738515890704132 0.27674624788529034
0.8628097295377681 12.998399326325723 6815.648498859071 19.606299962839447 0.28069448187893226
0.8872858999192825 13.003348174437203 5956.382368507887 20.512055750068846 0.2847114247547313
0.9120444216277921 13.008836425054758 5212.070434999141 21.457577043694254 0.28880008919216876
0.9370632148693442 13.01472912022756 4566.059132746431 22.444358541696555 0.292960483268985
0.9623408483100883 13.020931628604902 4005.2442925178498 23.474404073262683 0.2971962351822493
0.987864425877606 13.027323000786701 3517.196668556097 24.550145781959237 0.30151352787011393
1.0136055537513968 13.033782450625301 3092.4245225763325 25.67353818145532 0.3059140852494795
1.0395682194150022 13.040238507640302 2721.914841086249 26.84651746665086 0.3103989836081876
1.065718112863074 13.046560528287083 2398.7676329327055 28.07219175389408 0.31497704649734787
1.0920492596995874 13.052694614806336 2116.0517526262884 29.35262939889911 0.31964881329328115
1.1185455593307265 13.058526087970634 1868.9473345460995 30.690558484630227 0.3244187817310368
1.1451752670889903 13.063983401498728 1652.4352643812765 32.08940706291926 0.3292952017031259
1.1719369294423594 13.068997714085834 1462.3772129735362 33.551083819146484 0.33427556212077264
1.1987906824641066 13.07346440684203 1295.695709585919 35.080145634818955 0.33937352983957775
1.225736714313175 13.077329050333331 1149.301220029687 36.67863387769642 0.3445859788852326
1.252731330607167 13.080493169944075 1020.3876587804866 38.35157234951458 0.3499271749752618
1.279771843267846 13.082934845825234 906.9377710928744 40.10121142579118 0.35539376759131575
1.306815093842093 13.084520934530861 806.9404624741524 41.933031650451525 0.36100037201010554
1.3338513343910925 13.085237530951307 718.7747498881598 43.85047729559708 0.36674870200272336
1.3608584963658432 13.085035060041438 640.7560970656766 45.858290624127555 0.372646814120141
1.3877878354193158 13.083781964273749 571.9148924527321 47.96177637090191 0.3787045119112441
1.4146443850857293 13.081489520721924 510.93222045603045 50.165656293628686 0.3849272737994216
1.441366332222836 13.078041271329393 456.980253041984 52.4752138137943 0.3913224059925817
1.4679601135478262 13.073444843769659 409.11296284102286 54.89683100938456 0.39790142841428283
1.494369284073394 13.06758316034518 366.6097456374479 57.43669546493783 0.4046733982584764
1.5205805210048124 13.060443038982822 328.90800359074325 60.10143266966176 0.411648082492038
1.5465632045737556 13.051958538325179 295.3535468364167 62.89814543626308 0.41883601629035866
1.5722788629819846 13.042082916788118 265.5248496195262 65.83445709356602 0.4262485662430191
1.5977030254160116 13.030757879185796 238.97857204628454 68.91855883598093 0.43389799888787695
1.622790160012251 13.01794183580319 215.29010324418155 72.1592616605021 0.44179755520027175
1.6475419786349108 13.003607404439997 194.14801557417746 75.56605337590524 0.449961531739795
1.6718914460419052 12.987678266747112 175.27121453243458 79.14890663968859 0.45840430605858423
1.6958290105697353 12.970135568045873 158.40131862390896 82.91793301634077 0.4671388227732454
1.7192936947926036 12.95089642182566 143.31922604429516 86.88590231687743 0.476186782344518
1.7422950586205097 12.92999555238327 129.81037592594865 91.06443843064032 0.4855627214293413
1.7647749383259401 12.907353919097407 117.70305138682038 95.46752540786935 0.49528815243693414
1.786703391192613 12.882925147142895 106.8481091838137 100.10893086672553 0.5053810023365846
1.8080395230395976 12.856677568143311 97.10266739604992 105.0051222863034 0.5158667581523794
1.8287541590088459 12.828547037482203 88.35109030999841 110.17263389268432 0.5267679473726385
1.8488341224985934 12.798590488895863 80.48273086170019 115.62903377266937 0.538107729559084
1.8682223233309863 12.766688721057625 73.39870203294205 121.39463313222724 0.5499158340212954
1.8868927393150354 12.73284818510095 67.02333807897602 127.49079105699184 0.5622218432170689
1.9048176545918993 12.697039911856209 61.272174482708735 133.93999795833884 0.5750552514417487
1.921961437620353 12.659232834352556 56.086899921135135 140.76779959629928 0.5884518919048899
1.9382775707345712 12.619354051066694 51.402241958459776 148.0019291328091 0.6024502560011701
1.9537770247946733 12.577519855541626 47.17375694434841 155.67095560922274 0.6170863752709438
1.9683959043698105 12.533601386269325 43.34996662039191 163.80843071204535 0.6324075500859828
1.9821132606231673 12.48761205375545 39.88892385075116 172.44803214266068 0.6484550541712937
1.9949060599193646 12.439546460001006 36.753553695235006 181.62919079788747 0.6652825684364068
2.0067452822820315 12.38939567515145 33.90964407145774 191.39381105928874 0.6829442195764374
2.0175960571338196 12.337133827840315 31.332062409454398 201.78790420743445 0.7014992111106572
2.0274364242457072 12.282758669119751 28.998288445021632 212.8614814754339 0.7210104712636064
2.0362500668616828 12.226304909368855 26.875896099061407 224.66982765088875 0.7415477241488921
2.0439996969652845 12.167722187469195 24.94737587110065 237.2742520158657 0.7631886425251808
2.0506627905479125 12.107029004615555 23.19307340300595 250.74149206929778 0.7860154721504575
2.056239491126134 12.044295469948851 21.5979974043287 265.14455228621733 0.810116140749223
2.0606935620717755 11.979456898965042 20.146705974055244 280.56535228574137 0.8355910131276284
2.0640046575720294 11.912573241772057 18.826571869058945 297.09333053708525 0.8625462079439199
2.066168695413841 11.843685778356923 17.622456523758448 314.82890874565 0.891102467598337
2.0668573751837847 11.775060276765222 16.576656786330776 334.30664210080016 1.3402666113996147
