M[M_sun], R[km], Lambda[1], P_c[MeV/fm^3], rho_c[fm^-3]
0.24162668629717493 15.618656898711224 2160425.4255784233 3.5677272577965504 0.1711233750220791
0.2536453350289653 15.277262545259376 1723185.5090012543 3.784845344995541 0.17388849387725006
0.26604252629339853 14.981211493213783 1382898.5806993432 4.011455595106238 0.17666731501707478
0.27881871364196703 14.72344562643571 1116381.5138125222 4.247813300437499 0.17945850108595268
0.2919753707872119 14.498322714201619 905792.567250547 4.494543992895018 0.18226862464467414
0.3055122403032071 14.301148144038851 738635.8294732961 4.751804495048145 0.18509341579022473
0.3194303644866575 14.128045706057 605038.6183004699 5.020275156417923 0.18793945070239057
0.33373054525968504 13.975839525524938 497583.7169996339 5.300182652530589 0.19080340355683933
0.34841376916224476 13.841919363783823 410935.2732941 5.592252660933298 0.19369151132064327
0.36347912556420336 13.723858858887217 340606.6059980872 5.896656199216174 0.19659890588008222
0.37893368750688394 13.619901299448859 283246.6392006735 6.214255865576731 0.19953323655685223
0.3947688015648622 13.528342399381508 236367.57497096458 6.545305746428965 0.20249062221478362
0.41099558629346244 13.447796770870816 197826.9560784458 6.890514978723522 0.20547488756906654
0.42760578348184597 13.376960597591669 166040.51609697836 7.25058583987537 0.20848905320367112
0.44460381263883053 13.314831503711293 139766.25786471568 7.625772655155739 0.21152859091801088
0.4619853920264158 13.260478695535936 117946.84885488094 8.01703380034555 0.21459980671574225
0.4797546546865328 13.213080722677601 99778.01403047332 8.425070245191456 0.21770427965051833
0.4979148402481356 13.171907628157888 84619.95654598088 8.850316700863372 0.22083938772537734
0.5164559215313103 13.136329711119037 71919.03075943267 9.293658880365781 0.22400871302193046
0.5353760105209506 13.105791977433142 61256.24786673698 9.755976177645932 0.22721509186384062
0.5546867778996726 13.079765642760707 52288.002585095994 10.238074838882088 0.23045982816062877
0.5743695435179659 13.057816990899475 44714.909659162084 10.74042810934493 0.2337396449037299
0.5944310438774291 13.039490381474861 37980.99363987309 11.264287827250309 0.23706081496511308
0.6148715500645395 13.02446995822104 32612.868020375943 11.810587182805685 0.2404248919648899
0.6356796773654741 13.012398334013929 28281.412998360218 12.38030565171861 0.24383350969783643
0.6568522712048661 13.003005792450832 24361.276171798516 12.974120098179327 0.2472844798339383
0.6783870003126548 12.995987494650224 21019.712190869315 13.593381892521231 0.25078286069083366
0.7002788378521836 12.99104582604115 18165.005475700862 14.23927770150602 0.25433115794711875
0.7225163974361032 12.988002940513223 15722.08901251753 14.912997827012166 0.25793135739706724
0.7451067857825435 12.986640654061091 13627.693890035638 15.615554839232608 0.26158318143719206
0.7680306051688922 12.986753537623809 11830.878654532224 16.348249630393376 0.2652888690172227
0.7912796087203874 12.988150840298234 10285.151698507683 17.11268255341877 0.2690529449135314
0.8148566618071378 12.990683121905084 8951.961918053385 17.910309462762434 0.2728778432976292
0.8387446436229157 12.994133702430794 7804.085290570939 18.74247069574457 0.27676441816818004
0.8629269353311392 12.99842903060443 6810.8203485139475 19.610561466133984 0.28071360055662536
0.8874126862864313 13.003384085820679 5952.385307566223 20.516644464543802 0.284731533213052
0.9121713421973322 13.008869154636644 5208.550004122583 21.462514887054134 0.2888212316075006
0.9371955171533498 13.01476223300083 4562.800572078065 22.44962494356796 0.2929823569041243
0.962482020615097 13.020974655117168 4002.379520180089 23.480065129299135 0.29721922641287696
0.9880058442196519 13.027355184062356 3515.022391575195 24.556228141396712 0.30153769019672744
1.0137523391085166 13.033812213541081 3090.542267534003 25.680018298822976 0.3059390932704015
1.039720282865283 13.04026973081332 2719.9843898155027 26.853474570251144 0.31042526629282696
1.0658738829920609 13.046604713916452 2396.8606981351436 28.079658413588945 0.31500466891831164
1.092209816627661 13.052729534053928 2114.5711728511737 29.360579149665625 0.3196774275148688
1.118710991219766 13.058566593928322 1867.3410348261993 30.699086247812218 0.3244488639682465
1.1453458693417642 13.064019754743882 1651.1303293723058 32.09848500358562 0.3293263926131143
1.1721123998196392 13.069030831740811 1461.2346145112922 33.56081843121848 0.33430836876713577
1.198970903250344 13.073488939756338 1294.674669661027 35.090582869053165 0.3394080429436497
1.2259202996053713 13.077345402721143 1148.356190031512 36.68974344358057 0.34462181662505104
1.2529190744643435 13.080509246977677 1019.5953211555658 38.363410488523044 0.3499644824422795
1.27996364600707 13.0829496962898 906.1315898302701 40.11389027558528 0.3554329917168486
1.3070168119105876 13.084551011604985 806.2636971129326 41.94653203238635 0.36104118570999344
1.3340501688685436 13.085239614175652 718.1129752362754 43.86495058788483 0.36679172411243816
1.361061105149463 13.085027140080099 640.2211672044091 45.87370649760178 0.3726916413861159
1.3880009986716921 13.083780693506478 571.4046217014259 47.978200678396625 0.37875126079225585
1.4148470839726053 13.08144946152799 510.50181061231166 50.18326915351285 0.3849766269737943
1.441579164949373 13.078007349241656 456.5723265672853 52.493987263371515 0.39137395085131704
1.4681745825788315 13.07340430421261 408.74499213186897 54.916848184756226 0.39795531105037285
1.4945862423733336 13.067527866444868 366.29030355283373 57.45804623679924 0.4047297760594315
1.5207982082191553 13.060376748309022 328.625338402717 60.12421424631455 0.41170712506749246
1.546782688949726 13.051880235225049 295.0922007642519 62.9224630268028 0.41889790649161646
1.5725002510004087 13.041989379903997 265.28186456445565 65.86042463794459 0.4263135012843995
1.5979140599192563 13.030647097172997 238.7515406516776 68.94629980946266 0.43396619158088956
1.623022199229392 13.01783307258665 215.0787398352682 72.18890996095215 0.44186923531295486
1.647764939589793 13.003470555156044 193.9552679281132 75.59775430340137 0.4500369474950497
1.6721129896401912 12.987525807375855 175.11844572601746 79.18265242527173 0.4584830345902728
1.6960497829345575 12.969962240108543 158.24978446550156 82.95405294475952 0.4672218262635534
1.7195292049613224 12.950738428092956 143.17791661793765 86.92458234749705 0.4762743735829343
1.7425105073816776 12.929790023634942 129.6873443968913 91.10569466285065 0.4856545013601361
1.7649925037757654 12.907123369556532 117.58815071925855 95.51175533051105 0.49538520276327186
1.786903189790405 12.882643174062691 106.74939558588663 100.15617299368435 0.50548294879702
1.808253824569447 12.856402197025353 97.01756858727526 105.05562162201792 0.5159739935976199
1.828957094466479 12.828248248250341 88.26723097063595 110.22665767945783 0.5268808967400354
1.8490380728832907 12.798267561957132 80.41045012004095 115.68709450457084 0.5382276629959741
1.8684109951615158 12.766314373152783 73.33231823874736 121.45683645707183 0.5500424571957035
1.8870847298941644 12.732480545404144 66.95777634248631 127.55732611642813 0.5623551278919545
1.9050059564951893 12.696644865404657 61.211838766335674 134.01132202217136 0.5751960672896793
1.9221443210570772 12.658810123554124 56.03471926285453 140.84440733872398 0.5886011529195853
1.9384531513208905 12.618903825330952 51.35334767301517 148.08427938120766 0.6026086608011451
1.9539452953414307 12.577040708641862 47.130940091885044 155.75928102622828 0.6172537607776681
1.9685534238296685 12.533091334641828 43.309763461725844 163.90326661824147 0.6325847043468985
1.9822661413593212 12.487072466914563 39.8517102789811 172.55025187548839 0.6486437917314857
1.9950480610611876 12.438971221199305 36.720401587243515 181.73916495590734 0.665482887890118
2.00687944164112 12.388793209911144 33.880112969399235 191.51225390127075 0.6831571456939767
2.01771930086316 12.336499062194797 31.306913403205304 201.9156036505618 0.7017258650256968
2.027549335239796 12.282097881571568 28.97148463331503 212.99898554620174 0.7212510264088076
2.0363522390496067 12.2256056033534 26.85213066634472 224.81840927383982 0.7418045510213898
2.044088290036345 12.166990753648777 24.925104408966966 237.4346351379805 0.7634621104814311
2.050740354072986 12.106259653310786 23.1727046922847 250.9148413364995 0.7863071619807097
2.0563038508173124 12.04349018950328 21.57967177302719 265.33238264249826 0.810428516137776
2.0607411293335396 11.978618051364844 20.129317849542574 280.76861634406833 0.8359244134925798
2.0640379986484767 11.911697935095816 18.809430963677077 297.3138584344435 0.8629035026520748
2.0661865624206186 11.842770945849038 17.608433316269657 315.06847161757537 0.891485960637899
2.067172334199763 11.771862947321155 16.51308267975721 334.1416993601245 0.9217968062269324
