M[M_sun], R[km], Lambda[1], P_c[MeV/fm^3], rho_c[fm^-3]
0.24162668629717493 15.618656898711224 2160425.4255784233 3.5677272577965504 0.1711233750220791
0.25364346169506785 15.27730955384359 1723274.1717590645 3.7848099734202574 0.17388805298762797
0.2660376842192668 14.981323322088564 1382940.2516021598 4.0113812366886785 0.17666641643948192
0.278812677343262 14.723564325452136 1116466.1880807548 4.247697439200802 0.17945715727020617
0.2919667864176089 14.498474765547334 905905.0470573717 4.494383588225722 0.18226683850145353
0.30550136610952955 14.301266170866178 738694.6727692529 4.751594100089334 0.18509114312312477
0.3194173683749409 14.128188074196132 605139.6069593257 5.020013221008543 0.18793673302142047
0.33371537609631413 13.976025101227838 497728.49547544477 5.299862280196349 0.19080017793902737
0.34839478550203573 13.842078880121113 411039.51777859294 5.591873051436846 0.19368783849433815
0.3634545734460513 13.72407086186209 340681.33512578043 5.896208823598429 0.1965947040336056
0.3789095137691798 13.620037977956269 283326.37714317103 6.213735309476555 0.19952848971200898
0.39474029793835164 13.528506591870283 236424.56483619727 6.544712549971595 0.20248542068322165
0.410964061563166 13.447920986308457 197880.58305910425 6.889837689642259 0.20546911949103716
0.4275717406436543 13.37708570015623 166104.15831617956 7.24981810200814 0.2084827019050499
0.4445650256791066 13.314968920675932 139819.38816652962 7.624916590131796 0.2115217760899723
0.4619454126667341 13.260611031557806 117989.60629879845 8.016074475510678 0.2145923855625637
0.4797085242106373 13.21319981703607 99826.20692295312 8.424000179207782 0.2176962342502459
0.49786490708665576 13.172014449164235 84655.85581545297 8.849139838967435 0.22083086674241637
0.516401022382482 13.13643223901559 71947.82815816336 9.292356176175204 0.22399954190321467
0.5353182415240484 13.105876199152592 61285.8256416742 9.75453879769198 0.2272052507998263
0.5546242868041131 13.079828271287779 52310.090393869774 10.236497115262077 0.23044934408548026
0.5743048406946832 13.057875073256577 44738.5495674508 10.73870950849909 0.23372861095394368
0.5943599962053492 13.039540247263721 38335.4677379989 11.26240620471616 0.2370490585534693
0.6147955249541744 13.024538816692814 32906.79304949204 11.80853142183853 0.24041238950824814
0.6355962274648885 13.01245709805766 28297.616145043157 12.378063941984939 0.24382023636816186
0.6567662813671432 13.00303015216884 24375.87851777518 12.97170273403206 0.24727066317175936
0.6782960118845516 12.995989221181368 21032.091331576383 13.590754544660857 0.2507682323218557
0.70018390220028 12.991069550468579 18040.167909603348 14.236426281204572 0.2543156888528198
0.7224153760575946 12.987995702957408 15733.2953137163 14.909907340259316 0.25791501682863716
0.745002172181094 12.986654215377666 13540.880904914502 15.612239484155523 0.26156623554119995
0.7679201273541559 12.986755665423331 11838.152371526314 16.344664507127654 0.26527099807692306
0.791164073786258 12.988129534056744 10291.493698861881 17.1088096672521 0.26903411237957214
0.8147367591443254 12.990657027592801 8958.640667127582 17.906129625883683 0.2728580102705122
0.8386177702767742 12.994119712008267 7809.513627617086 18.738002448032955 0.2767438888818786
0.8627957991783423 12.998398022505901 6816.229757469903 19.60574670537842 0.28069199976162584
0.8872665442454036 13.003342429032989 5956.5991090274865 20.511460015167923 0.2847088141520253
0.9120283701629365 13.008834748464977 5212.519127144269 21.456935986378312 0.2887973443703838
0.937047006243732 13.01472353413138 4566.577574989041 22.44367483228894 0.29295764352935083
0.9623233177600701 13.020928811002786 4005.6901469017853 23.473669132169263 0.2971932503680967
0.9878462978951743 13.027321112011428 3517.5228067750418 24.549356150108846 0.30151039103762817
1.013586853283876 13.033787312809483 3092.975820111534 25.67269691528791 0.3059108386413208
1.0395483724785037 13.040234696681962 2722.26894129228 26.845614282130263 0.3103955715397048
1.0656982319135366 13.046556250787344 2398.9929460450057 28.071222423540164 0.3149734605228716
1.0920274514080992 13.052689871880522 2116.273592708756 29.351597358036198 0.319645098579851
1.118524176330743 13.058528804060442 1869.1640349886968 30.689451412534698 0.32441487646248335
1.1451535880701285 13.063981421295509 1652.5491784677954 32.08822857266677 0.32929115252669494
1.1719144136250081 13.068998553702889 1462.5615251136041 33.5498200881352 0.33427130321696846
1.198768195644542 13.073459623492603 1295.7790128321483 35.07879069898307 0.3393690494340924
1.2257125252937942 13.077320942012511 1149.4130454750727 36.677191668738125 0.3445813265423823
1.2527065055234017 13.08048513670886 1020.4901780470027 38.35002627528744 0.34992227735104336
1.2797463580793258 13.082931682028509 906.986551246238 40.09956551636709 0.35538867569742044
1.306788403582353 13.08451798866963 807.0101942571158 41.93127910282485 0.36099507379312035
1.3338244343922294 13.085235554238135 718.7741243914057 43.848598462360926 0.3667431171386845
1.360832095310813 13.085037488199566 640.8218631470854 45.85628944180408 0.3726409949537844
1.3877617690609254 13.083779713666864 571.9907729706968 47.959644292534804 0.37869844332796143
1.4146169594008282 13.081492449182466 510.98025599283034 50.16336994227121 0.3849208671909568
1.441340040358061 13.078045923705446 457.03548948113536 52.4727768187049 0.39131571491712935
1.4679322998419897 13.073450557558314 409.1466779316755 54.89423258072285 0.3978944339116427
1.4943414331038585 13.067588809224707 366.65223006338505 57.43392393891682 0.4046660799028044
1.5205521498047156 13.060451558123335 328.9476622931158 60.09847543030524 0.41164041827149234
1.5465346432609794 13.051968794267406 295.388070964042 62.89498882935622 0.41882798247481934
1.5722506196588462 13.042094050297438 265.5587071889277 65.83108633193063 0.42624013723860166
1.5976741322170531 13.030772826533903 239.00304176990176 68.91495789509901 0.43388914707680837
1.6227611976521612 13.01795878244453 215.30850695282635 72.15541316339316 0.44178825076452866
1.6475137837868028 13.003625638353327 194.1736458036453 75.56193846602795 0.4499517424667134
1.671861668618649 12.987700315782922 175.29194793103323 79.14452632472376 0.45839408683388533
1.6957996534762303 12.970158280546466 158.4190749793827 82.91324456379193 0.46712804872294317
1.7192648664945227 12.950918764778438 143.3325246198723 86.8808815943308 0.4761754128781924
1.7422667289536988 12.93002499199294 129.82678285349735 91.05908334816371 0.48555080834196584
1.7647473135984728 12.907384332642119 117.72020605346864 95.46178438360053 0.49527555534777995
1.7866751722769239 12.882956542113352 106.85978259805056 100.10279890196364 0.5053677698226562
1.808014597034894 12.856710741338752 97.1180193708436 104.99856758691539 0.5158528392344897
1.8287266669803444 12.828586284827084 88.36247405260838 110.1656217791504 0.5267532869085157
1.8488085954841453 12.798630465375556 80.49127975723854 115.62149774209315 0.5380921627203978
1.8681955713801257 12.766732462825804 73.40566040946003 121.38655947437395 0.5498993990125717
1.886868371775391 12.732895921519408 67.03333470997057 127.48213444820433 0.5622044694723046
1.904793056798401 12.697091868998314 61.28075343535679 133.9307406202428 0.5750369745819691
1.9219381205539052 12.659288630603285 56.09377385026716 140.7578565615941 0.5884325190921392
1.9382546663801585 12.61941210043274 51.41102231608232 147.99124086494552 0.6024296965861601
1.953755002925544 12.577583919944221 47.179280764417946 155.65949191645657 0.6170646504256201
1.9683743484822454 12.533668071727579 43.35445339143526 163.79612213291236 0.632384557557871
1.9820944527690738 12.487682451077498 39.89397683487665 172.43476536061038 0.6484305585087978
1.9948884463748644 12.439620287384031 36.75911437333243 181.61491772467838 0.665256569835649
2.0067219441607027 12.389459822064591 33.91718552341426 191.37843901919393 0.682916585075599
2.0175808133813704 12.337215871080794 31.33904164228411 201.7713309690625 0.7014697952473621
2.0274212930705686 12.282845845908668 29.002053397912892 212.84363593011292 0.7209792515497324
2.0362370316798235 12.226395236203064 26.879368246411076 224.65054464572972 0.7415143930154114
2.0439881507516287 12.167817280360733 24.951469296368547 237.25343761962108 0.7631531520675408
2.0506529001442972 12.107129412497043 23.195479078311934 250.71895073882936 0.7859774725625054
2.0562266662478588 12.044377027595237 21.60012865898019 265.1201612810129 0.8100755526994753
2.0606859339938173 11.979566002277611 20.148761734974347 280.53897371902247 0.8355477461386518
2.0639984429998983 11.912686518317765 18.827635273623834 297.06471190379784 0.8624998406300757
2.0661659731444915 11.843803606413529 17.62467587543911 314.79782027136974 0.8910527010656466
2.067167658556172 11.772927940097375 16.528811605102856 333.84775790438556 0.9213325491774705
