M[M_sun], R[km], Lambda[1], P_c[MeV/fm^3], rho_c[fm^-3]
0.24162668629717493 15.618656898711224 2160425.4255784233 3.5677272577965504 0.1711233750220791
0.2536418088014724 15.277385800819156 1723125.003649903 3.7847996098167447 0.17388792381030974
0.26603796592204754 14.981289466034742 1383034.2813857612 4.011359450422592 0.17666615316531362
0.2788117474218041 14.723578070272524 1116550.1822703532 4.247663493308574 0.1794567635490117
0.29196463779344756 14.498490689000034 905943.8141476058 4.494336592044484 0.1822663151880682
0.3054983999276535 14.301295247159915 738737.1689534356 4.751532458001569 0.18509047727093123
0.31941329514693406 14.12823408290138 605202.9262416181 5.019936479053031 0.18793593679401235
0.3337106054953293 13.976009415073785 497746.3628126193 5.299768418112759 0.19079923290359097
0.34838924118856496 13.84212536902446 411067.45546769985 5.591761834988202 0.19368676244460292
0.3634498533603395 13.724094485439242 340704.10451022565 5.896077754328505 0.19659347300328525
0.37890228265823356 13.620082585439121 283353.309810144 6.21358280143324 0.19952709902228558
0.3947315863717948 13.52854489858669 236451.7599473831 6.544538761610091 0.20248389679406784
0.41095479658549106 13.447957992001978 197905.62543118495 6.889639266227273 0.20546742963397
0.4275615900094224 13.377127755104192 166112.87262298647 7.2495931817709955 0.2084808411975701
0.4445544807639314 13.314993155895424 139840.24711362287 7.624665794832381 0.2115197795981281
0.4619325848800964 13.26064640899908 118011.40365756718 8.015793431000981 0.21459021145606647
0.47969511774001283 13.213228906042106 99846.79506761934 8.423686694203857 0.21769387728126038
0.49784961784406584 13.172053549677559 84666.94697372447 8.848795069421934 0.22082837046359824
0.5163853433188971 13.136461065147667 71956.36039173325 9.291974543069669 0.22399685518235965
0.5353015860914325 13.105894960134531 61293.794719511 9.754117713767977 0.2272023678363899
0.5546056648591602 13.079858150079346 52315.90256811377 10.236033836062395 0.23044625882673617
0.574285433078349 13.057881154497132 44743.47122934675 10.738206047012925 0.23372537857524964
0.5943394495281783 13.039589475908018 38340.77196764351 11.261854990231981 0.23704561455539722
0.6147743524738115 13.024525068727458 32914.27703045857 11.80792919845008 0.24040872698525884
0.6355721116812462 13.012468724242494 28304.18661345689 12.37740725067553 0.2438163480501904
0.6567407000394826 13.003056219000625 24380.186061440138 12.97099459040536 0.2472666157131771
0.6782705122477235 12.995999028785528 21035.98994603288 13.589984893808815 0.25076394711211336
0.7001557210543922 12.991076601606675 18179.82092255331 14.235590996910783 0.2543111573947599
0.7223859302084115 12.987995269850012 15735.153256874972 14.909002031212186 0.25791023011844616
0.7449707673458116 12.986656231600215 13639.871217642345 15.611268309244448 0.2615612715392603
0.7678876771564098 12.986765403616541 11840.480350825717 16.34361431588111 0.2652657631369561
0.7911290485928333 12.988131795212306 10292.96038866441 17.10767518966563 0.2690285957992355
0.8147011457394957 12.990652636108345 8960.32045308665 17.904905242586615 0.2728522006593152
0.8385783865405955 12.994124398066566 7810.194049802615 18.736693589373846 0.2767378753535617
0.8627574448174234 12.998388381591123 6817.6756029306525 19.60433635480357 0.2806856724080581
0.8872290324971904 13.003323513052244 5958.481393454304 20.50994138561103 0.2847021592818398
0.9119866069734173 13.00882584487166 5213.699788627952 21.45530182604954 0.28879034736908754
0.9370028116110238 13.014716821369635 4567.486082314975 22.441931948038746 0.2929504045804234
0.9622784594499636 13.0209189912081 4006.6111887797524 23.471795654553382 0.29718564161883415
0.9877994585473563 13.0273064854309 3518.282205297546 24.547343262089576 0.3015023947890904
1.0135393201052165 13.03375946758567 3093.675417057629 25.670552407858544 0.30590256257414206
1.0394980216549305 13.040221845217152 2722.911234918208 26.84331194147356 0.3103868737112852
1.0656486907395764 13.046560344052896 2399.429953599471 28.068751474065053 0.314964319406312
1.0919741040782343 13.052680097497136 2116.862062679091 29.348966556421487 0.31963562930935846
1.1184697410247468 13.05851322201645 1869.5992360679238 30.68662935380592 0.3244049214674527
1.1450968226547449 13.063967788807057 1652.9764580310396 32.085224466518405 0.3292808307138617
1.1718569884924557 13.068986478775615 1462.9524401698743 33.54659870161569 0.3342604468122589
1.1987089037505623 13.073442211372669 1296.1596617045254 35.07533683027709 0.33935762842662764
1.225652309926046 13.077312732765966 1149.6883388704073 36.673515339594786 0.3445694672736494
1.2526443989109655 13.08048492767165 1020.7657953973214 38.346085193814766 0.3499097928689089
1.2796835153114738 13.08292488086882 907.2473818276799 40.09536995497147 0.35537569603210883
1.3067240341492852 13.084521039581162 807.2127631572877 41.926811721346255 0.3609815682221052
1.333759740005988 13.08523329581364 718.9751354452743 43.843809181869524 0.3667288809202306
1.360765119059034 13.085036594683126 641.0122781418494 45.85118829612954 0.3726261615151011
1.387693955021341 13.083786122528496 572.1604695911195 47.95420949658913 0.37868297414430974
1.4145481361152914 13.081500548783545 511.14424853112695 50.15754191164245 0.3849045364068728
1.4412688045816746 13.078056191989681 457.1331297785363 52.466564803918935 0.3912986590519679
1.46786313711607 13.073466870495396 409.2695682893721 54.88760908017201 0.39787660463937047
1.4942690480469187 13.067606690221016 366.7611694987359 57.426859223548455 0.404647425161916
1.520479968774276 13.060471789396907 329.0461221602154 60.09093734421448 0.4116208819582872
1.5464628897134765 13.051995220836732 295.4860018804864 62.88694257048439 0.4188075041062846
1.5721773860506254 13.04212500006304 265.6333269261554 65.8224942106522 0.42621865158163597
1.5976001351125708 13.030808175664918 239.07495763612926 68.90577906821471 0.43386658374014864
1.6226816944312996 13.017971976677723 215.37755725802668 72.1456033407373 0.44176453374929675
1.647439393900071 13.003672558392187 194.2270959120792 75.5514495865543 0.4499267896710143
1.6717880306809334 12.987751264726052 175.35039219473165 79.13336095621246 0.45836803815688854
1.695726526289096 12.970214201482229 158.46072873496263 82.90129379178195 0.46710058588367054
1.7191896462393326 12.950978156315232 143.38606165522896 86.86808391155164 0.47614643242327725
1.7421949812515583 12.930096019506312 129.87092973556946 91.04543342722087 0.4855204422922233
1.7646755357521335 12.907461269432687 117.7586388156195 95.44715075700731 0.4952434459035044
1.7866041380373818 12.88304048099285 106.8930968687364 100.08716882864263 0.505334040802521
1.8079446227045277 12.856800763948074 97.15282908706712 104.98186003259778 0.5158173607078759
1.8286577781153213 12.828685056655354 88.39207249415124 110.14769801966793 0.5267157309899011
1.8487399170375305 12.79873519843504 80.51892867380393 115.60228895631346 0.5380524839974193
1.868130221185046 12.766849135664444 73.42991626700169 121.36598038211464 0.5498575075221277
1.8868040640877675 12.733019063952066 67.05533348404754 127.4600695346172 0.5621601853667944
1.9047309588114485 12.697222204446765 61.299836380430484 133.9071445724191 0.5749903886570573
1.9218777408082313 12.659429568104041 56.11167946949837 140.7325128296353 0.5883831398645493
1.9381958816140838 12.619559303448513 51.427246900165244 147.96399771250807 0.6023772930270153
1.9536996534171223 12.577749054595747 47.198187024355896 155.63027239413523 0.6170092765059056
1.968321683664101 12.53383689659423 43.36806768510621 163.76471041097474 0.6323258213537075
1.9820460605893373 12.487863522815202 39.9048813836847 172.40095024236243 0.6483681225902215
1.994840964710639 12.439809176366312 36.77028851680224 181.57853785189874 0.6651903033929454
2.0066786844709106 12.389660040566724 33.92591114690352 191.3392582015027 0.6828461492497323
2.0175401026441437 12.33742625595516 31.349553098195333 201.72908866446627 0.7013948193235635
2.0273851983540783 12.283068614258152 29.010691294328414 212.79815091153114 0.7208996782310058
2.036203894281324 12.226627839204312 26.88747593224265 224.60139602045388 0.7414294384465594
2.0439580657153 12.168060612212372 24.95830647672976 237.20038599908509 0.7630626941811219
2.050627386783529 12.107383680828208 23.202499545797824 250.6614977872069 0.785880619872672
2.0562053332400088 12.044643569085672 21.606531517006957 265.0579941930156 0.8099721030532161
2.06067150719453 11.97984276524241 20.156098681632386 280.47174108954016 0.8354374689780434
2.063991350500299 11.9129895897966 18.832865979997543 296.99177024226395 0.8623816620686225
2.0661590713765925 11.844103998957902 17.629435239197583 314.71858401535223 0.8909258594043347
2.067163626999888 11.773243235598258 16.533178868944084 333.7617045814406 0.9211966348277699
