M[M_sun], R[km], Lambda[1], P_c[MeV/fm^3], rho_c[fm^-3]
0.24162668629717493 15.618656898711224 2160425.4255784233 3.5677272577965504 0.1711233750220791
0.25364472342998373 15.277275930721467 1723247.7284706905 3.784833461036205 0.17388834574942993
0.26604068951958326 14.981261773313099 1383028.806231929 4.011430612438832 0.17666701311628294
0.27881665165409253 14.723498398988182 1116392.1303695147 4.247774373640162 0.17945804959376502
0.2919723963938065 14.498378975829494 905813.2108778639 4.494490100272174 0.18226802453781094
0.30550881541329433 14.301184943808648 738591.7071945339 4.751733806433764 0.1850926522182782
0.31942601815096533 14.128094697667695 605065.2916051294 5.02018715086483 0.1879385376108102
0.33372625373585757 13.97590268664335 497677.5750212276 5.300075012788235 0.19080231980324044
0.34840736471410216 13.841973949585721 410973.4948772356 5.592125118008681 0.19369027730776178
0.36347002419492114 13.723953598634075 340635.0658321576 5.896505887320279 0.1965974941189466
0.37892581434593786 13.619941770589099 283272.67730593577 6.214080965376215 0.19953164167761708
0.39475915488018115 13.528396088888574 236379.33272777783 6.545106439272967 0.20248887456027628
0.4109850114698979 13.447820701822632 197836.1645423356 6.890287416531026 0.2054729495539425
0.427593560830162 13.377025777976298 166067.2528418169 7.250327886818581 0.20848691922414
0.44458978947542 13.314893154594671 139790.38716130567 7.625485023967053 0.2115263011888027
0.4619732250680244 13.260529464218061 117962.44096469764 8.016711473436095 0.2145973132565075
0.4797391837638886 13.213116305085013 99807.7433830993 8.424710708612732 0.21770157643806923
0.49789703788782325 13.17195701997535 84630.28395845102 8.849921280098942 0.22083652471009257
0.5164368259963461 13.136373167369793 71924.92925478268 9.293221175469766 0.2240056315521748
0.5353572720099012 13.105814799930513 61266.232203803804 9.755493220276238 0.22721178528204347
0.5546651204741712 13.07978629676633 52296.39654681682 10.2375471826615 0.2304563371247278
0.5743494747177044 13.057828797652913 44722.69472108849 10.73985065821327 0.23373593748859264
0.5944073911536756 13.039502937616625 38321.629579475986 11.263655598382972 0.23705686478770896
0.6148463658797243 13.024505912591168 32896.60769452845 11.809896440540102 0.24042069109943712
0.6356517752554202 13.012419427613882 28286.677555845014 12.37955242730152 0.24382904980017137
0.656823862016585 13.00301634845358 24366.228119881966 12.973307850586254 0.2472798373597741
0.6783569300584499 12.995974585235837 21023.682324734305 13.592499086017845 0.25077794546074084
0.7002465508089364 12.991059404255068 18032.614738531556 14.238319601648143 0.2543259602086297
0.7224817041030763 12.987997300840462 15725.558295555498 14.911959395117666 0.25792586681620117
0.7450719564031085 12.986639201338487 13631.075051564052 15.614440846135942 0.26157748744342274
0.767994616353158 12.986757543734182 11833.944372809055 16.347044988013952 0.265282864177096
0.7912405083836348 12.98814364661744 10286.175661213341 17.111381214625414 0.26904661694364956
0.8148154857777512 12.990669559326985 8954.06712927657 17.908904979453425 0.27287117912475334
0.8387016237907281 12.994136004856713 7805.833199179053 18.74096929785144 0.27675752002170523
0.8628835939348243 12.998403642949706 6812.412117166924 19.608943628679803 0.28070634234028513
0.8873665565954406 13.00335832937386 5953.882427654767 20.514902399231897 0.2847238992127437
0.9121234838761911 13.00885959230287 5209.862519926998 21.460640272192833 0.28881320504952857
0.9371454891832167 13.014746612564874 4564.086661465013 22.447625588917628 0.29297405272316673
0.9624304809364354 13.020961560293967 4003.5607762728782 23.477915940060928 0.29721049791679427
0.9879521747228197 13.027347647853366 3515.6053322639764 24.553918999304962 0.3015285170713981
1.013697334534486 13.033801698698442 3091.146152112096 25.67755814331461 0.30592959905649547
1.039660984382634 13.040265837106327 2720.699011617546 26.850833319999044 0.31041528812498326
1.0658146945670444 13.046590355265817 2397.5821595656403 28.076823702224058 0.31499418208834595
1.0921498230630442 13.052714188776802 2115.1160410432453 29.35756102524736 0.31966656412010086
1.1186485090309983 13.058549183727905 1858.724275748719 30.695848670197705 0.32443744320342155
1.1452812403021464 13.0640111919389 1651.6256844461834 32.095038541066145 0.3293145509073603
1.1720459018582132 13.069017891823409 1461.6304803606624 33.557122649349274 0.3342959136011855
1.1989031140471706 13.073477413466073 1295.0563049053821 35.086620320556094 0.3393949398700192
1.2258502161945601 13.077337950201567 1148.7124226594947 36.685525629262806 0.34460821060896557
1.2528472804742037 13.080502550877748 1019.8512233011915 38.35892028801309 0.34995034323133367
1.2798915162043025 13.082943611051164 906.42116593727 40.109076642500014 0.35541809994421375
1.306936234378717 13.084519211524794 806.5510334408502 41.941406482730464 0.36102569039686633
1.333974571476771 13.085238493205955 718.3700396737594 43.85945564351572 0.3667753902959972
1.360984071354597 13.08503388088108 640.4106463211086 45.867853674320045 0.37267462217105857
1.3879158436218886 13.083769049686838 571.6131237080073 47.97196497179953 0.37873351195835064
1.41476655105776 13.081462320187319 510.6642638041093 50.17658217180687 0.3849578893141335
1.4414977104939322 13.078021307512563 456.7372066546111 52.48685962400242 0.3913543810241052
1.4680934949542064 13.073421833217218 408.89072562140024 54.909248320378104 0.39793485358227276
1.4944999295673096 13.067554140306191 366.391464581825 57.44994002272712 0.40470837118814984
1.5207152048979005 13.060402664667745 328.7164017003896 60.11556477152565 0.41168470838950527
1.5466998914665009 13.051909801717688 295.2063625326451 62.91323034208237 0.418874408574972
1.572416127387294 13.042027117111209 265.37702110001834 65.85056547863444 0.42628884724286026
1.5978299169955976 13.030687827352391 238.8355580844502 68.93576728995505 0.4339403006052212
1.622927900327701 13.017865010585702 215.16608146871363 72.17765323772498 0.44184202015467877
1.6476803297631977 13.003520782263735 194.03128656596056 75.58571820298783 0.4500083138974012
1.6720285026306463 12.987585814652965 175.1610794919837 79.16983989858673 0.45845314311210156
1.695965837785502 12.970026895996899 158.3129764677592 82.94033895401554 0.46719031155276536
1.7194460317286788 12.950810618322826 143.23047258460602 86.90989627884595 0.4762411168631228
1.7424219710450117 12.929834984537928 129.73408123583698 91.09003040399554 0.4856196541499899
1.7649093411895598 12.907210130979168 117.63834717925434 95.49496194205793 0.4953483543192243
1.786836568138509 12.882769193835324 106.78755485903275 100.13823585191398 0.5054442412232605
1.8081737404186153 12.856506337639061 97.05039730424434 105.03644769091699 0.5159332777147368
1.8288823188758196 12.82836466991379 88.29871692574899 110.20614547792347 0.5268380111830318
1.8489615800507209 12.798389051396656 80.43757236648018 115.66504941698818 0.5381821254522033
1.8683363594801685 12.766445140849454 73.36281602583493 121.43321836616454 0.549994379417681
1.8870129332430898 12.732618738884636 66.9820015196869 127.5320922071042 0.5623046242203059
1.90493508277169 12.696794808516037 61.23503169702416 133.9842406324289 0.5751426002176309
1.9220744860494232 12.65897031150534 56.05301441126501 140.8153196246516 0.5885444789910736
1.9383874578991491 12.619074959626168 51.37381056301428 148.05301110286712 0.6025485147120632
1.9538808009027886 12.577224920681891 47.148634805683436 155.72574383290157 0.6171902044391937
1.9684961152141731 12.533282851278242 43.32741864280031 163.86725722054075 0.6325174384927346
1.9822083755873179 12.487276765601147 39.86634833622508 172.5114386133968 0.6485721272867878
1.9949927517585795 12.439190610906477 36.7313309987221 181.69740709457366 0.6654068253666932
2.0068283694620175 12.389022445992381 33.890486239666544 191.46728019235618 0.6830762959180825
2.0176727985868146 12.336739657837013 31.31721763506699 201.8671148705188 0.7016398022241442
2.027507005098509 12.282347689924302 28.981707774501107 212.94677357817608 0.7211596846944894
2.0363126542454046 12.225870597176197 26.859904007529135 224.7619906930269 0.7417070301613188
2.0440539419883863 12.167268991885527 24.93411813179321 237.37373501435928 0.7633582701762762
2.0507108714710474 12.10655192756704 23.180503260599128 250.8490195471295 0.7861964089800934
2.0562803989545526 12.043794615250137 21.58726411308245 265.26113154182787 0.8103101354036709
2.0607233275370285 11.97893708051884 20.13650865597078 280.6914322001528 0.8357978135321062
2.0640251089519115 11.912033165925802 18.815950514050442 297.23011824920604 0.8627678285473304
2.066181554502114 11.843121776240958 17.613168400736125 314.9775027295896 0.891340337340437
2.0671709035423507 11.772219128946416 16.518433781119132 334.0429015989245 0.9216407630550265
