M[M_sun], R[km], Lambda[1], P_c[MeV/fm^3], rho_c[fm^-3]
0.24162668629717493 15.618656898711224 2160425.4255784233 3.5677272577965504 0.1711233750220791
0.2536419847648252 15.277379519072454 1723127.121429462 3.784803075354235 0.17388796700656273
0.266037875907245 14.98127438007412 1383015.3102222602 4.011366735632241 0.1766662412027728
0.2788114209075727 14.723597559321577 1116467.3621300024 4.247674844617303 0.17945689520708688
0.2919650761090764 14.49849167457409 905931.4560420564 4.494352307274768 0.18226649018080474
0.30550008204738804 14.301283690368152 738707.9455809703 4.751553070706331 0.1850906999274826
0.31941443816764165 14.128213922689024 605141.3100016346 5.019962141023329 0.1879362030468588
0.333711149754832 13.976055463620098 497734.46815523756 5.299799804895732 0.19079954891641543
0.3483912668475395 13.842103463045678 411062.0854068784 5.591799024900128 0.1936871222672314
0.36345186730883744 13.724073904863832 340706.7214749224 5.896121582817304 0.19659388464972716
0.37890437858077475 13.620075831796493 283347.38816801383 6.2136337988125 0.1995275640569796
0.3947346206315418 13.528539291254912 236439.6164372667 6.5445968748829575 0.20248440636896367
0.4109579943684996 13.447964706109245 197902.9364787099 6.889705617165666 0.20546799470640445
0.4275637976322907 13.377151311861752 166112.11333535798 7.249668392913937 0.2084814634000807
0.4445566531981034 13.31502289260582 139831.96353948582 7.624749658259453 0.2115204472049316
0.4619368963794477 13.260656452816127 118004.79094310547 8.015887409354795 0.21459093845461144
0.4797001723122188 13.213213290897261 99833.04174955536 8.423791520203979 0.21769466542623725
0.49785451096622596 13.172045079885496 84662.44533951991 8.848910356522163 0.2208292051914623
0.5163901517396097 13.136462741829757 71954.84154495786 9.29210215679402 0.22399775359093485
0.5353073690952745 13.105890190362585 61292.021730930705 9.754258519238409 0.22720333186517314
0.5546120128172521 13.079862860783678 52314.487622661916 10.236188750963409 0.23044729049954443
0.5742920293794325 13.057878415874775 44740.96027925624 10.738374398221483 0.23372645944215728
0.5943463485130244 13.039551444925921 38336.03458447945 11.262039309244841 0.23704676618392506
0.6147803509527466 13.024530511251617 32633.654261063548 11.808130573964782 0.24040995168437584
0.6355801805687921 13.012463966580516 28303.183879065018 12.37762683930346 0.2438176482507505
0.6567502313113749 13.003045380604329 24378.64471060327 12.971231383772073 0.24726796912695953
0.6782796641794192 12.995993535464086 21034.707548053164 13.590242254058296 0.2507653800250315
0.7001652959720279 12.991064511802282 18042.35095598749 14.235870303744871 0.2543126726479664
0.7223969422249532 12.987997961212397 15735.212789354197 14.909304752971945 0.25791183072250184
0.7449821079250344 12.986652609965299 13639.084564500119 15.61159305527103 0.2615629314255356
0.7678981871348813 12.986763427971342 11840.126049095823 16.343965483382387 0.26526751361887413
0.7911406622085884 12.988133911328998 10292.86106786529 17.1080545407884 0.26903044045528646
0.8147130596192848 12.99065831295731 8901.282570075982 17.90531465629385 0.27285414329808155
0.8385922121888785 12.994123495325592 7809.937954754724 18.737131249869453 0.2767398861770874
0.8627697410967303 12.998385181045528 6817.305376021474 19.60480795198789 0.2806877881672033
0.8872423099385949 13.003329852369081 5958.118991874666 20.51044918888381 0.28470438455451724
0.912000745721411 13.00883519433321 5213.364051309014 21.45584826019746 0.2887926870418687
0.9370169691851543 13.014716837127015 4567.234839505799 22.442514737010757 0.2929528251540234
0.9622927291035162 13.020918997675384 4006.384169914015 23.47242211088689 0.2971881858441428
0.9878149078758249 13.027310224460336 3517.961830674623 24.54801633393291 0.3015050685840018
1.01355469442589 13.033775966455803 3093.508509873912 25.671269490101842 0.30590532993262115
1.039514705593339 13.040221755708957 2722.6093393873134 26.844081799250734 0.31038978209533946
1.0656633352831952 13.046546222277575 2399.34189612092 28.069577710390153 0.31496737601375363
1.0919915453877036 13.05268390071735 2116.6350124061673 29.349846243301226 0.31963879564199504
1.1184878228063972 13.058516292420144 1869.430524785436 30.687572992093862 0.3244082502126597
1.1451160069660995 13.063968562329435 1652.842909655191 32.08622897675698 0.3292842821121012
1.1718759851113807 13.068986768688882 1462.8397821580472 33.54767586457698 0.3342640769624986
1.1987293886743662 13.073444722153017 1296.048995012065 35.07649172892719 0.33936144736336976
1.2256723703828114 13.077318024550463 1149.567773656331 36.67474462296775 0.34457343275152164
1.2526652684703745 13.080486795326868 1020.6857088201808 38.34740300289354 0.349913967399178
1.2797055843359024 13.082923143586386 907.1847531285965 40.09677285499137 0.3553800361360918
1.3067462637111278 13.084516317060109 807.1838490344843 41.92830551025765 0.3609860841722924
1.333781731550922 13.085228199586325 718.919506782249 43.84541060429106 0.3667336411758621
1.3607869475882544 13.085037119830163 640.9535204672861 45.85289399708876 0.37263112146178856
1.3877170222098147 13.083783967649016 572.1160238647965 47.956026760231026 0.37868814666326006
1.414571312526888 13.081499049197863 511.0975728769938 50.15949066077384 0.38490999701669554
1.4412926441148606 13.078053968271279 457.0987178484656 52.46864194549614 0.3913043621045012
1.4678852268117877 13.073459776074936 409.2328298704354 54.88982380968941 0.3978825662929209
1.4942929813540995 13.067599465298654 366.73131743562845 57.42922148125628 0.4046536628237542
1.5205040190763186 13.060464548957121 329.02058858720517 60.093457881789796 0.4116274143871987
1.5464862671631667 13.051985921367258 295.44718466980186 62.88963302435296 0.4188143515252807
1.5722014083564817 13.042114039139838 265.61022991315974 65.82536718270413 0.42622583580192097
1.5976248817386292 13.030795447516356 239.05220331602214 68.90884821474182 0.43387412829755473
1.6227058896719266 13.017956182263976 215.35190960772618 72.1488834705268 0.441772464054554
1.647464083471184 13.003655997782714 194.2110434461412 75.55495676918642 0.4499351331753818
1.6718126005963074 12.987734742690128 175.3307804444617 79.13709433322136 0.4583767480827377
1.6957509390097536 12.970195164278957 158.45368543530697 82.90528977939893 0.4671097686515761
1.7192159320442963 12.950959961189195 143.37183200727975 86.87236307508105 0.4761561226232829
1.742219072642463 12.930073216615803 129.8591352411272 91.04999754801926 0.48553059578100727
1.764701829252837 12.907433451783396 117.41640217609043 95.45204379176354 0.4952541823143211
1.7866274998973817 12.883012916402624 106.88502124505874 100.0923950375179 0.5053453187345412
1.8079682199181921 12.856770424873789 97.14143117176134 104.98744650974092 0.515829223603799
1.828682218082035 12.828651621402669 88.38201862961569 110.15369794862112 0.526728313791494
1.8487631077877067 12.798700365071195 80.51197138548781 115.6087117459683 0.538065751264512
1.8681517251976996 12.766810267166692 73.42601713147988 121.37286134691976 0.5498715146448786
1.8868256610448124 12.732978008011937 67.04894951681332 127.46744729707162 0.5621749924771722
1.9047512137434064 12.697178784396222 61.293571927385315 133.91503428322088 0.5750059653959135
1.9218979107077967 12.659383385041636 56.105664949018475 140.74098689191428 0.5883996505603917
1.9382164726698081 12.619512180369858 51.423123822199486 147.97310685906845 0.6023948149236324
1.953718663018092 12.577694417880323 47.19382603904078 155.64004235320286 0.6170277915563255
1.9666948536957456 12.535371274318189 43.662975680412956 164.08034368164854 0.9306935696289351
1.972517346356026 12.491671206004888 41.338327544772056 174.16682077186505 1.350452281282961
