M[M_sun], R[km], Lambda[1], P_c[MeV/fm^3], rho_c[fm^-3]
0.24162668629717493 15.618656898711224 2160425.4255784233 3.5677272577965504 0.1711233750220791
0.25364147036864865 15.277394834149733 1723099.1811273312 3.784794739486635 0.17388786310399446
0.26603793745959226 14.981266547052972 1383059.9634833825 4.011349212091422 0.17666602944112367
0.2788108128735497 14.723588855138143 1116490.6706043258 4.247647540674605 0.17945657852249777
0.2919629869708757 14.498525456128831 905980.492473519 4.494314506578124 0.1822660692612745
0.30549663785951325 14.301338628100261 738712.3406036693 4.751503489891603 0.18509016436005712
0.3194115489343246 14.128252190818534 605180.3412312847 5.019900414997498 0.18793556261551675
0.33370855529180976 13.976058694179406 497763.7157328859 5.299724308754621 0.19079878879554518
0.34838654117691054 13.84214504043464 411083.7038817382 5.591709570284247 0.19368625676921464
0.3634466980748987 13.72411156120038 340711.6870424822 5.8960161602128185 0.19659289449831602
0.37889895007474617 13.620104805914076 283366.265903766 6.213511132659482 0.19952644548936374
0.3947278380517625 13.528572950482545 236459.97331499122 6.544457092675289 0.20248318066783894
0.41095054392236 13.44800200553877 197919.58471715075 6.889546020696555 0.20546663551590144
0.4275564487471377 13.377150489631633 166134.67225621158 7.249487484798651 0.20847996679360573
0.4445486904892572 13.315036038799445 139841.27827426876 7.624547938633412 0.21151884138700303
0.46192657675909776 13.260667390221078 118009.54032539416 8.015661360121213 0.21458918978103672
0.47968894220682134 13.21325251131904 99836.95303642644 8.423539378967178 0.2176927696766235
0.4978426080669421 13.17207025483844 84672.20429661455 8.848633053067687 0.22082719739596923
0.516377743391057 13.136476977086062 71962.50751632715 9.29179520398589 0.22399559262402935
0.5352933088055344 13.105908410571894 61296.76440343872 9.753919836221735 0.22720101306196563
0.5545974541502741 13.079879278860613 52320.524909983156 10.2358161304581 0.2304448089923388
0.5742744204417823 13.057901213474226 44746.506049899894 10.737969459313344 0.23372385960893263
0.5943300384872546 13.039567186248815 38344.84321359438 11.261595962960508 0.23704399614831762
0.6147626224943212 13.024540022737987 32915.83924314096 11.80764620169806 0.2404070058928369
0.6355617506492057 13.012453430566687 28306.57792106243 12.377098659099966 0.24381452085657307
0.6567301648474834 13.003052386487381 24382.12819342361 12.97066182108779 0.24726471374021633
0.6782587685887761 12.995998609502584 21037.836897455796 13.589623222008239 0.2507619334204254
0.7001425605050037 12.99106489484197 18181.229846186263 14.235198483791864 0.25430902799193317
0.7223717912316675 12.988004717645728 15736.595246139545 14.908576613381985 0.2579079807740154
0.7449561318762075 12.986651036124927 13641.060463693793 15.610811940989791 0.2615589388874635
0.7678724478424608 12.986764053222702 11841.439431537567 16.343120817954254 0.2652633031735643
0.791111938650669 12.988130281124073 10294.018406405168 17.10714208581246 0.26902600349572164
0.8146843484141522 12.990651114771683 8961.310705601592 17.904329892401755 0.2728494706638276
0.8385625374689483 12.994118249406096 7811.315951739094 18.736078544560357 0.27673504954087647
0.8627391435938426 12.998388814662055 6818.370543689106 19.603673619594762 0.28068269913314137
0.8872100358195487 13.003322209524471 5958.745492668018 20.509227770955725 0.2846990321117725
0.9119667254774704 13.0088212931369 5214.250626926645 21.454533924546638 0.28878705943722643
0.9369818583049598 13.014706850417966 4568.036876891249 22.44111295814705 0.2929470029626754
0.9622562394166931 13.020911058288613 4007.029915932497 23.470915300362456 0.29718206623888604
0.9877765720791627 13.027309542413231 3518.7084634449297 24.54639740077033 0.3014986373310905
1.0135157646303259 13.033762839959614 3094.0477056792984 25.669544700258925 0.3058986736364416
1.0394752325165435 13.040217731514794 2723.2599096509757 26.84223007049954 0.31038278659755736
1.0656251896755105 13.046552102268814 2399.741085183031 28.067590376674563 0.3149600240021807
1.0919494656367523 13.052672292461137 2117.1660046003103 29.34773034716784 0.3196311797150817
1.1184442017723057 13.058506675451438 1869.8347085272526 30.685303276583937 0.3244002436441245
1.1450694446170626 13.063962880229862 1653.1370666592327 32.08381284870564 0.32927598053409585
1.1718295700531267 13.068977827032349 1463.1564298829628 33.54508498859458 0.33425534544330743
1.1986813081880352 13.073437284537317 1296.3171935122837 35.0737138794032 0.33935226176807065
1.225623753855269 13.07730694677082 1149.820614064873 36.67178785974722 0.3445638946910693
1.2526154924453115 13.080476956239085 1020.8838919500741 38.34423331387594 0.34990392651923513
1.2796541287664909 13.082926421433555 907.3644246326338 40.09339850155452 0.35536959701385684
1.306695008451243 13.084517456191737 807.3553552155403 41.924712547110495 0.360975222100367
1.3337276384661205 13.085237400343692 719.0679390133605 43.84155875717878 0.36672219149421575
1.3607334282986916 13.085035368310557 641.0968347735247 45.848791335437205 0.3726191914790103
1.3876618176088582 13.083786704566638 572.2450095127377 47.95165576419826 0.37867570539756257
1.414514705826979 13.08150482467523 511.2069210786624 50.15480341209213 0.3848968628293439
1.4412362797376084 13.078062051899549 457.1977895548741 52.463645883565086 0.3912906447903012
1.4678298954636408 13.073470212696972 409.3402822540518 54.884496817567275 0.39786822698816676
1.4942357708364322 13.067612738209561 366.81712420809095 57.423539650749525 0.404638659660803
1.5204463460489375 13.060481687050117 329.093099372068 60.0873953531016 0.4116117022478252
1.546427145901311 13.052007480152152 295.52761236345674 62.883161809735434 0.4187978817695947
1.572142473760202 13.042139142906072 265.6705133735347 65.81845697233028 0.4262085559702191
1.5975661063814448 13.030825389310227 239.11312973289188 68.90146616280195 0.4338559817821821
1.6226536166389685 13.018021686993817 215.4097388843121 72.14099395930431 0.44175338973849343
1.647404177857432 13.003693734534032 194.25268847759494 75.54652114859188 0.4499150650338974
1.6717540495466225 12.987774741470545 175.36799061988515 79.12811466785732 0.4583557986261775
1.6956923995460211 12.970243279459948 158.49395850642284 82.89567848226505 0.46708768191875516
1.7191561052638373 12.951011122007563 143.40394643949264 86.86207068331402 0.47613281541988367
1.7421618367292009 12.930128282573316 129.89499598657378 91.03901977697939 0.4855061742812158
1.7646408351676448 12.907497296354167 117.77038066763524 95.44027491890337 0.4952283587794043
1.7865719127206692 12.883078745379319 106.90941873911892 100.0798248162798 0.5053181927424529
1.8079123867535125 12.856842240426115 97.16755222978631 104.97400977453972 0.5158006906684348
1.8286258061375202 12.828729488439677 88.40086696774337 110.13926678553385 0.5266980493561484
1.848708989067184 12.798783798729506 80.53071210828976 115.59326352501306 0.5380338405707896
1.8680990064747895 12.766901941207715 73.44162360756644 121.35631113186611 0.5498378244720066
1.8867739794736254 12.73307679159598 67.0620166145213 127.44970219552475 0.5621393781999582
1.904701163550445 12.697284308384477 61.30739601228955 133.8960578551964 0.5749685000348647
1.921848274783733 12.659495299132807 56.120563656756254 140.72060499888522 0.588359938881929
1.9381687125937042 12.619630678732925 51.43399617079674 147.95119748235453 0.6023526711474637
1.9536735713590925 12.57782266047274 47.203481249446114 155.61654361269913 0.6169832590908139
1.968296963635349 12.533915261480052 43.375869885630316 163.74992677447906 0.6322981399696496
1.9820223215545867 12.487947829716868 39.9135117034978 172.3850623477561 0.6483387873299774
1.9948187650310547 12.439896729856356 36.7755164510264 181.5614449857645 0.6651591685002758
2.006657770674724 12.389751936839115 33.93200663591842 191.32084940400986 0.6828130555336991
2.017521009987907 12.33752513079191 31.35356830199975 201.70924153646047 0.701359592629111
2.027367272783911 12.283173376958638 29.014728486944595 212.77678031348233 0.7208622916482816
2.036187712186506 12.2267366554453 26.891430137556352 224.5783042265373 0.741389523731037
2.043944230353132 12.168174507190358 24.961269702465316 237.1754605477841 0.7630201939969629
2.0506156367411768 12.107502708672568 23.20583528295811 250.63450457492314 0.7858351154182777
2.056194969746631 12.044767915690088 21.61004657616224 265.0287862706044 0.8099234993733794
2.0606614889337336 11.979977148646178 20.15776692739324 280.44015337477964 0.8353856577738599
2.0639869548281626 11.913124596784138 18.835282529009053 296.9575004475583 0.8623261388606993
2.066156093816986 11.844245615607413 17.63179400909819 314.6813570659516 0.8908662663803216
2.0671617185735327 11.773389558588946 16.534792271371895 333.72127503834344 0.921132779593937
