M[M_sun], R[km], Lambda[1], P_c[MeV/fm^3], rho_c[fm^-3]
0.24162668629717493 15.618656898711224 2160425.4255784233 3.5677272577965504 0.1711233750220791
0.25364381860953766 15.277302771388978 1723145.527064111 3.7848170055943524 0.17388814064028563
0.26603964192573626 14.981274107521816 1383032.2697378325 4.0113960197045895 0.17666659508350485
0.27881453091783986 14.723525317130406 1116451.6712005201 4.247720473172928 0.17945742442957138
0.2919681611432569 14.498453762322141 905893.3987068478 4.494415477564286 0.18226719359663957
0.3055050270914905 14.30117787097008 738671.3559488537 4.751635927562855 0.18509159493966773
0.31942086262843206 14.12813849651754 605111.5106946401 5.020065294708078 0.18793727330615173
0.3337184674447354 13.975967516279564 497699.8162779038 5.299925971051448 0.19080081920025596
0.34839851306098407 13.842047654933818 411018.1549736992 5.59194851844637 0.19368856865841555
0.3634596422724206 13.724029045303833 340662.77647201385 5.89629776219783 0.19659553936375257
0.3789141886197139 13.620010511857226 279405.37379377364 6.213838795913093 0.1995294333837044
0.39474496560497135 13.528489380084512 236407.1844604457 6.544830476778522 0.20248645474200708
0.41097045536355625 13.447884944028605 197877.83828439505 6.889972333337979 0.20547026617325095
0.4275783773388351 13.377069402623121 166094.30061963416 7.249970726025959 0.20848396452443513
0.44457255517618055 13.314943892327356 139810.03384564005 7.625086772615229 0.2115231308519674
0.46195382540366287 13.26058469047991 117989.68318151812 8.016265184776929 0.21459386085291995
0.4797179268400233 13.21318644992912 99817.53422010475 8.424212902320576 0.21769783363067266
0.49787484465554543 13.17199479195428 84649.54926851101 8.849373791567881 0.22083256065920384
0.5164125180239807 13.136407423553234 71943.91560206693 9.292615144248167 0.2240013650545931
0.5353306037021376 13.105847915544906 61278.8026513656 9.754824537036761 0.22720720712263134
0.5546360720796409 13.079833611337332 52302.99898693327 10.236811488364527 0.23045143768770524
0.5743178194438419 13.057850523943452 44733.406865897705 10.739051149401096 0.23373080439436167
0.5943748455112134 13.03954460676461 38330.00038363067 11.262780251058846 0.23705139560178726
0.6148101947346725 13.024512054966404 32904.90382090416 11.80894008321544 0.2404148748512562
0.63561293183041 13.012446668013496 28294.613265366894 12.378509565836469 0.2438228749400534
0.6567832764789145 13.003046853387294 24373.08636825289 12.972183273989168 0.2472734097410995
0.6783153252919848 12.995976696849402 21029.491079847023 13.591276824289618 0.25077114023490155
0.7002024743702112 12.991067232276842 18174.06129843736 14.23699310076151 0.2543187638765798
0.722436429199921 12.988000833885495 15731.425702859016 14.910521679917851 0.2579182650739889
0.7450225504360628 12.986658123159724 13635.331446254007 15.61289852164886 0.26156960410370905
0.7679426166790054 12.986748144553081 11837.066432923513 16.34537716689708 0.2652745505071324
0.7911863938303367 12.98813598533976 10289.538526497106 17.109579525830252 0.2690378559411417
0.8147590488042108 12.990671950724195 8898.86967130431 17.90696049691625 0.2728619526941516
0.8386415492139643 12.99412400204796 7808.029885896601 18.738890646345098 0.2767479696935568
0.8628207327316337 12.998404777397688 6815.039417237046 19.60670377926653 0.2806962935485669
0.8872971718306419 13.00333813232111 5956.083846806645 20.51249057078985 0.28471333020655076
0.9120562905017207 13.008846115273183 5211.698618237246 21.45804494530177 0.2888020926113539
0.9370741512184613 13.014733655145193 4565.598563722688 22.444857575113204 0.2929625559696912
0.9623532530673181 13.020933001412278 4005.053041739787 23.474940500840596 0.2971984137740314
0.9878789127775532 13.027323076999535 3516.938317933543 24.550722128539473 0.30151581742147265
1.0136204242337405 13.033778721663378 3092.239498206592 25.67415221611943 0.30591645492750474
1.0395828256095145 13.040241850611844 2721.7648571817513 26.847176695880616 0.3104014740575105
1.0657330103328826 13.046562206945017 2398.6127039228754 28.072899263419618 0.3149796638827316
1.0920653763167554 13.05270203205355 2115.943581891241 29.353382681236354 0.31965152464717755
1.1185610455609285 13.058535320016173 1868.7773797226046 30.691366532916643 0.3244216321737273
1.1451914349005865 13.063986541885871 1652.3151268424185 32.09026723991776 0.3292981571865687
1.1719537152484294 13.069003098466462 1462.2587936776647 33.55200621427872 0.3342786706874712
1.198808473529227 13.073460751039194 1295.578528844963 35.081134601418434 0.3393768000840128
1.2257545378192563 13.077323470059405 1149.2256712977683 36.67968654593875 0.3445893746300328
1.2527487432566609 13.080495380267193 1020.320004213299 38.35270083043707 0.34993074975543664
1.2797893902680044 13.082933146908267 906.7590665599291 40.102412777755845 0.35539748417294864
1.3068340123548854 13.084522689432925 806.8706619218126 41.93431083916101 0.3610042391913706
1.3338702124251796 13.08523458906661 718.7040776945391 43.85184866227837 0.3667527784137188
1.3608781668647967 13.085035558832413 640.7038783721315 45.85975129540941 0.3726510615538114
1.3878076443437883 13.083775282474663 571.8692280808345 47.963332585476216 0.37870894140027955
1.4146644599561817 13.081488813001148 510.898052785047 50.167325115118935 0.38493195002114516
1.4413873589221091 13.078037418665042 456.9457209221157 52.476992593093 0.39132728985408494
1.467981395610858 13.07343978495494 409.0761629126332 54.898727622376754 0.3979065337553594
1.4943895214497562 13.067577958322218 366.5747895694646 57.43871842544814 0.40467873998877685
1.5206013692618479 13.060436186145923 328.8793930047254 60.10359118656962 0.4116536766789261
1.5465839565336406 13.051951683869321 295.33131344966046 62.90044947631551 0.4188418802554714
1.5723005023423071 13.042072626754798 265.50465365589287 65.83691745052555 0.42625471866847175
1.5977242818659707 13.030749083725906 238.95784568715553 68.92118720681762 0.4339044599331502
1.6228113231398162 13.01793236375053 215.27271092746815 72.16207072943027 0.4418043466309524
1.6475632862503726 13.003594658797452 194.1286037805096 75.56905690716331 0.4499686770694793
1.671912870469521 12.987662264427577 175.2594502870813 79.15210389764547 0.45841176522481863
1.695849520875468 12.970120796457262 158.386510794735 82.92135519350539 0.4671466869264027
1.7193298647911333 12.950912345233832 143.30099319350853 86.88956702869429 0.47619508111371067
1.742315821268056 12.929975781852121 129.794405617047 91.06834720255621 0.4855714170080869
1.7647957332525022 12.907331296233659 117.69638504199298 95.47171589222339 0.4952973472952966
1.7867228189878492 12.882902109400336 106.83461917453155 100.1134067122216 0.505390661016986
1.8080620081528123 12.856649613529617 97.0977288334893 105.00990670115628 0.5158769178673479
1.8287734922672334 12.828519914839429 88.34529885246758 110.17775219136522 0.526778648373673
1.8488538737213187 12.798559279565282 80.47736675217814 115.63453449962405 0.5381190921628175
1.8682407595238548 12.766656705445472 73.39125998077176 121.4005262952277 0.5499278303415611
1.8869106219127185 12.732812864109995 67.01834486403185 127.4971097404953 0.5622345247644427
1.904835559007856 12.697003240137693 61.265776437636205 133.9467551395999 0.5750685922156442
1.9219789019877012 12.65919234109434 56.081781416431284 140.77505729851674 0.5884660326687742
1.9382941170207029 12.61931122247461 51.39955392388683 148.00973081562125 0.6024652629262173
1.9537926265016397 12.577473590003759 47.16918763149254 155.6793233112918 0.6171022329039834
1.9684105111145385 12.533553952451918 43.345306174021 163.8174151379569 0.6324243330682514
1.9821278254194765 12.487560113276938 39.8852936981585 172.4577160104815 0.6484729343744127
1.9949187431453417 12.439492407780023 36.75051052760415 181.6396092103701 0.6653015457192033
2.00675838284156 12.389338809000972 33.90727723988736 191.40503166727436 0.6829643909979841
2.0176076252119857 12.337074200135955 31.331594493910234 201.80000163737617 0.7015206828554906
2.0274466857154603 12.282696190505863 28.996058326397918 212.87450763453853 0.7210332597496296
2.036259579785804 12.22623904928793 26.873323181706958 224.68390309790237 0.741572053894144
2.044007781272541 12.167653203988337 24.945954819342806 237.2894453183473 0.7632145485015924
2.050670729799109 12.106956089470282 23.191188197038503 250.75791873092146 0.7860431210058494
2.0562453086676458 12.044220140753408 21.596204659521632 265.1623563860152 0.810145767805683
2.060696035167392 11.979378663882354 20.144044790093268 280.5846072383068 0.8356225957313866
2.0640054651560935 11.912489709650636 18.82340963357191 297.114220669443 0.8625800537014566
2.0661698586597845 11.84360066736769 17.621285467728683 314.85160179172675 0.8911387947017272
2.0671672599078224 11.772719181340507 16.52530823496257 333.9061668567595 0.9214248014520711
