M[M_sun], R[km], Lambda[1], P_c[MeV/fm^3], rho_c[fm^-3]
0.24162668629717493 15.618656898711224 2160425.4255784233 3.5677272577965504 0.1711233750220791
0.25363602360501525 15.27746429148042 1723365.87754597 3.7846734164789146 0.17388635087123136
0.2660225886750681 14.98164909010754 1383485.9417357256 4.011094174810387 0.1766629474660951
0.2787894946204522 14.723989483081397 1116923.3474224617 4.247250168938137 0.17945196960918117
0.2919342169771255 14.498995799560086 906425.037188084 4.4937643814553105 0.1822599434903546
0.30546184168139034 14.30177481244671 739195.2783506053 4.750781941838738 0.18508237026399102
0.3193654065724296 14.128775722032875 605518.0831378165 5.019002137768251 0.18792624264256014
0.33365163685905846 13.976647940838967 498123.70485349785 5.298625664706788 0.19078772727296364
0.3483214192879573 13.842650152413693 411400.23876562633 5.590407825484488 0.1936736620301793
0.3633719869142548 13.724651066286564 341031.6787956852 5.894482082921814 0.19657848611975354
0.37881309440436906 13.620643913304997 283650.6083842336 6.211726171707242 0.1995101687947122
0.3946314121298941 13.529086662954594 236721.9872956747 6.542423110370374 0.20246534539080033
0.4108428238474952 13.448488608763697 198147.83080919285 6.887223769389869 0.20544685824927875
0.42743569731696773 13.377636557924053 166332.27827055845 7.246855188916694 0.20845819048437392
0.44441634751209236 13.315489943326428 140028.67223888528 7.621612881909678 0.21149547644824682
0.4617817649592405 13.261082594041188 118180.26990845217 8.012372372381215 0.21456374680183546
0.47953138949278407 13.2136277014031 99991.94694742658 8.419870832642546 0.21766518733679596
0.49767168771880876 13.17242520580117 84801.98313126928 8.844598481499894 0.2207979853739786
0.5161915369321809 13.13678934110357 72085.81939902193 9.287329347232019 0.2239641527140684
0.5350942273414734 13.106213667592083 61402.42680046475 9.748992438036653 0.22716727748576673
0.5543837759287096 13.080147907439558 52409.82308907134 10.230395097141264 0.23040870702520064
0.574044885617905 13.058130109607603 44826.938426637265 10.732078348650505 0.23368603685363953
0.5940882339273387 13.039778087095726 38414.99558266891 11.255146227336878 0.23700369808342484
0.6145020256198868 13.024714904634477 32976.29214188505 11.800599769350056 0.24036415182744825
0.6352841206021835 13.012602629591356 28361.78145358942 12.369415084348521 0.24376902584032573
0.6564331010432897 13.003137621162528 24432.08849713102 12.962376386125385 0.24721735759157373
0.677948446500584 12.99608171837981 21082.831879017638 13.58061833757639 0.25071179663646176
0.6998160054130916 12.991138992142044 18220.202230338713 14.225425906291177 0.25425601128204117
0.7220288400281862 12.988044553272513 15772.093863820035 14.897985001101699 0.25785197892735107
0.7445941494881579 12.986662555037055 13671.45927364395 15.599449942414596 0.26150086388745863
0.7674925364800582 12.986740942492439 11870.070138585112 16.330834660561557 0.26520205976043637
0.7907160716633753 12.9880956803701 10318.886077893298 17.093870159064615 0.2689614666101983
0.8142683144995536 12.99059118521275 8983.643127281428 17.890006503185745 0.272781507206169
0.8381282635347796 12.994047024565475 7831.820385951487 18.72076720268598 0.2766647018472647
0.8622858065698228 12.998298227052452 6835.58128308959 19.587175369808374 0.2806086818912515
0.8867365401954903 13.003225055462929 5974.145979039478 20.491463275263275 0.2846211853372196
0.9114744192784312 13.008709146332873 5227.900514450897 21.435418414925717 0.2887052123606325
0.9364721518687684 13.014593274238376 4580.371030579716 22.4207260296249 0.29286232726815126
0.9617273002469464 13.020779680577379 4017.7564315430236 23.44900129086489 0.2970930669350298
0.9872285006832061 13.027170781433107 3528.5076033314444 24.52285325391169 0.3014051076125524
1.0129484623077503 13.033622581528812 3102.6282165738476 25.64446150794579 0.30580187276655507
1.0388890116701208 13.04006740057013 2731.019054760188 26.815301413190966 0.31028105497927666
1.0650204631721096 13.046402481949768 2406.6872159628147 28.03869031627781 0.31485311011206374
1.091327088461152 13.052520989782947 2123.464743318522 29.316961254081942 0.3195204298722919
1.1178034460034425 13.058370136528799 1875.4443701827802 30.65229808742274 0.32428381570067544
1.1444159261365285 13.063842310309143 1658.1198229162735 32.04846512335301 0.3291538796349008
1.1711529588729621 13.0688613704255 1467.573286817141 33.507411145930476 0.33412838070919365
1.1979877645424473 13.073332577149008 1300.450488278901 35.03332217848432 0.3392186973633468
1.224913732093725 13.077223176247486 1153.4459662313307 36.628795437174276 0.34442520779093294
1.2518949628531775 13.080412102059904 1024.1514611244384 38.29814594498902 0.34975793183795717
1.2789121766850164 13.08287201210583 910.286044505862 40.044336243170825 0.3552178147770592
1.3059377618200432 13.084486482683486 809.9444945737072 41.872472771818906 0.36081729334536927
1.3329573639889818 13.085226284375988 721.49521316636 43.785556303253834 0.3665557232388144
1.3599488768380041 13.085059846127212 643.2297946676733 45.78914345715527 0.3724457435515182
1.3868653963943147 13.08384052576822 574.1544232471934 47.88810791869081 0.37849482771555754
1.413698438182476 13.081572485198242 512.9553500083312 50.08665944548991 0.3847059159253041
1.4404248360882153 13.078202301746957 458.76765022712135 52.391013883176484 0.391091224530093
1.4669943741498939 13.073619918799867 410.7493872035945 54.807055481633036 0.39765976883935233
1.4933985349116192 13.06782141282929 368.08828532559045 57.34094166662334 0.404420555475222
1.5196007515216694 13.060734001512657 330.23143202968515 59.99926506991961 0.41138329668249046
1.545576645652092 13.052308126983748 296.56934967885906 62.789092679009784 0.4185584683530704
1.571287691219601 13.04249211776385 266.6527818955854 65.71800873064102 0.42595737277647594
1.596705428254308 13.031232852326387 239.94273425162797 68.79416172761665 0.43359220666944837
1.621793425132189 13.018475976944103 216.16975294354987 72.0263160053998 0.4414761351055678
1.6465330043389699 13.004216218481998 194.9525548252043 75.42390832851751 0.4496233720406577
1.67089761935344 12.988370414092325 176.01254767036463 78.99711005732317 0.45804926821316216
1.6948285826160225 12.970904215523484 159.07075993051558 82.75598378540899 0.46676666391223687
1.7183190773669834 12.951784654428925 143.9244791118989 86.71248074117314 0.4757940678005864
1.741320166689589 12.930957347589363 130.36649655938382 90.87947229345478 0.48515123985769115
1.763805434281907 12.90839712473023 118.21491489635034 95.26923470988433 0.4948530583693937
1.7857377426738894 12.884052374804172 107.30884089300734 99.89714300731727 0.5049239733241377
1.8070779580175629 12.857872106539924 97.52777938247091 104.77869853980869 0.5153858780209262
1.8278286305299019 12.829902450556604 88.72938769940087 109.92955205327101 0.526258244337163
1.8479069831541028 12.79999438196282 80.83263886147444 115.36877506860317 0.5375701248848576
1.8673272242396672 12.76823493931437 73.71749203438777 121.1158157610946 0.5493482640288371
1.8860198710853964 12.734504497349509 67.31143340403462 127.19185126726711 0.5616218734443738
1.9039571915129923 12.698782014280402 61.535777264607304 133.61996328177102 0.5744228450060697
1.9211253446127938 12.661090389646422 56.329384953687004 140.4244566351216 0.5877829292497865
1.9374934536275814 12.621407615924106 51.62780658877656 147.63286522014354 0.6017403432030833
1.9530120938831326 12.57964590873054 47.376600198143834 155.2751289771736 0.6163362441804062
1.9676764188593026 12.535899411531522 43.53541358732151 163.38229190933555 0.6316097679376312
1.9814333482557933 12.490041201038057 40.057992047550975 171.9899796304756 0.6476093102899696
1.994276317349387 12.442141997639892 36.90820383732165 181.13641232467472 0.6643849656146893
2.0061408968767513 12.392083443327403 34.056947330927294 190.86311029748276 0.6819901724521403
2.017036116449618 12.33996270853058 31.469082841456142 201.215755470976 0.7004837035412624
2.0269285571628335 12.285742383687989 29.12035645112242 212.2446529981451 0.7199301758199456
2.035788042335818 12.229427994096534 26.985376058948457 224.0041828565021 0.7403971412750397
2.043598678324555 12.171019363853604 25.05026388139221 236.55517735751414 0.7619616288364016
2.0503191295672596 12.110484816684336 23.28633540572887 249.96343599217437 0.7847038454753685
2.0559443160357573 12.04786775416439 21.685278367178356 264.30268739251716 0.8087152286547865
2.0604615105981905 11.983206505411825 20.226586314993305 279.6535106086335 0.8340930809129435
2.0638409604619663 11.91657133936759 18.899610509070545 296.11272987687386 0.890784367941896
2.0655196119490493 11.849312805240029 17.74604536764997 314.0967726350393 1.093440422992676
