M[M_sun], R[km], Lambda[1], P_c[MeV/fm^3], rho_c[fm^-3]
0.24162668629717493 15.618656898711224 2160425.4255784233 3.5677272577965504 0.1711233750220791
0.2536447989808643 15.27727123240775 1723197.187617361 3.784834882764741 0.17388836347059028
0.26604092452575895 14.981259837870669 1383035.9607335962 4.01143360121559 0.17666704923388618
0.27881765261631075 14.723462531569108 1116496.188962222 4.2477790306003165 0.17945810360748493
0.29197284103426413 14.49834721647102 888613.9010972966 4.49449654763879 0.18226809633073457
0.30550897918430425 14.301175618737316 738577.2541830498 4.751742263148908 0.18509274356694164
0.31942783016303267 14.128052728558036 605058.903055965 5.02019767924458 0.1879386468468137
0.33372740651407484 13.975856378166363 497636.5175468052 5.300087890044004 0.19080244945583882
0.3484081322229978 13.841967444478978 410969.43569479394 5.592140376314129 0.1936904249360644
0.3634735341627549 13.723928906189505 340634.44220444956 5.896523869507351 0.196597663011453
0.3789264819812645 13.619949941464599 283271.6788179313 6.214101889086458 0.1995318324766607
0.39476006208667147 13.528393774059452 236385.4402837953 6.545130282804485 0.20248908363583668
0.41098629373480255 13.447814321807622 197836.0504061815 6.89031464022434 0.20547318140233872
0.42759546473666105 13.37702830695951 166060.81321041324 7.250358746174965 0.2084871745156868
0.4445912645959892 13.314908006395274 139782.0680490428 7.6255194337149295 0.21152657511252118
0.461974919644061 13.260521353592038 117963.64721663765 8.016750033819369 0.21459761155224685
0.47974105474813583 13.21312281186614 99793.10308195106 8.424753720364011 0.21770189982630953
0.49789876922894183 13.171961247704305 84630.28047724011 8.84996858464412 0.22083686721521134
0.516438592144411 13.136376236368754 71926.5979653985 9.293273538416749 0.224006000190586
0.535359444749653 13.10581631234871 61265.65451588273 9.755550996712747 0.22721218085011066
0.5546673182010564 13.079799612473314 52295.86916680731 10.237610749254243 0.23045676045343805
0.5743520518569636 13.057813952152909 44720.491052888254 10.739919738774015 0.23373638100719113
0.594410154206085 13.03949949106823 38320.654865633616 11.263731231887833 0.237057337347216
0.6148487932089934 13.024482659910307 32893.802065412165 11.809979073864097 0.24042119364791767
0.6356553465123749 13.012414804016656 28285.58798930269 12.379642535201963 0.24382958333573618
0.6568271868137825 13.003016012981355 24365.93718691768 12.97340501926893 0.24728039273611838
0.6783601118653128 12.995987791290744 21022.737061078704 13.59260469544752 0.2507785334657508
0.700250844625593 12.991044947197748 18168.356856097238 14.238434218173868 0.2543265820088756
0.7224862962590692 12.988005542902414 15725.361292561696 14.912083621481358 0.2579265236478135
0.7450762074616843 12.986644670699736 13630.736902967732 15.61457411161543 0.2615781686081554
0.7679987058943045 12.986755182559104 11833.634531566118 16.34718909750826 0.26528358252678125
0.7912457884878551 12.988147222094044 10286.126083898134 17.111536891505978 0.26904737394760314
0.8148223510096282 12.990671662453572 8954.15150810127 17.909072995055165 0.2728719763467699
0.8387051935039465 12.994137995478168 7805.585309343222 18.741148906914425 0.27675834523241744
0.8628895984634626 12.998401576353906 6812.415260042917 19.609137166841606 0.28070721062395904
0.8873720093341453 13.003359634815242 5953.627315470714 20.51511079813906 0.28472481244906767
0.9121238794245942 13.00887316162652 5209.42327787028 21.46086452729519 0.28881416524493553
0.9371506704132384 13.01474718865652 4563.840321042963 22.44786476597873 0.2929750461285118
0.9624367206335375 13.020966342644327 4003.4618890844695 23.478173040969292 0.2972115420799753
0.9879575412701287 13.027351556508975 3515.5154195370683 24.5541952344115 0.30152961442234144
1.0137027072192524 13.033809396328072 3090.9355839858576 25.677852443255745 0.3059307348166473
1.0396691425457567 13.040263841553498 2720.6211871341156 26.85114928313555 0.31041648177681763
1.0658223266451854 13.046588984600223 2397.5764448446066 28.07716280781669 0.31499543658738755
1.0921563416703404 13.052717566498215 2115.026179254892 29.357922071326346 0.3196678636643018
1.118655713441809 13.058548435640711 1867.845933486566 30.696235967891695 0.32443880942113335
1.1452900512037691 13.064002289196132 1651.5715132134658 32.09545082618163 0.3293159674784087
1.1720541255445018 13.069017801344307 1461.5829993017537 33.55756475863795 0.3342974035550717
1.1989112504468615 13.073480835836449 1294.9886566925084 35.08709434103251 0.3393965073272274
1.225859578666299 13.077340913841093 1148.6520900128178 36.68603018519671 0.34460983822830477
1.252855644053283 13.080497010762569 1019.7851407151257 38.35945742732229 0.34995203463152463
1.2799003493347043 13.082944002653798 906.4088926377284 40.10965247126852 0.3554198813660515
1.3069443630745263 13.08452380371803 806.5273040103675 41.942019623422354 0.36102754401406834
1.3339830127621786 13.085237142484656 718.3366647676693 43.86011297153458 0.3667773442148143
1.3609930788373759 13.085029796439857 640.385734553478 45.86855381216233 0.3726766580767974
1.3879258338043623 13.083766916361418 571.607741855183 47.97271091042482 0.3787356351404725
1.4147762382825115 13.081459947178994 510.64876181114624 50.1773820920172 0.3849601307787159
1.4415072030986293 13.078019381420328 456.7157078357453 52.487712255766006 0.3913567220314745
1.4681031296197633 13.07341765303437 408.8725281165167 54.910157439665774 0.39793730076789363
1.4945131964103007 13.067547140795769 366.39605388695685 57.45090971139896 0.404710931700495
1.5207247094629117 13.060400410914884 328.7267451921208 60.11659944472009 0.4116873899321871
1.546709847544242 13.051907013913398 295.1789659519244 62.914334778340404 0.4188772194530552
1.5724261503985937 13.042023101693259 265.36694427886374 65.85174485306025 0.4262917964137956
1.5978398307305703 13.030681673170891 238.81768457615155 68.93702721075672 0.43394339773490576
1.622937643941917 13.017860326673269 215.15680293799218 72.17899978651732 0.44184527567920134
1.6476901845801484 13.003515743495907 194.02164981908632 75.58715797928917 0.4500117390911018
1.6720385939497495 12.987579283355567 175.16386731419868 79.17137254948271 0.4584567187691072
1.695976136099968 12.970018288579727 158.30857219332836 82.94197943567723 0.467194081374846
1.7194560335147104 12.950801990792709 143.22448568794795 86.91165303759963 0.4762450950573581
1.7424316553811834 12.929827140819352 129.73927093345478 91.09190417102009 0.48562382259191067
1.7649197518553386 12.907200024002055 117.63403430225641 95.49697077151963 0.4953527621396131
1.78684586886451 12.882759162098408 106.78593140973217 100.14038149306589 0.5054488714237804
1.8081828523385244 12.856494547415132 97.04697152037284 105.03874127199181 0.5159381481389568
1.8288971955156228 12.828360075418324 88.30004573201211 110.20859913724586 0.5268431411319825
1.8489699286563102 12.798374831889191 80.43171640832404 115.6676864326028 0.538187572616499
1.8683453400204182 12.766429617911077 73.35567786192279 121.43604353661958 0.550000130429418
1.8870202787222492 12.732604433038832 66.97861906926903 127.5351106537165 0.5623106654022187
1.9049428740274947 12.696777206447928 61.23312190049491 133.98748006416386 0.5751489958617103
1.9220820417749518 12.658951680559726 56.05057763052763 140.818799040738 0.588551258216765
1.9383942638592342 12.619054163294571 51.3713118389007 148.0567513439605 0.6025557092518949
1.9538889252245095 12.577201878201993 47.145503187122074 155.72975546673405 0.6171978068868764
1.9685024674509544 12.533259056447026 43.32430566610547 163.8715645622691 0.6325254846428797
1.9822149846216426 12.487252586163224 39.862903782788656 172.51608133190328 0.6485806995588858
1.9950003780432937 12.439163351527757 36.73039134856043 181.70240202301454 0.6654159236981068
2.0068338374305514 12.388995509060273 33.888397229325115 191.47265977393062 0.6830859668563972
2.017678293711339 12.336711029844393 31.31674566446934 201.87291489429356 0.7016500966942193
2.027511881508767 12.282318329752757 28.980846372100746 212.95301893656224 0.7211706105753382
2.036317564745156 12.225838533268444 26.858782878710763 224.76873920595423 0.741718695126573
2.0440577150610286 12.167235759415586 24.932624026624907 237.3810195652233 0.7633706910046697
2.050713972136478 12.106516629113566 23.178956460336206 250.8568927766673 0.7862096566265673
2.0562832193658096 12.043758894114847 21.586362283348695 265.26966806426367 0.8103243406729655
2.060725217047152 11.978898397112825 20.135140475318682 280.700664467934 0.8358129566000589
2.064026369088591 11.911993950246273 18.81504535186446 297.2401346724099 0.8627840569476745
2.0661829397834115 11.843079715784304 17.612489394352952 314.98838375991267 0.8913577557298503
2.0671695550486433 11.77218065738061 16.51782361839436 334.0547190182964 0.9216594277249556
