M[M_sun], R[km], Lambda[1], P_c[MeV/fm^3], rho_c[fm^-3]
0.24162668629717493 15.618656898711224 2160425.4255784233 3.5677272577965504 0.1711233750220791
0.2536447273839144 15.2772583514913 1723199.8632036338 3.7848326811030555 0.1738883360279395
0.26604033672920857 14.981253506636135 1382937.0875757323 4.011428972853592 0.17666699330286292
0.2788166627873567 14.723491564010324 1116338.2840980843 4.247771818922728 0.17945801996289265
0.2919723031883788 14.498367020867594 905892.513775884 4.4944865633740765 0.18226798515362974
0.3055085981239214 14.301195317499282 738604.4638458719 4.751729167248547 0.18509260210622383
0.3194256803623636 14.128108443734329 605076.6925474914 5.020181375207884 0.1879384776861402
0.33372270509296686 13.975945681705909 497679.3864957087 5.300067948587965 0.19080224867846537
0.34840694536496664 13.84197748871759 410975.69690959476 5.592116747616031 0.19369019632191026
0.3634705744518417 13.723932470121518 340648.8328820746 5.896496022665904 0.19659740146802512
0.3789252379495536 13.61995087975034 283286.02499451896 6.214069487067565 0.199531537009263
0.39475791928927056 13.528405314707447 233276.24294340232 6.545093359216066 0.20248875986584755
0.4109843667630932 13.447856325434332 197839.9252297637 6.89027248219432 0.20547282236686415
0.4275925851457713 13.377028009430452 166057.84122688894 7.2503109580409255 0.20848677917670094
0.4445897551638701 13.314890082838001 139781.9459836669 7.625466147527296 0.21152615092020471
0.46197225200263187 13.260527036981097 117968.72277166975 8.01669032005554 0.21459714961800713
0.47973823442796737 13.213116714397652 99804.40926785441 8.42468711331771 0.21770139903443628
0.4978966617611391 13.171947526687385 84628.39243133068 8.849895329880248 0.22083633681942155
0.5164360517370121 13.136370274119425 71928.88138921093 9.293192450334717 0.22400542932543324
0.5353559869758179 13.105813977359517 61264.96215697294 9.755461525433642 0.227211568282374
0.5546640787313072 13.079781577784383 52298.29555532959 10.237512311482714 0.23045610489628038
0.5743480255592953 13.057830743573435 44321.40793595916 10.739812762209107 0.2337356941845072
0.5944063284476696 13.039500812584533 38321.64701288917 11.263614107598952 0.23705660555253957
0.6148447930508398 13.024496060276183 32895.80376855711 11.809851109833566 0.24042041541310877
0.6356501751902939 13.012418748758796 28287.251945633987 12.379502996234375 0.24382875711515486
0.6568219694538393 13.003016761041664 24366.547922134516 12.973254546156184 0.24727953269351033
0.6783551450091 12.99596903532638 21024.035155205347 13.592441151214445 0.25077762289527716
0.7002444311835794 12.99106153324226 18168.9888337893 14.23825672578909 0.2543256191040257
0.7224799198260365 12.988007365656426 15725.53307484371 14.911891247557021 0.25792550649435964
0.7450696368305733 12.986639240459626 13631.26345542635 15.614367739957078 0.26157711377312964
0.7679902692656453 12.986755497084426 11833.550440992482 16.346965933101345 0.26528247010818434
0.7912381452910491 12.988133626752902 10286.623111864103 17.111295814159575 0.26904620167010324
0.8148128452813879 12.990680325314422 8954.241736034222 17.908812810303882 0.27287074178872917
0.8386974583729854 12.994142404884517 7805.863673307095 18.740870768847458 0.27675706733191224
0.8628790884736084 12.998421451973208 6812.628116776875 19.608837458560284 0.28070586602191683
0.887363483542414 13.003364576856711 5953.8764407023145 20.514788076924997 0.28472339823466897
0.9121204178456688 13.008853087138993 5209.857098734192 21.460517251626417 0.28881267831108837
0.9371421190226911 13.014750613953181 4564.193099611688 22.447494382586896 0.2929735077667664
0.9624271218891297 13.020955952724835 4003.5987579166003 23.477774901222713 0.29720992511616556
0.9879484151591684 13.02735069893413 3515.6248445194306 24.55376746400014 0.30152791509356924
1.0136926231336905 13.033798335908198 3091.3247686465443 25.677396698163985 0.3059289760085666
1.0396580605968806 13.040258774680543 2720.756998101662 26.85065999105643 0.31041463331944935
1.0658114010496764 13.046589347223168 2397.5369817862875 28.0766376780161 0.3149934939039112
1.092145039700449 13.052711376347327 2115.1806936229814 29.357362965137508 0.31966585122531493
1.1186442638588983 13.05855062845424 1867.9080385655036 30.695636209241517 0.3244366937336315
1.1452770344132137 13.064010589266163 1651.6619135636251 32.09481237276043 0.32931377381533855
1.1720407708655445 13.069014907405638 1461.6843731752374 33.55688012041269 0.33429509625366344
1.1988986390389729 13.073473707210688 1295.049351103202 35.086360286124275 0.33939408000664867
1.2258455496377634 13.07734403304763 1148.7347702013356 36.6852488440168 0.3446073177426074
1.2528429381643058 13.080502273047165 1019.8703751597726 38.35862562853467 0.3499494153768841
1.2798865103384567 13.082942538343394 906.4717419049456 40.10876075920164 0.35541712270681836
1.3069311342325092 13.084519470748514 806.580621157948 41.94107013128217 0.3610246735554811
1.3339689788487796 13.085236709778817 718.3791443272779 43.859095052312114 0.36677431843245606
1.360978207245069 13.085031677727642 640.4322421691464 45.86746959901223 0.37267350533223614
1.3879114696599262 13.083770389551326 571.6321873468899 47.9715557716532 0.37873234724264154
1.4147609021862775 13.081462475549607 510.65149394714825 50.1761433591283 0.38495665971265
1.441492529897439 13.078026164485323 456.7325098867068 52.48639189548642 0.391353096816843
1.4680880826141536 13.073419499661693 408.89469152637565 54.908749604664045 0.3979335111292626
1.4944971611997977 13.067552606359346 366.4216150161261 57.44940808065645 0.404706966568009
1.5207105710817155 13.060400806769305 328.73475030807765 60.11499718111626 0.41168323737632284
1.5466942745002723 13.051911617245503 295.19837694685674 62.91262448200491 0.4188728666129068
1.5724104108780719 13.04202726684056 265.37837752910326 65.84991851002134 0.42628722941819996
1.5978247345458805 13.030688237678689 238.8406372945026 68.93507613635614 0.43393860161563
1.6229223175947745 13.017867976313129 215.16550149010547 72.17691456299907 0.441840234275327
1.6476739250711503 13.003526465334017 194.03424529116336 75.5849283868944 0.45000643494363224
1.6720234484942258 12.987590574522315 175.17512409766263 79.16899913471386 0.4584511816196051
1.6959609979815506 12.970029434755892 158.31680846528917 82.93943903799727 0.46718824354837635
1.7194405606159187 12.950815331764423 143.23382722575744 86.9089325773627 0.4762389345534134
1.7424169408482515 12.929839774600289 129.74485986260385 91.08900251594339 0.48561736747742584
1.7649043693810575 12.907217067527773 117.64184177146413 95.49385996365316 0.4953459363325444
1.7868312211018638 12.882775201073812 106.7941582458272 100.13705882357814 0.5054417012471757
1.8081679844516378 12.856512192943175 97.05239006576295 105.03518950815133 0.5159306059609967
1.828877057231616 12.8283709277948 88.30077812364374 110.20479948213894 0.5268351970638917
1.8489561609812493 12.798396313192782 80.43706589220521 115.66360283883063 0.5381791373209055
1.8683307079562204 12.766453590037022 73.36052922010771 121.43166857333958 0.5499912246074251
1.8870095130954097 12.73262785714056 66.98773692692188 127.5304363902518 0.5623013102339731
1.9049304481618246 12.696805167997834 61.236628207166206 133.98246359160225 0.5751390917872727
1.9220696902139007 12.658981027104073 56.055394952590376 140.81341093769103 0.5885407601430375
1.9383822048544335 12.619086644643428 51.37635655331079 148.05095933749573 0.6025445680392897
1.9538765234629938 12.577236626304298 47.149597932266026 155.7235431920986 0.6171860340045847
1.968491190131954 12.533297177394449 43.32638751636712 163.86489436607647 0.6325130246609586
1.9822050173196724 12.48728955515708 39.86952480667925 172.5088917847199 0.6485674248461005
1.9949905516138582 12.439203788461493 36.73278155882293 181.69466705774556 0.665401834351618
2.0068242458923398 12.38903806034413 33.89208578162956 191.4643291505098 0.6830709907947627
2.0176690857062725 12.336755650489865 31.31778207501134 201.8639331914153 0.7016341550575823
2.027503170978464 12.282365458515022 28.982221267001012 212.94334760694719 0.7211536911627938
2.036310124032281 12.225887688230964 26.860685144663556 224.7582887124043 0.7417006311996809
2.0440519114269553 12.16728689034208 24.93491764444271 237.36973898602312 0.7633514565808817
2.0507095831478668 12.106570886405144 23.180952794160234 250.84470059488044 0.786189141828506
2.0562790637132458 12.04381494087793 21.587111469184105 265.2564487359695 0.8103023429426573
2.060721609587224 11.978958069556075 20.1361956767028 280.6863677387463 0.8357895066366565
2.0640240547132054 11.912055022972968 18.815934252983 297.2246236349046 0.862758926287631
2.066181251596873 11.843144164847157 17.613647336448718 314.9715338306255 0.8913307823071875
2.0671688968557103 11.77224260417194 16.518947526957206 334.03641903929434 0.9216305243699139
