M[M_sun], R[km], Lambda[1], P_c[MeV/fm^3], rho_c[fm^-3]
0.24162668629717493 15.618656898711224 2160425.4255784233 3.5677272577965504 0.1711233750220791
0.25364459529795186 15.277254354875096 1723072.1399190775 3.7848308092605785 0.17388831269632601
0.2660404559020322 14.981264552958109 1382993.629506542 4.011425037844854 0.17666694575060463
0.27881704200856744 14.723462364925053 1116506.7066545798 4.247765687597343 0.1794579488487579
0.29197178549816893 14.498386073823479 905811.413715226 4.494478074817691 0.1822678906315843
0.305508024621496 14.30119531366694 738616.0048334199 4.75171803320807 0.18509248183733704
0.3194251633939447 14.128086161267776 605093.3352242596 5.020167513642469 0.18793833386704892
0.33372218337586657 13.975976053791504 497669.15691087814 5.300050994528929 0.19080207797922275
0.3484059389502943 13.841985981998857 410980.98297888564 5.5920966587079795 0.1936900019561986
0.3634689643406811 13.72394338977325 340679.0427394091 5.896472347546471 0.1965971791062932
0.37892396588802385 13.619955328092038 283268.05812193704 6.21404193919863 0.19953128580586807
0.394756423783816 13.528426316598171 236384.8735091711 6.545061967174191 0.2024884846000489
0.4109826315425273 13.447827097744456 197843.522969049 6.890236639910115 0.20547251711893122
0.4275921645136514 13.377012372489615 166071.48218438384 7.25027032913273 0.20848644306415573
0.44458813212580006 13.31488367495132 139785.75478746617 7.625420844265982 0.21152579027711477
0.46196990645071806 13.260536322751667 117968.01973284148 8.016639552181552 0.21459675688745777
0.47973645604278065 13.21312637986391 99803.42771134441 8.424630484900836 0.21770097326790647
0.4978942257797492 13.171952308888649 84631.65572891377 8.849833049699141 0.22083588588430006
0.5164331514054964 13.136375957835718 71930.5866936654 9.293123510420184 0.22400494398413703
0.5353529057625914 13.105820649381746 61267.81274903648 9.755385458295425 0.22721104748648108
0.5546599858220204 13.079788056329189 52297.573849315726 10.237428621221193 0.23045554755178632
0.5743444387533333 13.057820343682025 44322.32866716129 10.739721812448694 0.23373511025887267
0.5944019626249878 13.03952920906588 38323.09258832981 11.263514530470008 0.23705598339283596
0.6148408797743848 13.024509149634202 32897.834642636575 11.809742317005375 0.24041975377119654
0.6356467505830063 13.012433815487755 28288.51881953363 12.37938436266859 0.2438280546770089
0.6568174573627671 13.003005624947836 24367.306726885356 12.973126616641899 0.24727880150086665
0.6783502610554651 12.995970515563007 21024.842187457296 13.592302108958819 0.25077684874524947
0.7002393882460841 12.991060284637674 18169.307533513114 14.238105825171067 0.2543248004608082
0.7224755313200792 12.987990040584696 15726.112474839952 14.911727695043846 0.2579246417305709
0.745064094944928 12.98663926095132 13631.833542620041 15.614192286939149 0.26157621697368455
0.7679855813768885 12.98675772214583 11834.315917172462 16.346776203348355 0.26528152435295155
0.7912325371834807 12.988132055275077 10287.0500284071 17.11109085532769 0.26904520502470863
0.8148065170885121 12.990679501716505 8954.642910365088 17.90859160690456 0.2728696921944162
0.8386916522477799 12.99413586874322 7806.2496469322505 18.74063430205464 0.27675598088935044
0.862871546197084 12.99840820950074 6770.552011772322 19.60858265341553 0.28070472287192955
0.8873559928860298 13.003368845146197 5954.342286496869 20.514513706887424 0.28472219590262254
0.9121146984387832 13.00885534838942 5210.260244644725 21.46022200615737 0.2888114141554891
0.9371340996163159 13.014746919769633 4564.41904927442 22.447179491650687 0.2929721998890891
0.9624189312287664 13.020961183461445 4003.7854830409124 23.477436412732615 0.29720855041383254
0.9879405086418932 13.027339417761533 3515.854429303422 24.553403784498574 0.3015264703675563
1.013684049759707 13.03379589961521 3091.452602327583 25.677009235510187 0.3059274807155645
1.039649297712554 13.040256066564782 2720.8594345495217 26.850244007903967 0.3104130618100052
1.0658027699653019 13.046580042590358 2397.686015825819 28.076191226886188 0.31499184228704985
1.0921354858018664 13.052708884499985 2115.2344483243705 29.35688762846437 0.31966414030514984
1.1186340003840527 13.058547173854492 1867.9633325593327 30.69512631131856 0.3244348950356677
1.1452659669711505 13.064001157134522 1651.7224192895283 32.0942695779371 0.3293119088257887
1.1720301084180584 13.069018881686421 1461.6856003395706 33.55629806100183 0.334293134653436
1.1988863094467985 13.073473005622203 1295.0805401525458 35.08573621453957 0.3393920163711042
1.2258350544346488 13.077336985098814 1148.7956053096987 36.68458457144177 0.3446051749021075
1.2528320361199017 13.080495454189364 1015.4840464927244 38.357918458850406 0.3499471885673423
1.2798750090800328 13.082936070594092 906.5148225578871 40.108002653656 0.3554147773815268
1.3069194543133136 13.084522934380521 806.6182221796483 41.940262903428724 0.36102223318338567
1.3339579213475172 13.085237586229399 718.4301451575075 43.858229650600755 0.3667717460110171
1.3609663623786996 13.085029991786712 640.4552350330588 45.86654783694832 0.3726708249733662
1.3878990711866428 13.083769447552536 571.6764280814391 47.97057371160951 0.3787295519827413
1.4147438803859222 13.081467578875795 510.6875171927558 50.17509023102308 0.38495370873164203
1.4414790279227547 13.078025360485777 456.7580907545039 52.48526937133021 0.3913500147860835
1.4680766075001743 13.073420111518306 408.9120295880817 54.9075527133723 0.39793028931316143
1.4944849958963238 13.0675543745422 366.4420841428463 57.44813144844696 0.4047035955556134
1.5206974683766976 13.060406146643075 328.75674256664587 60.11363499545173 0.4116797070258512
1.5466811054799954 13.051915554148541 295.21204128543474 62.91117045193622 0.4188691659907815
1.5723973045824746 13.042032412891249 265.3986551992189 65.84836582253263 0.4262833467319952
1.5978115981801995 13.03069415265994 238.8550736053227 68.93341740826139 0.4339345241402728
1.6229091910826996 13.017875868714498 215.1747406195292 72.17514178788458 0.4418359482718111
1.6476612139519802 13.00353356892662 194.04655014032082 75.58303287654196 0.4500019255694242
1.6720095088725813 12.987597624665796 175.18347338203628 79.16698135369764 0.4584464741595792
1.6959474993638122 12.97004169397498 158.3284898190161 82.93727929668503 0.467183280469131
1.7194273955974888 12.95082666130166 143.24205954834315 86.90661975627408 0.4762336971515773
1.7424059076960117 12.929870978840963 129.74430093549674 91.08653565244786 0.48561187961416813
1.7648915113938919 12.907231128470638 117.6477697373207 95.49121528975179 0.49534013332747784
1.7868181844178257 12.88279036039052 106.79777465786022 100.13423403636003 0.505435605478909
1.808155750341145 12.856528566082337 97.06049930865896 105.03216995748528 0.5159241939388282
1.8288647041373105 12.828389822885182 88.30459458503225 110.20156918815015 0.5268284433784444
1.848943569663369 12.798416693095822 80.44342669239443 115.66013115657172 0.538171966023344
1.8683191736099989 12.766474873167331 73.36869486079972 121.42794918557975 0.5499836532969496
1.8869964730331272 12.732650286886063 66.9899981082255 127.52646255479378 0.5622933569169273
1.904919001839595 12.696828663653275 61.24077764019169 133.97819883043366 0.5751306718245294
1.9220591491562014 12.659006050049035 56.05854984134951 140.8088302389053 0.5885318351998512
1.938371967519722 12.619112871183264 51.37723711490703 148.04603526505582 0.6025350963409636
1.953867473769041 12.577264327464684 47.152624771582495 155.7182618338136 0.6171760253019632
1.9684812431026022 12.533327961994955 43.32804826232688 163.85922371188593 0.6325024318318043
1.9821956186548928 12.487320322159247 39.86971446147238 172.5027796122267 0.6485561393878829
1.9949833940736061 12.439238551050906 36.735921821973484 181.68809120664736 0.6653898563476632
2.0068170704923 12.389074045052514 33.89510705024858 191.45724691072473 0.6830582589673625
2.0176625823820267 12.336793626475217 31.320795675719353 201.8562974482717 0.7016206023667064
2.027480622646037 12.282446548633537 28.987035009256907 212.94599464012472 0.7896416362526709
2.0308389058347904 12.234434172702448 27.55232504230936 226.67646096368085 1.670253868424838
