M[M_sun], R[km], Lambda[1], P_c[MeV/fm^3], rho_c[fm^-3]
0.24162668629717493 15.618656898711224 2160425.4255784233 3.5677272577965504 0.1711233750220791
0.2536443783160288 15.277271550123416 1723215.8124477742 3.784826383008071 0.1738882575252238
0.2660407279708972 14.981240818081796 1382950.6940682132 4.011415732937055 0.17666683330628524
0.2788159766791036 14.723489113016784 1116402.0059452194 4.247751189191824 0.1794577806891025
0.29197167051235956 14.498357975203588 905861.2823716169 4.494458002420959 0.18226766712078812
0.30550641938079237 14.30120885173474 738606.5047970527 4.751691705218244 0.18509219744479918
0.3194234809800413 14.128097089353362 605084.9044417792 5.020134736074917 0.1879379937871346
0.33372284293381277 13.975881173134018 497671.4621184707 5.3000109043811685 0.1908016743379564
0.34840355926079264 13.842006062260834 410993.4874288473 5.592049155837692 0.19368954235286098
0.3634670546070392 13.723945319212918 340649.0909711031 5.896416364666889 0.19659665330324094
0.3789200182954145 13.619995139064033 283294.93030577357 6.213976798771775 0.19953069180360933
0.39475158683058403 13.528460097732683 236403.32754554276 6.54498773678555 0.20248783369982085
0.41097867984079745 13.44787325810023 197859.5087473663 6.890151886458348 0.20547179532297055
0.42758602685519564 13.377057700567136 166079.4175814214 7.250174257224607 0.20848564828588095
0.4445830638610664 13.314924433881144 139795.1340961457 7.625313719390962 0.21152493749422854
0.46196469948515806 13.260563869862048 117976.76810601667 8.01651950571152 0.21459582823095866
0.4797297004840818 13.213138192545058 99801.7719827699 8.424496580640024 0.21769996649505988
0.49788742858608315 13.171971887258632 84638.38408176959 8.849685781337666 0.22083481959844006
0.5164263022767615 13.136391736261613 71937.84528610742 9.292960494547641 0.22400379634223147
0.5353459681927484 13.105829097787911 61271.14301046266 9.755205589512675 0.2272098160095843
0.5546529019428206 13.07981354561959 52301.86323946868 10.237230726955604 0.2304542296531763
0.5743356517596087 13.057836984577317 44727.07778271528 10.739506752532481 0.23373372950759336
0.5943934542852994 13.039513751664456 38322.65410816753 11.263279070500074 0.23705451223468285
0.6148304124170153 13.024498628079208 32898.30610269806 11.809485065857086 0.24041818925500089
0.63563554743263 13.012428614506751 28290.725025002623 12.379103842422607 0.243826393695817
0.6568066838199188 13.00300896702513 24368.572275611416 12.972824115500805 0.24727707252839057
0.6783392154096157 12.995977300574886 21025.82650288423 13.591973331038137 0.250775018197872
0.7002283293040955 12.991058861633729 18171.314860413022 14.237749007436506 0.2543228647071837
0.7224573309484167 12.988034092145675 15727.47583514638 14.911340961175176 0.25792259692282676
0.7450514700323705 12.986652270093547 13633.23412289055 15.61377741364967 0.26157409641662505
0.7679717752268764 12.986762616166112 11835.33459061799 16.346327571970132 0.26527928803805173
0.7912174630984609 12.988139284527753 10287.983524448677 17.110606214036547 0.2690428483782231
0.8147916112825131 12.990675538508535 8955.356580964302 17.90806855457327 0.27286721034850425
0.8386747235891966 12.994137092968247 7806.676220479428 18.740075158716664 0.27675341191502095
0.8628558309159108 12.99840348379593 6813.383602892354 19.60798014827915 0.2807020198113627
0.8873383035216382 13.003366767301006 5954.921446716825 20.51386493980091 0.2847193529046565
0.9120949951674062 13.008852504993552 5210.653103889197 21.459523878360578 0.288808424974432
0.9371154663620342 13.014736471103381 4564.956016267885 22.446434911431837 0.2929691073267597
0.9623996796467924 13.020948839090623 4004.14884982862 23.476636035368465 0.29720529984354144
0.9879210709798381 13.027338960739996 3516.2508576583523 24.55254384228202 0.30152305422536363
1.0136633754697515 13.033792256237774 3091.726211238681 25.67609305734957 0.30592394500759673
1.039629158385221 13.04024524959036 2721.2000963227492 26.849260392375253 0.31040934588765695
1.0657799094420533 13.046581965598167 2397.9456592968822 28.075135569221825 0.31498793695031424
1.0921123800916452 13.052704033988327 2115.5867137401615 29.35576367033805 0.31966009474600887
1.1186107805270642 13.058542859441744 1868.4408294482039 30.693920632619918 0.3244306419259322
1.1452420969539368 13.064005219769324 1651.8988387702695 32.09298611401522 0.32930749897016925
1.1720059875432005 13.069010808527418 1461.911707911242 33.554921755615105 0.3342884963623797
1.198863014251088 13.073469805061531 1295.2722314238604 35.08426057112776 0.33938713681838917
1.2258086361245946 13.077332116023431 1148.9267032499802 36.683013872520235 0.3446001080705256
1.252804995682662 13.080493181600716 1020.0193399511302 38.35624632953719 0.3499419231924362
1.2798492425387684 13.0829388144492 906.597146239043 40.10621008663654 0.3554092317780266
1.306891913533833 13.084524140791 806.6607818776113 41.93835418679868 0.36101646284384376
1.3339245715404129 13.085245346836055 718.4603020073953 43.85618338239302 0.3667656634436517
1.3609383352109954 13.085034747820947 640.529527126101 45.86436830512995 0.3726644871909054
1.387869494317696 13.083770973530392 571.7208382221993 47.96825160586304 0.3787229425201948
1.4147265341014683 13.081479757540702 510.7636327722917 50.1726000861201 0.38494673107120425
1.4414504206762926 13.078027759924916 456.8186896006628 52.48261514065651 0.3913427272631078
1.4680445540126594 13.073428194046315 408.96368824541406 54.904722643109956 0.39792267127299225
1.4944542938028842 13.067563242232364 366.4837922224949 57.445112832645705 0.40469562474678705
1.5206666485082225 13.060414752988981 328.7959459168639 60.110414090775535 0.4116713594689514
1.5466501824940828 13.051926847652524 295.2527329461732 62.90773238390342 0.4188604158342995
1.5723662540969603 13.042045174095595 265.42800777874874 65.84469448230102 0.42627416609379604
1.5977906373403579 13.030717298553604 238.88810007995414 68.9294953388958 0.4339248829331105
1.6228776925362058 13.017892404141712 215.2060162081916 72.17095005891437 0.44182581401114995
1.6476293825717987 13.003555051666838 194.07041280943503 75.5785509454653 0.44999126316160704
1.6719791251966318 12.987619842790236 175.2025076735083 79.162210318852 0.45843534338986847
1.6959164738446957 12.970066407769314 158.3505073085804 82.93217260390865 0.467171545304004
1.7193959835915247 12.950855232991305 143.25522148265608 86.90115111471245 0.47622131336906304
1.7423787898801246 12.92991728068634 129.75923453262817 91.0807027859309 0.4855989036331689
1.7648592062393342 12.907264770697358 117.66491100518041 95.48496200156491 0.4953264122169044
1.7867882072784431 12.882826497836076 106.80962791801721 100.1275548813819 0.505421192152233
1.8081256065759679 12.856568027667576 97.07209379249412 105.02503029714306 0.5159090328551261
1.8288352498627725 12.828430622578052 88.31757172693762 110.19393123992255 0.526812474460454
1.8489153306646642 12.798463440884776 80.45510059745766 115.65192246459058 0.5381550096983129
1.8682913218540282 12.766522650245248 73.38018754317918 121.41915481339893 0.5499657511779674
1.8869691149078207 12.732701221146456 66.99961854763195 127.51706656104037 0.5622745515793459
1.9048931625783831 12.696884148480352 61.250547311312786 133.96811496813413 0.5751107631493386
1.9220339503978336 12.659066494357347 56.067516936404076 140.79799937103857 0.5885107325504759
1.9383473254289347 12.619177105487793 51.38554856353242 148.03439252325447 0.6025127009478461
1.9538426297979694 12.57733168296406 47.1558180788327 155.70577432443525 0.617152360221674
1.9684588104929195 12.53339935225205 43.3329577591167 163.84581575210888 0.6324773856515129
1.9821734307331482 12.487398157722557 39.874405260162995 172.48832773124366 0.6485294555697837
1.9949627570469477 12.439321218215973 36.73998564246043 181.67254300975145 0.6653615350914294
2.006798606814684 12.389159095210452 33.898331743867644 191.44050141736477 0.6830281553931172
2.0176444216949583 12.336883991353087 31.322814637150973 201.8382432643166 0.7015885579710844
2.0274803177059884 12.28249786427642 28.989243761870274 212.91568523692837 0.7211052975014329
2.036290314207161 12.22603019223319 26.866461070186144 224.72839781968602 0.7416489640800161
2.0440340533815418 12.167433561634514 24.939396018747505 237.33747393097408 0.7632964416981046
2.0506930632552285 12.106725750623944 23.18436623322289 250.80982823626576 0.7861304649315071
2.0562656452587946 12.043977873158441 21.591019414097033 265.2186386176617 0.8102394247090716
2.0607118597487064 11.979129832692083 20.13966263246597 280.64547612918636 0.8357224348795395
2.0640164073376077 11.912230560413299 18.81876686710718 297.18025898063803 0.8626870475984109
2.0661767750847937 11.843327578685802 17.61644767652363 314.92333982485104 0.891253633182974
2.067168931259779 11.772433829063711 16.521245474106554 333.9840777709424 0.921547855517543
