M[M_sun], R[km], Lambda[1], P_c[MeV/fm^3], rho_c[fm^-3]
0.24162668629717493 15.618656898711224 2160425.4255784233 3.5677272577965504 0.1711233750220791
0.2536293145226791 15.27766462577449 1723680.8084609013 3.7845523872842826 0.1738848423007067
0.2660098350558822 14.981897203448069 1383749.2588812762 4.0108397667213405 0.17665987309448034
0.27876821703292776 14.724380185630823 1117231.1905114537 4.246853794933693 0.1794473722680525
0.2919047111497046 14.49945321147598 906763.5220507253 4.493215661066581 0.18225383336147474
0.30542138537987884 14.302368247950216 739531.8806999525 4.7500622674506605 0.18507459640708057
0.31931877142450316 14.129317777209415 605924.3892362395 5.018106229851852 0.1879169472521388
0.33359780248504894 13.977117908296018 498532.5897944016 5.297529964777605 0.19077669539277173
0.3482572028904568 13.843225396161474 411759.0778050919 5.589109620230708 0.19366110153722502
0.3632970461673368 13.725194695060996 341343.6263816691 5.892952240092358 0.19656411751215003
0.3787275567642568 13.621173624906016 283931.71278003685 6.209946210691575 0.1994939376934619
0.3945351225707265 13.529595824916557 236967.4016774585 6.540394901483674 0.20244756073883996
0.41073464411162197 13.44897555505854 198381.0661501626 6.884908202805992 0.20542713791256065
0.42731578639708245 13.378118394926906 166534.88187692693 7.244230575082169 0.2084364777267518
0.4442840745181815 13.315932039667528 140210.40981694462 7.618686495470427 0.21147218053053007
0.4616376761474816 13.261506154373793 118334.78661946932 8.009093229283208 0.21453837997889905
0.47937391842380406 13.214012695875327 100137.68296378077 8.41621341009171 0.21763768863219662
0.4975012419124933 13.172776378392152 84931.4854012855 8.840576281784552 0.2207688629294858
0.5160058284843594 13.137125938114304 72201.71063418112 9.28287735663659 0.2239328104227273
0.5348952592817141 13.106492786646317 61502.85624850382 9.744080527998488 0.22713364794961996
0.5541705319548704 13.080399495820963 52501.84236941304 10.224991310894543 0.23037271991682132
0.5738162612748952 13.0583473269668 44905.895086961595 10.726206173997387 0.23364833567339444
0.5938449249250513 13.03997386005334 38482.995976102015 11.248717467712561 0.23696353107695534
0.6142433797235057 13.024875595810434 33042.043087596285 11.793576520251982 0.24032143875489959
0.6350086170382592 13.01273597833807 28417.948223422405 12.361757079635206 0.2437236822261715
0.6561398879729087 13.003252402592432 24483.260857857098 12.95411878767532 0.24717016054502078
0.6776390441846716 12.996172054620091 21127.747637709053 13.571644045711114 0.2506618301837126
0.6994892593394902 12.99119995483111 18259.084174909207 14.215686897582174 0.25420317668448233
0.7216849271140354 12.988083207167852 15806.421697184805 14.887430170491774 0.2577961715592429
0.7442340223273085 12.98667150868989 13702.848675858195 15.588117620384068 0.26144289190918846
0.7671139938952156 12.98673423822539 11897.170711806697 16.318592016357155 0.2651410332496386
0.7903229334630848 12.988074474379014 10343.733661041882 17.08064573887083 0.2688971607329604
0.8138479164578083 12.990537568556055 9005.377383425743 17.875734928020275 0.2727137896024754
0.8376928404254933 12.99397659561591 7850.664459370251 18.705383059267135 0.27659346990416434
0.8618362389347802 12.998223761506758 6852.714389456517 19.570737942936912 0.2805349375234219
0.8862655498988592 13.003119815955577 5989.680005247524 20.473764952089486 0.28454362854090365
0.9109840233562401 13.008593885832948 5241.3012001616125 21.416374847852335 0.28862367332119354
0.9359659159427293 13.01447388285957 4592.639293275172 22.4004164666652 0.2927779729061282
0.9611989644710051 13.020648653602827 4028.8406415932964 23.42717129608251 0.2970044088398951
0.9866813515513364 13.027028062621618 3538.209709212353 24.499400296060657 0.3013119401446521
1.0123826163739489 13.033485273342269 3111.389951188558 25.619321384144005 0.30570431101609014
1.0382995095642078 13.039924058006926 2738.8762526671944 26.7884789819708 0.31017972466402993
1.0644175389810462 13.046260993170248 2413.6807374297878 28.009905420413972 0.3147466222656314
1.090705013035156 13.052387231249472 2129.6831637000373 29.286315775517686 0.3194101249658803
1.1171633571406132 13.05823951865251 1880.8800580358625 30.619426847053386 0.32416786027026934
1.1437554395550271 13.063710872238358 1663.175150470764 32.013214246139896 0.3290319683885691
1.1704784768971608 13.068739914918455 1472.051407754775 33.46989302554941 0.3340019407752294
1.1972957800365054 13.073222549283166 1304.454638001521 34.99309914200471 0.33908569068619854
1.2242063195252442 13.077124728840788 1157.015582922469 36.585984022739126 0.34428710479502966
1.251164144910258 13.080324765119046 1027.4486145967026 38.25225461112758 0.3496125581526648
1.2781725796784982 13.082813880466599 913.2816678235964 39.995484417056154 0.35506668354740106
1.3051840351561896 13.084448464624344 812.6222428601982 41.8202501639161 0.3606588778985431
1.3321956805749788 13.085242269251218 723.8403505121859 43.72979859488773 0.36638998249378707
1.3591665657627974 13.085078094112681 645.4194037029698 45.72975848358752 0.3722730601152221
1.3860698445702118 13.083889762521263 576.0224084458182 47.82456571439583 0.3783133055928782
1.4128920082956085 13.081653617213904 514.7163280339947 50.01882163498573 0.3845158269043901
1.4396070634880256 13.078319588516948 460.34469733646023 52.31871107155515 0.3908927080989033
1.4661693889252447 13.073783560650318 412.16794022199025 54.72996825290271 0.39745226388344607
1.4925634427111585 13.06803586201386 369.3717490413414 57.25872476767299 0.40420345756446463
1.5187579730092755 13.060991201394572 331.39864335701924 59.911545100842616 0.41115595452035536
1.5447229556517896 13.052605952368724 297.6416040275938 62.695465553323494 0.41832017987451225
1.570428160482567 13.042837170152966 267.5660677047406 65.61803687981829 0.4257073808567393
1.595847845881555 13.031637970950122 240.80061412665776 68.68737102123268 0.43332969440174296
1.620941029945096 13.018954190315426 216.94300050775772 71.91219235467796 0.4412002206005413
1.6456816541471224 13.004746740048375 195.66404092276417 75.30189393707177 0.4493331026949438
1.670028304232373 12.988951015667816 176.64136782389267 78.86659927836209 0.45774361438784905
1.6939761943987977 12.971569477107682 159.6520508153777 82.61698340303774 0.4664472414383825
1.7174651777981176 12.952511742519512 144.44779494775358 86.56364187105149 0.4754570209898782
1.740472429369461 12.93176381198431 130.84774365652666 90.72042426591925 0.48479687867258
1.762948307578415 12.909242828417367 118.64243719835495 95.09906991930235 0.49447967882290544
1.7849097522901431 12.885018146107065 107.7068550445805 99.71540477469414 0.504531790102627
1.806263473785157 12.858927171467867 97.88660413438603 104.58365258705165 0.514970380561847
1.827022791710106 12.831039032450317 89.05951546117436 109.72094276402522 0.5258207576073212
1.8471177589869703 12.801227420322862 81.13153449727875 115.14548152018754 0.5371088774665107
1.866552208877454 12.769559725549161 73.98922752942708 120.87661332441071 0.5488613355256624
1.8852568094594633 12.73589905179322 67.56111236440091 126.9354007783003 0.5611071793592718
1.9032363973841202 12.700340083493494 61.764771123980346 133.34479894228815 0.573878119918843
1.920432892846728 12.662761665295836 56.5381328899781 140.129848954009 0.5872087672114281
1.9368107045014058 12.623135625527599 51.81560524138111 147.31631578675123 0.6011314446186368
1.9523748768320894 12.581554781480095 47.55042529469783 154.9350582509809 0.6156908809704844
1.9670133632912545 12.537891774683542 43.7020844278 163.02436138176083 0.6506124531318188
1.9805932214832547 12.492211884755207 40.242979059100776 171.6367258846619 0.6929170070524342
1.9930539458319578 12.444307044568992 37.12659694011365 180.81614304659155 0.7385200983568228
2.0043580222056168 12.394164814125006 34.321065097221954 190.61128733509508 0.787765075012458
2.014429497660128 12.341652787458846 31.79086442428375 201.07584138658964 0.8410307713124017
2.0232562325031034 12.286756799940852 29.507972755489103 212.26927120233123 0.8987360083266522
2.030799600606238 12.229467723359932 27.4468150603078 224.25813570298078 0.9613438592247111
2.0370267435544096 12.169768849417151 25.58286623164978 237.11596947491634 1.029367626845383
2.041900790030058 12.107594483887326 23.902530272891116 250.9254639602431 1.1033756568176942
2.045394942093877 12.042981980614428 22.38256293389308 265.7789534541844 1.183998423456914
2.0474982395593453 11.975952717911884 21.007267070107044 281.7795901199641 1.2719365348573677
2.048172711561451 11.906513156506755 19.76639885307167 299.04341058589154 1.3679681517886983
