M[M_sun], R[km], Lambda[1], P_c[MeV/fm^3], rho_c[fm^-3]
0.24162668629717493 15.618656898711224 2160425.4255784233 3.5677272577965504 0.1711233750220791
0.2536146580936256 15.278054356008179 1724069.8596067056 3.7842955532610048 0.17388164098850736
0.26597954363260046 14.98260837403689 1384315.4166827134 4.0102999298217314 0.1766533494841385
0.27872211558451093 14.72525542425536 1118306.3219796922 4.246012773421985 0.17943761768590907
0.2918406554054496 14.500414515359319 907744.7394315228 4.492051470478107 0.18224086982907756
0.3053419749694598 14.303434722569463 740515.8457763111 4.748535476152458 0.185058104147135
0.3192202307742633 14.130443064025286 606728.0559860093 5.016205680086156 0.18789722831477487
0.333478686819 13.97835330736413 499281.4478390688 5.2952057359223454 0.19075329426479237
0.3481178979224893 13.84441796831109 412501.21450816514 5.5863424647684825 0.19363420575768084
0.3631361100365669 13.726384167891146 341991.7653568805 5.889707503625525 0.19653364226059408
0.3785441164621288 13.622347231016311 284533.427342282 6.206171224618303 0.1994595143658528
0.3943325936585827 13.530703975484505 237507.15574670042 6.5360936760969395 0.20240984480286917
0.4105060181479946 13.450045164475643 198863.39491799506 6.879997885138667 0.20538531958677086
0.42706250226363385 13.379106893681755 166985.57865771133 7.238665248043658 0.2083904372024333
0.4440050352392253 13.316871903158065 140597.618299027 7.612481624657858 0.2114227857691432
0.46133253574900485 13.262412787841082 118691.61868871935 8.002140827761409 0.21448459753235272
0.47904420730683367 13.214848476757224 100440.767237722 8.408459457405245 0.21757938974782146
0.4971397431855377 13.173531456263929 85206.13486871068 8.832049436506656 0.22070712492643316
0.515615518087002 13.137810769342249 72439.2396231567 9.273439945493829 0.22386637045992827
0.5344774844929205 13.10711545279477 61719.72588719115 9.733668795291521 0.2270623637162568
0.5537159287181042 13.080962839459081 52692.47120372216 10.213537637159416 0.230296442917838
0.5733324796479022 13.058840478193392 45082.088935833286 10.71376035945792 0.23356842968882024
0.5933274940560094 13.040429292396121 38638.07602480783 11.23509280295616 0.2368784039250013
0.6136931936485752 13.025243914871046 33174.98795141905 11.77869281647358 0.24023092100301546
0.6344241651721108 13.013057647799 28537.88975511678 12.345529157952745 0.24362759549772967
0.6555213413752379 13.00350785296988 24589.31326872725 12.936618800239724 0.2470701250965457
0.6769851386993518 12.996346673295653 21221.42696280648 13.552628871198033 0.25055595878649384
0.6987989605794023 12.991318370226749 18342.578166772568 14.195052618212317 0.2540912347118446
0.7209616690627407 12.98816280651922 15880.706980735777 14.865068707575858 0.25767793807558925
0.7434634493066994 12.986689148659048 13769.458449009084 15.563913917083381 0.26131813251669256
0.7663105602758863 12.986693219656662 11954.956688708344 16.2926575463588 0.2650117564212865
0.7894814053299188 12.988012813133084 10395.427001705395 17.052633159340324 0.26876094504455883
0.8129671118382572 12.990428628146818 9051.193578679819 17.845506010571757 0.27257035555065334
0.8367718630293948 12.99382520414203 7891.425858714969 18.672790362753958 0.2764425197762866
0.8608765464966541 12.998040162749444 6889.511981839421 19.535925255796293 0.28037875495143477
0.8852655312540503 13.002910021189718 6022.359493933496 20.436284071080777 0.284379381508821
0.9099442789766762 13.008359764208189 5270.904403440336 21.376047489570634 0.2884510032513095
0.9348864707071416 13.01421178476398 4618.788890735988 22.35708526606497 0.29259676109317956
0.9600789618494077 13.020361770186136 4052.352194067495 23.380948373864943 0.29681668381860116
0.985521618707275 13.02673128622132 3559.0130018518566 24.449743953893627 0.30111467907019496
1.0111867540949508 13.033179988957578 3129.7596073026043 25.565999657949 0.3054970494965035
1.037059118185925 13.03961315140145 2755.471804887243 26.731694898857327 0.3099652046231113
1.0631379306498578 13.045962264462851 2428.471544917496 27.94897055671953 0.31452119770831616
1.0893874597760185 13.052086784593683 2142.8313229832115 29.221016357715975 0.3191737075870619
1.1158011300530155 13.057944687996004 1892.9431895099697 30.549849578836508 0.32392242194813975
1.1423636406837658 13.06344745109178 1673.7237160782354 31.938604921235466 0.32877394031930773
1.1690410732008438 13.068475612611813 1481.741276869194 33.39048920159238 0.3337343417016173
1.1958319300466547 13.073001803662866 1313.060924719024 34.90797622771516 0.33880421228551727
1.2226958425831698 13.076915695675007 1164.7657906140323 36.495388283463825 0.3439948569640466
1.2496321978851472 13.080173099631784 1034.4231451025785 38.15514785142562 0.34930494522584726
1.2765966964579 13.082666662882533 919.4935737032515 39.89211895360135 0.3547469053356421
1.3035806329008424 13.084368582896598 818.2421623574102 41.709458651303876 0.36032202153483306
1.330563369026136 13.085223931058046 728.875489757455 43.611835964982774 0.3660393365519298
1.3575000018118337 13.085095829077446 649.9587444364652 45.60412547190603 0.37190772713889003
1.3843818639853451 13.083985222926941 580.1659560422165 47.68988444820442 0.37792792518418344
1.4111867343790365 13.08185305828251 518.4059185966495 49.87532948066139 0.3841137460748111
1.437864110427009 13.078558819175187 463.689451716923 52.16578388555156 0.3904728273430026
1.4644115794149317 13.074125179886265 415.1752284927915 54.56693185349757 0.39701339921770445
1.4907855672149406 13.068454252607252 372.1045967881964 57.0843731795347 0.40374204097283256
1.5169652449096165 13.061503854551328 333.86515254811263 59.72521557689051 0.41067129646359857
1.5429233200147427 13.053230830648303 299.85067929617003 62.49721733670404 0.4238252025625864
1.5684240498969848 13.04345986702231 269.75810622707843 65.41393185758288 0.4464801503623309
1.5934369963135364 13.03198737040708 243.0883354650086 68.48617917067008 0.469053033212001
1.6179313464218248 13.018701522711892 219.38275422007592 71.72083352286467 0.49155954795695045
1.6419359775936258 13.003601937724975 198.24211862322946 75.12884372209933 0.5141086799960988
1.6653990858862489 12.986562201706601 179.3997496951164 78.71946717204162 0.5367481492232564
1.6883292927601377 12.967589605683925 162.5251278942481 82.50306182265969 0.5595397138666287
1.7107195466660987 12.94666460688517 147.41132484898907 86.49197907143319 0.5825694584178903
1.7325683214979042 12.923857834469676 133.85402720476372 90.69830044022756 0.605903031349652
1.7538143183138912 12.898981217784286 121.68989262949718 95.13571943255191 0.6296206021381082
1.7745048131078747 12.872265836644011 110.74282133926395 99.8198668561527 0.6538167763239429
1.7945125198278853 12.843354074076723 100.895897120665 104.76517570376232 0.6785565856049736
1.8139042183673713 12.81252080033357 92.01052791769635 109.9902347433174 0.7039486612049942
1.8326198091285593 12.779668943644973 84.0203418223401 115.5133707320328 0.730084061158442
1.8506420425117058 12.744788236498513 76.79226358838946 121.354891812558 0.7570656446114399
1.8679383129775438 12.70785421061984 70.27275513629394 127.5372516272731 0.7850073649460791
1.8844584060715637 12.66881581053463 64.38557390731738 134.08460551662222 0.8140286278563312
1.9002065363598868 12.627733294195574 59.057416045108745 141.02305334783108 0.84425650903488
1.9151605314025162 12.584644900466412 54.236641868422964 148.38139142221652 0.8758316556192601
1.9292117094729064 12.539285643659596 49.87691529446572 156.19136661261925 0.9089086391476593
1.942412016797371 12.491922455978871 45.92031093954413 164.48727065638246 0.9436522609592539
1.9547086008043144 12.442467762486737 42.33798422013057 173.30621639476854 0.9802398643607839
1.9660423809484433 12.390813172633303 39.08781270417467 182.69028440542405 1.0188743496040105
1.9764191882810191 12.337094140790432 36.13730068956797 192.6845485379584 1.0597707107356775
1.9857975286391436 12.28126441737908 33.461812281898844 203.33897598245156 1.1031676538674182
1.9941327166915896 12.223233751538658 31.03119660242078 214.70873709882534 1.1493284752302029
2.001470106084601 12.163381030167017 28.823954339630134 226.85445128566332 1.198542208035824
2.0076270959180404 12.100955770410408 26.8159347106782 239.84296916857758 1.251127720453892
2.0127065955028964 12.036585280055638 24.99183755210238 253.74876038985371 1.3074398128279676
2.0166594881065594 11.970177585507763 23.332079059061854 268.6546405902053 1.3678721809615377
2.0194508425848476 11.901681600406866 21.822853081912573 284.6517853904065 1.432858631765146
2.021055352760322 11.831095922892437 20.451600314741214 301.8422967277909 1.5028834640972337
2.02147388304129 11.758565781532573 19.204089541930287 320.33954096819934 1.5784840814152472
