M[M_sun], R[km], Lambda[1], P_c[MeV/fm^3], rho_c[fm^-3]
0.24162668629717493 15.618656898711224 2160425.4255784233 3.5677272577965504 0.1711233750220791
0.25364197486311363 15.277370426970808 1723193.1103241069 3.784802887478334 0.17388796466478026
0.26603783623843813 14.981277623438217 1383087.6314767355 4.011366340681624 0.17666623643002768
0.2788113830649275 14.723597593334603 1116463.201626625 4.24767422923226 0.17945688806954777
0.2919650071414407 14.498507937858188 905990.7079885507 4.4943514553092845 0.18226648069397133
0.30549991584987474 14.301297680637058 738679.1460679264 4.751551953234744 0.18509068785665672
0.3194146478229713 14.128216279328997 605165.900513185 5.019960749816361 0.18793618861254954
0.3337110918418137 13.976057669836436 497713.1053825012 5.299798103329741 0.1907995317844693
0.34839110642993365 13.842104992139747 411052.3093893207 5.591797008729065 0.19368710276022172
0.3634520911957933 13.72407339290083 340702.3365105232 5.89611920674875 0.19659386233318846
0.3789041100343632 13.62007791629085 283334.5691080688 6.213631034096236 0.1995275388460962
0.3947334582589489 13.528540449431512 236448.96953245957 6.544593724391807 0.20248437874341238
0.4109568931074159 13.44795758083135 197903.11176731036 6.889702020084503 0.2054679640721518
0.4275639723001197 13.377125567125255 166111.10776947864 7.249664315492594 0.20848142966861888
0.44455766599325397 13.314987992494988 139834.793068442 7.624745111769694 0.21152041101194974
0.46193701526235925 13.260632177904284 118002.59304128765 8.015882314501583 0.21459089904180284
0.47969973258361664 13.213236523722061 99835.48354640209 8.423785837263782 0.21769462269847156
0.4978542343414354 13.172045488293994 84662.50299749055 8.848904106450615 0.22082915993827382
0.5163898524159701 13.136464205011862 71954.88723985423 9.292095238454314 0.22399770488539203
0.5353070059163185 13.10588592345455 61291.4230182923 9.754250885728856 0.2272032796021261
0.5546115632600265 13.079865053412052 52314.85703546639 10.236180352532662 0.23044723456927188
0.5742916687599862 13.057874000093566 44743.12216978297 10.738365271361573 0.2337264008448895
0.5943458785975766 13.039553247857627 38337.226939382024 11.262029316713843 0.23704670375041056
0.6147800575774922 13.024528283824786 32911.19647459556 11.808119656739956 0.2404098852894339
0.6355792654919236 13.01247300155014 28303.324303055586 12.377614934680095 0.2438175777625922
0.6567497698534025 13.003033471354648 24377.99028032551 12.971218546417566 0.24726789575390537
0.6782795571956545 12.995985353869594 21034.94546792559 13.590228301697678 0.25076530234202565
0.7001648133632883 12.991057739866964 18042.423534747468 14.235855161578701 0.25431259050097593
0.7223955896146791 12.9880023730208 15735.085836635955 14.909288341395204 0.2579117439483092
0.7449814888480137 12.986652833426714 13639.370167309722 15.611575449676387 0.2615628414374141
0.7678985439541532 12.986746384635476 11758.218195801643 16.343946445379327 0.26526741871920373
0.7911397885658917 12.988128865367353 10292.73618518583 17.108033974843323 0.26903034045005975
0.8147122144278361 12.990658335500116 8959.866804695888 17.905292460539975 0.2728540379808165
0.8385914202954433 12.994114718983358 7809.9541984988455 18.73710752274803 0.27673977716324116
0.8627689629791676 12.998383687801246 6817.178940762355 19.604782385025434 0.280687673464367
0.8872413211373343 13.003338041180204 5957.928904093961 20.510421659046067 0.28470426391449966
0.9119979678001494 13.008828050184107 5213.230908181302 21.455818636025793 0.2887925601997444
0.9370154558992788 13.01471786436634 4567.053624624717 22.442483141899135 0.2929526939259172
0.9622920657357383 13.020922427208424 4006.4005612535643 23.4723881483907 0.29718804791235454
0.9878130653669502 13.027312149327587 3518.0615268534802 24.54797984421942 0.30150492362769254
1.013553138515042 13.033774880386979 3093.517913123448 25.671230614405093 0.3059051799038204
1.0395143974829715 13.040225475785538 2722.692104132209 26.84404006237329 0.310389624420932
1.065662721926402 13.04654984460183 2399.405077592613 28.06953291699571 0.3149672103035099
1.09199069582034 13.052675122623132 2116.8589822002805 29.349798552129023 0.31963862398305765
1.1184869666104744 13.058516650234996 1869.4463137311177 30.68752183384409 0.32440806974861863
1.1451146838594366 13.063970428743202 1652.8499979129958 32.086174518380865 0.32928409499848477
1.1718753531268808 13.06898556412086 1462.8567377494242 33.547617467383205 0.33426388015793457
1.1987278881857064 13.073449789038527 1296.0482818537398 35.07642911734339 0.3393612403238362
1.2256725548183096 13.077312003961008 1149.6062760551345 36.67467797866528 0.34457321776731814
1.2526652028250562 13.080478710750338 1020.6972083111498 38.34733155922105 0.34991374108128553
1.279704769142403 13.082922533960978 907.1847681360138 40.096696798163755 0.35537980084167614
1.3067453809079097 13.084515125955939 807.1846492889242 41.92822452593957 0.36098583934442974
1.3337802927891595 13.08523339107988 718.895311386704 43.84532378467325 0.36673338310305814
1.3607858184767814 13.085035543336845 640.9530498074723 45.85280152406068 0.3726308525627844
1.3877155300313098 13.083784579739705 572.1005963685577 47.95592823888257 0.37868786623969897
1.4145700952386835 13.081496148832434 511.0788282789469 50.15938501098759 0.3849097009743516
1.4412914820183858 13.078052331258537 457.08955340440184 52.46852933496155 0.3913040529181648
1.4678846927434845 13.073459207310165 409.24069770380737 54.889703739871244 0.39788224308656445
1.4942923639824885 13.067600292056868 366.7266781267333 57.42909341324155 0.404653324653636
1.5205026329140545 13.060463308490416 329.01609869740855 60.093321232673475 0.4116270602363037
1.5464849495626174 13.051986384312402 295.4487428381341 62.88948716326304 0.41881398029721034
1.5722004288968445 13.042115410843412 265.61151074762097 65.82521142642445 0.4262254463141697
1.5976233152319324 13.030796266585359 239.05484896027326 68.90868182289107 0.4338737192741149
1.622704096419405 13.017957190235585 215.3518558163465 72.14870564023974 0.44177203411776766
1.6474628838772387 13.00365952277647 194.20495673400433 75.55476662924261 0.4499346808369615
1.6718113386673417 12.987734778589873 175.33400833651197 79.13689193016546 0.4583762758787239
1.6957496521062438 12.970196933208499 158.45454947374608 82.90507313890232 0.4671092708123459
1.7192139691744008 12.950961918746694 143.36983116433785 86.87213108218224 0.47615559727350976
1.7422181141207074 12.930074020959223 129.85933228422437 91.0497501061438 0.48553004531391447
1.7647005071163473 12.9074352633076 117.74528480251305 95.45177851776478 0.49525360024393505
1.7866258846981555 12.883015636625025 106.87958470882644 100.09211170043123 0.5053447073054004
1.8079671127028336 12.856772952408699 97.1424028749248 104.98714364063618 0.5158285804606202
1.8286795262849247 12.828653374782988 88.37930225093966 110.15337266410164 0.5267276316183213
1.8487618788268496 12.7987022785154 80.5107533242061 115.60836353592607 0.5380650319827227
1.8681509284567737 12.766812491258651 73.42443512293107 121.37248829674766 0.5498707552514359
1.8868243644163225 12.73297942965641 67.04736992981653 127.46704731281139 0.5621741897119534
1.9047501097818105 12.697181590109249 61.291964301146514 133.9146065434693 0.5750051209048319
1.9218969378423267 12.65938609471939 56.10634780716949 140.74052747124762 0.5883987554342243
1.9382149858459172 12.6195141599373 51.42239012089777 147.97261300694564 0.6023938649745035
1.953716861656347 12.577698245224079 47.19286515762243 155.6395126747449 0.6170267877626262
1.968337614232898 12.533784142801167 43.363504476111544 163.7746606931373 0.6323444526006343
1.982062130382769 12.487808363193297 39.90131367997584 172.41164377892787 0.6483878670362825
1.9948558798732094 12.439750083101401 36.7671734931458 181.59004243332328 0.6652112591475302
2.0066934293275285 12.389596456135363 33.92594254777868 191.35164851539093 0.6828684234656086
2.0175523362201493 12.33735949957008 31.345407704935358 201.7424470985815 0.7014185292264172
2.027395842561576 12.282996743673262 29.007068935954223 212.81253477338413 0.7209248419367584
2.0362150542610773 12.22655368076402 26.8851438232201 224.61693840216213 0.7414563038233537
2.04396730311197 12.167983151259332 24.95536389786142 237.21716259933052 0.7630912998256651
2.05063606846715 12.10730287343441 23.200452945105674 250.67966618568104 0.7859112476857345
2.056211378466983 12.044559645898723 21.605200456145447 265.0776533031982 0.8100048169547301
2.060675652944183 11.979755492476457 20.152684970069107 280.4930020306329 0.8354723418698762
2.063996565425649 11.912897865283515 18.831580581646808 297.0148364919009 0.8624190335260707
2.066161240172518 11.844009058133544 17.627793773930062 314.74364073363427 0.890965970282027
2.06716516676161 11.773144238473538 16.531690174267908 333.78891697931925 0.9212396146365083
