M[M_sun], R[km], Lambda[1], P_c[MeV/fm^3], rho_c[fm^-3]
0.24162668629717493 15.618656898711224 2160425.4255784233 3.5677272577965504 0.1711233750220791
0.2536365102137526 15.277479485562745 1723412.3954669696 3.7846822127380615 0.17388646051235818
0.26602307642402934 14.981661435268522 1383493.8979273979 4.01111266534027 0.17666317091323636
0.2787915772200635 14.723930996327914 1116836.1552651108 4.247278978311582 0.17945230375449833
0.2919361934670354 14.49892653659108 906355.6340151089 4.4938042646276095 0.18226038759873456
0.3054621164196474 14.301809527193198 739164.8735562521 4.750834251840108 0.18508293531184095
0.3193684268101151 14.128750027752693 605500.3209222491 5.019067258848427 0.1879269182989014
0.3336563657651803 13.976558231602025 498090.7320573585 5.298705309921648 0.19078852916812197
0.3483262256919926 13.842653084373836 411384.5383295532 5.590502192579274 0.19367457505778085
0.36337688907208016 13.724622817110685 341007.5438351819 5.894593290311157 0.19657953060308825
0.37881860098911185 13.620609220690344 283630.93893127935 6.211855563537814 0.1995113486924091
0.3946378999742209 13.529052254633621 236695.66619023302 6.542570551196963 0.20246663824766672
0.4108505977194336 13.448431190038262 198122.58553468992 6.887392103333388 0.20544829185178037
0.42744468568876126 13.377596965990607 166321.72291766095 7.247045993643754 0.20845976896298182
0.44442617081324587 13.315434295657477 140017.05653493287 7.621825629040252 0.21149717005220214
0.46179329470298197 13.261034510942528 118167.87118652371 8.012610769796991 0.21456559099858252
0.4795429325271119 13.213614385388349 99979.88676590496 8.420136736972246 0.21766718656562786
0.4976838713232454 13.172402542570625 84791.37193102628 8.844890911479865 0.2208001026919793
0.516206999995637 13.136768376700156 72074.26726358611 9.28765303141439 0.22396643147089162
0.5351079334296073 13.106197560854525 61397.24948783069 9.74934956824705 0.22716972258822712
0.5543991628766164 13.080110885490777 52403.14355095516 10.230787998263859 0.23041132359340588
0.5740612178546699 13.05810042322072 44821.09845008945 10.73250531311587 0.2336887780977642
0.594105538973998 13.039765361114586 38408.84048962577 11.255613670483495 0.2370066186766639
0.6145218727297107 13.024694484932585 32972.02208809252 11.801110448953121 0.240367257611485
0.6353049637630053 13.01259354781054 28356.68595228721 12.369971930078313 0.24377232296521142
0.6564536964074289 13.003138976316853 24234.896855184426 12.962976841100577 0.24722078954598378
0.6779719356345314 12.996071730897146 21080.089647584806 13.581270920433074 0.25071543004297037
0.6998394411748928 12.991133442858372 18217.785164422516 14.226134111336084 0.2542598533289737
0.7220528311573663 12.988034783531774 15769.11376640101 14.89875254696004 0.25785603723163275
0.7446209812021969 12.986671968801446 13669.329540340266 15.600273304134396 0.26150507236641285
0.7675208386392987 12.9867437939846 11867.882558770209 16.331724976974716 0.26520649776445687
0.79074491900552 12.988097219859746 10248.234962147348 17.09483189229427 0.268966143193224
0.8142967179669188 12.990603951110666 8981.923305897139 17.891044410930814 0.2727864320042054
0.8381573922807982 12.994058691626856 7829.210985034957 18.721876683843696 0.2766697993391235
0.8623186706660262 12.998304502221032 6834.325911922981 19.58837083469921 0.28061404518827643
0.8867710144026967 13.003238530536597 5973.139973588575 20.492750469442896 0.2846268260216973
0.9115105223216812 13.00871370810534 5196.045317354642 21.436803477047118 0.2887111427955404
0.9365095273900125 13.014598500747221 4579.774704971399 22.422203194033308 0.29286846256813387
0.961765102680231 13.020782835356435 4016.973695429194 23.45058907327832 0.29709951539118684
0.9872682195599068 13.027177127570269 3527.770021102653 24.52455911689928 0.3014118841963909
1.012989575796738 13.03363535161559 3101.9487251101305 25.64627885368743 0.30580888625377306
1.0389312001550906 13.040083726391602 2730.424636576543 26.817252431669672 0.31028842557577024
1.0650635439930027 13.046419497687385 2406.20609002804 28.040784126378963 0.3148608560260863
1.0913711660122265 13.052533636120106 2122.8545783711606 29.32750290597178 0.3195499159877763
1.117078749736829 13.057726182178557 1880.99785085357 30.67079038659016 0.3736555394373704
1.1405411706051667 13.059263239968853 1683.4461830241714 32.13123199138804 0.43903186300633396
1.1620901930606518 13.056218339156855 1517.7101905808865 33.70479237342336 0.501667665133935
1.1821053131683943 13.048675782543992 1375.575235328908 35.393819597461075 0.5616452893290216
1.2008567363488536 13.036641346561067 1251.3942619138113 37.20047851227754 0.6190466099744772
1.218592745227652 13.020351092263795 1141.3023418711161 39.128178768842034 0.6743260147836518
1.235544284892271 13.000149977416621 1042.633368508674 41.18024053852054 0.7276541272693342
1.2518511899706488 12.97622372627735 953.4885101772396 43.35897883082342 0.7790347198055881
1.2676785052719775 12.948861154218212 872.3273467838649 45.67008739708551 0.8289470200564788
1.2831390099071498 12.918358073655941 798.1154652972857 48.116523660385354 0.8774023203676087
1.2983299998372 12.884932393114614 730.0340217061446 50.703426544120255 0.9246470966144129
1.3133486392566094 12.848893213170912 667.3153081533278 53.43674028827023 0.970907127346999
1.3282517211360607 12.810440992213598 609.5321455799051 56.321909327035236 1.0163172080434715
1.3430800979393467 12.76970453805749 556.3687424362621 59.365054026169865 1.0610205490586437
1.3579116759317782 12.727076242319336 507.3697098118839 62.573060233549896 1.105155060798788
1.3727719947639123 12.682678033081345 462.2618120626068 65.95364198441504 1.1488230654123146
1.3876534149825548 12.63653547760258 420.75545691279393 69.51535445294495 1.19191275354731
1.4025922507983397 12.588993218373885 382.6547365127388 73.26563348306894 1.2350035933803551
1.4176103504720845 12.540200076157152 347.6976116671173 77.21524906516254 1.2784409081387205
1.4326604944627852 12.490115505906385 315.7012771192922 81.37413727805935 1.3223257511713569
1.4477596823102055 12.438991431471747 286.5017512442835 85.75467114138607 1.3668024428005476
1.4629037018915307 12.386945864343419 259.7912149985261 90.36834976929491 1.411971143731443
1.4780627619356401 12.334086526928955 235.5219597247709 95.22802134919205 1.4579478125150283
1.4932067122348887 12.280478232711832 213.43166342769527 100.34796899204925 1.5048615280416453
1.5082943302792624 12.225850048233765 193.37047036697223 105.74400499942436 1.5528531972494446
1.5233168306180298 12.170622923858714 175.1616346754216 111.43357708073823 1.6020752876975846
1.5382418258684765 12.114776531647594 158.69091616900513 117.43320448573117 1.6526478272654526
1.5530245215283593 12.058277329270194 143.78901975259478 123.7639124463929 1.7047541194822142
1.5676254340379816 12.00113017159837 130.3068259478288 130.4454702304889 1.7585428821887825
1.5820117702072791 11.94334622677639 118.13680973129134 137.501115696134 1.8142081671149106
1.5961389037236702 11.884951486142631 107.16413427238298 144.95515470388412 1.8719536044476228
1.6099667493035166 11.82590932156373 97.25502156621997 152.83496847225456 1.9320261764158144
1.6234515038688875 11.76622961588535 88.31721495729751 161.17039632330852 1.9947144838827435
1.636553639279106 11.705869929481427 80.27172941562839 169.9917545606282 2.0603434553060467
1.6492299406855047 11.644845522124866 73.02781761252137 179.33402137354628 2.129352217274073
1.66143843816367 11.583181930618725 66.49526489709235 189.23503939064284 2.2023202959450554
1.6731230480299222 11.520529557404908 60.60399455209978 199.73442146394862 2.280062360783941
1.6842759941534917 11.457283625400057 55.305418039472194 210.87795207436398 2.363843991176126
1.6948244591958364 11.39320964841255 50.525062603324564 222.71249245625287 2.4557848152867767
1.7047646970891375 11.328297037786792 46.21826445444327 235.2911140722003 2.5598443835495575
1.7140406224403493 11.262483130821634 42.335484001866746 248.6697046907125 2.684515457177352
1.7226329715171371 11.195881022999012 38.829988936700936 262.9080073413605 2.778860993933082
1.730499277511454 11.128240365150795 35.66138926194116 278.0801077505815 2.856200408791563
1.7375845029665804 11.059795816634482 32.809675385896114 294.2644156236781 2.9380460358370755
1.743876148945331 10.990388490738027 30.23485401070965 311.54809867518645 3.0247457426660023
1.7493156316014744 10.920084323327961 27.91046825888141 330.0259187689694 3.1166669552982795
1.753869175527835 10.848732548415901 25.811612445484048 349.8048180684937 3.2142265974556734
1.7575172171867044 10.776439053427149 23.916223426990776 371.0017912323042 3.3178692228607263
1.7602065930886661 10.703082280605965 22.20440076921023 393.74693612197376 3.428082174654525
1.7619203387559341 10.628805792719076 20.662151949566898 418.1844856541227 3.545395516530767
1.7626384562449455 10.553517265149882 19.268353879135717 444.4754654901292 3.670395611658395
