M[M_sun], R[km], Lambda[1], P_c[MeV/fm^3], rho_c[fm^-3]
0.24162668629717493 15.618656898711224 2160425.4255784233 3.5677272577965504 0.1711233750220791
0.25364116884748394 15.277357172248287 1723233.4998191209 3.7847850032625603 0.17388774174665828
0.26603640462133055 14.981307134380247 1383125.3417478264 4.011328744810752 0.17666578210611575
0.2788083794637351 14.723690524032955 1116562.2472477404 4.247615650108874 0.17945620863999334
0.2919604097010293 14.498570179613818 905982.8612592142 4.494270356113465 0.18226557763560375
0.30549376986574883 14.301366455164892 738772.4847606659 4.751445580669715 0.1850895388299393
0.3194075773965475 14.128312303512388 605220.2365769336 5.019828320675973 0.18793481460910508
0.33370326611005635 13.9761094696279 497795.51826313464 5.299636131590425 0.1907979009978141
0.3483821735099104 13.842173706455656 411106.355596967 5.59160509035916 0.19368524589719796
0.36344114874669453 13.72414552214927 340752.2551915342 5.895893030603622 0.19659173803896945
0.3788919471343132 13.6201488776846 283391.50018952735 6.213367863676704 0.19952513904874788
0.39472013961735963 13.528600419344663 236474.66161730845 6.544293833305976 0.20248174910372266
0.4109418602096792 13.448041745824064 197937.15633568258 6.889359619714418 0.20546504804691743
0.42754540944780783 13.37721381508259 166142.44055207298 7.2492761934706325 0.20847821883459836
0.44453853583947645 13.315054243557816 139861.77537674527 7.624312341165034 0.21151696587966606
0.46191534774461296 13.260697635040847 118032.0997018362 8.015397347778173 0.21458714743211849
0.4796759096941866 13.213293109247001 99855.96417058654 8.42324489354254 0.21769055555791328
0.49782900205256647 13.172099013879198 84683.02363553699 8.848309180553699 0.22082485242058789
0.5163631479963603 13.136505013979793 71972.008600885 9.291436703974728 0.2239930687616009
0.5352781806221066 13.105923708315665 61306.650317687505 9.75352427861915 0.22719830486523748
0.5545803100379897 13.079880432175303 52328.09374048397 10.235380937535094 0.23044191077724088
0.5742577876429483 13.057922095948909 44755.63369841015 10.737496522071195 0.23372082320534043
0.5943089792097325 13.039590139083652 38350.24208678917 11.261078170349641 0.2370407609707148
0.6147418636875895 13.02455203028082 32920.95212790831 11.807080495659308 0.2404035654562616
0.6355392960260924 13.012467453132475 28308.942822445053 12.37648179082424 0.24381086833373905
0.656704860650888 13.003067233181131 24385.702008758744 12.969996623278185 0.24726091174231385
0.6782332834256615 12.996003404000025 21041.09771799743 13.588900250481068 0.2507579081086578
0.7001162954736919 12.991083908835886 18184.430189388713 14.234413863144491 0.25430477138662777
0.7223454740208152 12.987996478131272 15739.42927209238 14.907726219253808 0.25790348441970123
0.744926973846634 12.986650151016336 13643.1838548063 15.609899679858165 0.26155427601368536
0.7678429044860879 12.986744644238518 11843.553895954374 16.34213433840616 0.26525838582043465
0.7910811494483752 12.98812616267552 10295.87501201756 17.10607643828791 0.26902082161266827
0.8146491464069185 12.990652548682641 8962.731955116282 17.903179799248367 0.27284401355405036
0.8385262202581263 12.994117873571271 7812.841123664612 18.734849106351668 0.27672940090843595
0.8627028890962831 12.998383383766928 6819.776787121294 19.602348854165665 0.28067675574614687
0.8871722796491044 13.003322847480511 5960.149795425617 20.50780130406901 0.28469278111269775
0.9119267710161031 13.008815431779995 5184.467486165426 21.452998945549407 0.2887804871016702
0.9369410288379407 13.014697695011016 4568.896106470146 22.439475860294298 0.2929402033902172
0.9622141257064304 13.020894217952039 4007.6821958382357 23.469155544143767 0.2971749193460074
0.9877332308332925 13.027287912821729 3519.534413824273 24.54450670564055 0.301491126496895
1.0134700217342547 13.033746344032583 3094.451659246739 25.667530383630233 0.30589090000063596
1.0394272762855556 13.040200031374724 2723.8398282497606 26.840067513187076 0.3103746168454416
1.065576358983931 13.046539758865189 2388.0016425781596 28.06526945893084 0.3149514379182343
1.0919002564452172 13.052654875623235 2117.563752105745 29.345259293182817 0.3196222854379705
1.1183922994673514 13.058496938050483 1870.306723845852 30.682652592427456 0.3243908931840025
1.1450185006489282 13.063948412146877 1653.538855764814 32.08099118389159 0.32926628557171755
1.1717756191334348 13.06896778408151 1463.485992794915 33.5420592546274 0.3342451484078718
1.1986262143594122 13.073429752584998 1296.649389143833 35.070469800148736 0.339341534477448
1.2255678165770294 13.077302341740472 1150.1146892311306 36.66833484714472 0.3445527558069285
1.2525577091942472 13.080474121909134 1021.1767860417038 38.3405316510188 0.3498922004627889
1.2795946898121229 13.082918077766067 907.595022009037 40.08945783562582 0.3553574059099649
1.3066331462713738 13.08451119883095 807.539262173997 41.920516593899826 0.36096253709812703
1.333664754224375 13.08523954782433 719.2602428166513 43.837060487924816 0.36670882031165947
1.3606707377118907 13.085037855001064 641.2738297136034 45.84400017302605 0.37260525942954886
1.387597145716526 13.083794998298856 572.3704306183942 47.946551250603086 0.3786611763040979
1.4144495700592885 13.08151019406007 511.34653915144696 50.14932959333553 0.3848815245859606
1.4411780349810823 13.078087806541262 457.33929211086024 52.457811446697164 0.3912746256126365
1.4677619365150731 13.073485219271545 409.44527118364044 54.8782759368545 0.39785148149608895
1.4941692457491687 13.067630535883593 366.92793586530644 57.416904408957755 0.40462113896677593
1.5203788335186295 13.060500077736087 329.19332018937416 60.08031555428106 0.41159335366895217
1.5463595768083984 13.052030939050375 295.6075862887015 62.875604773327325 0.418778648511125
1.572074770162633 13.042164268576247 265.7496321159176 65.81038730651926 0.42618837677746507
1.5974973161068664 13.030858405265269 239.1771457433085 68.89284551477846 0.43383479055741764
1.6225841898631908 13.018057809019743 215.47181971993973 72.13178073982169 0.44173111511901564
1.6473364390877159 13.00373584332641 194.31344575179767 75.53667022787069 0.4498916299269519
1.6716849312146218 12.987823120497653 175.4280150974266 79.11762845595982 0.45833133441379065
1.6956238288442673 12.970296824311223 158.53847683534948 82.88445470937477 0.46706188972134216
1.7190878309620303 12.951072033195226 143.4425941390735 86.85005159503149 0.4761055980984277
1.7420935386998608 12.930194043031518 129.93108916329504 91.02620036959891 0.4854776558184485
1.7645780147873937 12.907576979267574 117.80701973147079 95.42653174898953 0.4951982031959126
1.786504099604991 12.883158859084299 106.94241905122529 100.06514591882292 0.505286516318567
1.8078457311966274 12.856928703021152 97.19422808615742 104.95831906101333 0.5157673714053724
1.8285712128955336 12.828844720166673 88.43206320497717 110.12241490414192 0.5266627082909998
1.8486453638275537 12.798883938945742 80.55656474456006 115.57522405190358 0.5379965772442891
1.8680368914459322 12.767009477409864 73.46462953106216 121.33698489583824 0.5497984833377293
1.8867133043390274 12.73319315207433 67.08383513703232 127.42898073649488 0.5620977903970247
1.9046430651444832 12.69740703779687 61.32558173208963 133.87389862417078 0.5749247508324399
1.9217909229423766 12.659628234282668 56.13607722742265 140.696804677671 0.5883135668053989
1.9381207031746142 12.619800061423359 51.4502706240889 147.92561360619683 0.6023034592887972
1.9536164327221048 12.577950114818151 47.21611999717899 155.58910393022776 0.6169312581457798
1.9682469903113815 12.534074040062693 43.388009337440614 163.720378871817 0.6322428134711973
1.9819739259015081 12.488113540879983 39.92200673072737 172.35330749207588 0.648280155460968
1.9947737245028827 12.440075284418365 36.78556272546957 181.5272819047154 0.665096939974447
2.0066166090801287 12.389941578325393 33.94305598494879 191.28405634951616 0.6827469122183695
2.017482439688614 12.337722120928847 31.362815012957206 201.6695739010507 0.7012891864891483
2.0273320261240237 12.283381213997995 29.022931223202125 212.7340679480362 0.7207875689203334
2.036157372354577 12.226953950040777 26.900686430817398 224.5321519952747 0.7413097485005707
2.0439168700067785 12.16840560259506 24.9691409687052 237.12564370308618 0.7629352517004996
2.050592274808157 12.107742388766074 23.211930497001823 250.5805552897886 0.7857441691181779
2.056176106997214 12.045017370878734 21.616054112534556 264.97041088085393 0.8098263593332959
2.0606462625870576 11.980235235116702 20.162853796178855 280.37690827358523 0.8352817363304689
2.063976442259812 11.913396927603642 18.840688182700394 296.8890089729605 0.8622151703994722
2.0661493737247874 11.844528306888577 17.636456868477737 314.60695581951256 0.8907471646183717
2.067162020468487 11.77368656679246 16.54026278052595 333.64047354692616 0.9210051600926211
