M[M_sun], R[km], Lambda[1], P_c[MeV/fm^3], rho_c[fm^-3]
0.24162668629717493 15.618656898711224 2160425.4255784233 3.5677272577965504 0.1711233750220791
0.253643747731465 15.277294774010176 1723261.7632818355 3.784815007616609 0.1738881157364569
0.26603935324739664 14.981277892877094 1382920.709528455 4.011391819557618 0.17666654432720746
0.2788140318755818 14.723550885093713 1116453.5291227265 4.247713928760273 0.1794573485242468
0.2919674534199489 14.498459771705246 905884.5627525802 4.494406417156688 0.18226709270689817
0.30550466555567785 14.301196040345902 738646.0913747225 4.75162404351892 0.1850914665693122
0.3194193225801433 14.128167279231562 605127.1350326149 5.020050499488385 0.187937119800037
0.33371750903558284 13.975944452793714 497682.53462371236 5.299907875140659 0.19080063700446087
0.3483974386487782 13.842056725950972 411023.70430838596 5.591927076665003 0.1936883612032824
0.3634591500360758 13.724024730141359 340664.729900296 5.896272492829767 0.19659530202850017
0.3789126360574708 13.620023123213455 283317.2010117679 6.213809393166721 0.1995291652660607
0.39474447791832085 13.528479689342172 236411.88116520038 6.544796971182941 0.20248616094319768
0.41096847054538843 13.447897339704124 197874.37035543722 6.889934078075219 0.2054699403753801
0.4275758779072259 13.37710679790573 166096.33607243336 7.24992736211859 0.20848360578594266
0.4445704092572797 13.31494518625886 139812.2260331361 7.625038419917947 0.21152274593340634
0.4619504928053837 13.260610620010674 117989.34525763027 8.016210999911593 0.21459344168918
0.4797153616611624 13.213180054346815 99818.9518344831 8.424152462768735 0.21769737920973575
0.4978722598384781 13.171989859216644 84650.51969104065 8.849307320180584 0.22083207937795876
0.5164105425107908 13.136406215850617 71944.59107390115 9.29254156532301 0.22400084705437287
0.5353270201166693 13.105862258939581 61282.494246306014 9.754743351698217 0.22720665128482978
0.5546329651431842 13.079815687979549 52303.68635836962 10.236722167423759 0.23045084284508394
0.5743141663639877 13.057854547665489 44735.04523645739 10.738954080957823 0.2337301811848878
0.5943705450442022 13.039533629867762 38332.95857640336 11.262673975362198 0.23705073158931142
0.6148057307002534 13.024521076462857 32904.35512240066 11.808823972450952 0.24041416870408158
0.6356102731949421 13.012452295914272 28295.767762988275 12.378382953022605 0.24382212525618746
0.6567784234772451 13.003042152052355 24373.62807724254 12.972046740551134 0.24727262937195585
0.6783097167625078 12.995997740794014 21030.241800716336 13.591128431448915 0.25077031402332134
0.7001971197180087 12.991057387011226 18174.716442179295 14.236832052875208 0.2543178901839367
0.7224305283752709 12.98799463885073 15731.520725120612 14.910347130221899 0.2579173421639494
0.7450171802278613 12.986654510108695 13635.946686449348 15.612711272026665 0.26156864700784793
0.7679365794761165 12.986758224332618 11837.621392494828 16.34517468163804 0.2652735411689011
0.7911798578952961 12.988130705752406 10290.01612493778 17.109360788722725 0.26903679229665844
0.8147524285887691 12.99067223508406 8957.41291235274 17.906724424375795 0.27286083254682714
0.8386343879753189 12.99412914307402 7808.315146816263 18.738638285437684 0.27674681022576225
0.8628149456710242 12.998397110517121 6773.525890306278 19.606431848748517 0.2806950735678302
0.8872889522625085 13.003342534059962 5956.248903684989 20.51219776189407 0.2847120470725687
0.9120483681896911 13.008837213413326 5212.020843226528 21.45772985964084 0.28880074350579854
0.9370681661183496 13.014728891902143 4566.004248788231 22.444521525201964 0.2929611602096777
0.9623454970301818 13.020939076272963 4005.1539329754137 23.47457926958407 0.2971969467065664
0.9878686701608417 13.02732237436158 3517.1448413031417 24.550334015696617 0.3015142756333938
1.0136102097347195 13.033781786956451 3092.311467513104 25.67373872399904 0.3059148591817781
1.0395725251576482 13.040237457174278 2721.812758565851 26.846732769582083 0.31039979698389225
1.065723348326286 13.04656324927163 2398.732169421302 28.07242282499518 0.3149779013298283
1.0920545930674221 13.052694690855462 2116.2435320777313 29.352875419236426 0.31964969881543825
1.118550907674353 13.058528583477512 1868.9051491930209 30.69082239131533 0.32441971267896924
1.1451812797013725 13.063981591963243 1652.3991034332644 32.089687994642695 0.32929616695685693
1.1719431617026457 13.069004476330775 1462.3293148082932 33.551385071057425 0.3342765773707729
1.198797199217491 13.073455530219356 1295.6228493132942 35.08046862868914 0.3393745978927426
1.2257417043471854 13.077330801020263 1149.2629444936342 36.67897767625593 0.3445870879261667
1.2527372104080494 13.080494478272708 1020.3348033483743 38.35194090815519 0.3499283424882392
1.279777949607452 13.082929444227025 906.871657305977 40.10160378379007 0.35539498141588594
1.3068213920514586 13.08452410710405 806.8950287909134 41.93344942957603 0.3610016350196922
1.3338567179218577 13.085239381665456 718.7442856404521 43.85092517959821 0.3667500333456033
1.3608649355840432 13.085036691174935 640.7425956341671 45.85876767457991 0.37264820131805404
1.3877940460021199 13.083776683456037 571.8998998762293 47.962284625320066 0.37870595856738626
1.414651503781107 13.081486765440205 510.9175796037916 50.16620132487185 0.3849288010370286
1.441373298958264 13.078039830183176 456.96114474282365 52.475794756681736 0.3913240010440901
1.4679677735898968 13.073442508876711 409.10315776996026 54.897450436123165 0.3979030957996617
1.4943761644739302 13.067580957033478 366.60208117121925 57.437356156079886 0.40467514284710027
1.5205869507136098 13.060439901982564 328.90079462576176 60.10213763275748 0.411649909531378
1.5465699617801743 13.05195556140097 295.34548269643636 62.898897926374886 0.41883793143751885
1.572286395118681 13.042080034612344 265.5175477655459 65.83526063585124 0.42625057559942114
1.5977099252223186 13.030756283889712 238.96812277234844 68.91941725057544 0.43390010903743453
1.6227969714476258 13.017938490390424 215.28177930776374 72.1601790899652 0.4417997732514347
1.647549084204445 13.003603672285957 194.1357243377681 75.56703431552035 0.4499638653718927
1.671898165497159 12.987672888848774 175.2679487908106 79.14995084921237 0.45840674218745664
1.6958351751040974 12.97013184242955 158.3974774325307 82.91905068296964 0.4671413911679034
1.7193156978175024 12.95092460558831 143.30927476214683 86.88709919365628 0.47618949268154753
1.7423013523555313 12.92999046932617 129.8050236867288 91.06571501577507 0.485565561361372
1.764781995824168 12.907345974933454 117.70318612607468 95.46889399825665 0.49529115542983526
1.7867101724912144 12.882915432093847 106.85200833436797 100.11039265400792 0.5053841568101222
1.8080482558990927 12.856668109656699 97.10352912469263 105.00668485006405 0.5158700762598003
1.8287609909593152 12.828538846511462 88.35173529693114 110.17430550038495 0.5267714422596799
1.8488401177290668 12.798581078381483 80.4780742977714 115.63083027842255 0.5381114405200437
1.868227571024478 12.766679159195496 73.39688378053837 121.39655780448174 0.5499197519486919
1.88689935931369 12.732835855464687 67.02298341985404 127.49285470078777 0.5622259849337012
1.9048246620480904 12.697028298580706 61.27118473562498 133.94220481193585 0.5750596084559711
1.9219671487619767 12.659220579804767 56.08561947471936 140.77016991578697 0.5884565101886389
1.9382832569043382 12.619340486819524 51.40304053591287 148.0044771116232 0.6024551571651889
1.9537821150361663 12.577504924308808 47.1724095536063 155.67368844497085 0.6170915542682471
1.9684000730596531 12.533586311908403 43.348259364631566 163.811364964273 0.6324130312935294
1.9821179408597904 12.487595909845746 39.887195613982506 172.4511948260894 0.6484608937204442
1.9949116607222224 12.439527975875496 36.75362326732008 181.6325933766875 0.6652887662808704
2.0067494724171024 12.38937735773913 33.908879842277784 191.39747562740536 0.6829508074144905
2.017599542616074 12.337114740753053 31.33441678592817 201.79185513694148 0.7015062236208051
2.027439827833851 12.282738252633797 28.99721120648824 212.86573571861985 0.7210179138075369
2.036254074585233 12.226282837327853 26.875536381705505 224.67442458064127 0.7415556700514068
2.044002365163242 12.167699142953145 24.947285643914054 237.27921402549862 0.7631971032074228
2.0506658523065475 12.10700560517351 23.192813604438506 250.74686074920865 0.7860245146345068
2.05624206601773 12.044270958317325 21.597473182742103 265.1503669536879 0.8101258166937191
2.06069291589241 11.979432175652237 20.14558837045455 280.5716407855215 0.8356013277309033
2.064002776211913 11.912546969352093 18.82478825836958 297.1001530676847 0.8625572616659597
2.066169637653325 11.84365821621487 17.622106333557895 314.836320086506 0.8911143316973489
2.0671662624465283 11.772778157637905 16.526564128941654 333.88957026450043 0.9213985884603243
