M[M_sun], R[km], Lambda[1], P_c[MeV/fm^3], rho_c[fm^-3]
0.24162668629717493 15.618656898711224 2160425.4255784233 3.5677272577965504 0.1711233750220791
0.25363965213360684 15.277422121883701 1723273.539416533 3.7847572534205494 0.17388739585826457
0.26603256753562754 14.981431477374864 1383178.73934447 4.011270410100044 0.17666507716556365
0.27880442877754086 14.723705006758388 1116624.6534799403 4.247524758000159 0.17945515442850374
0.2919544738011197 14.498640582740974 906127.3371131488 4.494144522588754 0.18226417645010165
0.3054848028129006 14.301501305359675 738854.9930097716 4.751280534329026 0.1850877560144642
0.3193977983553642 14.128390807525715 605230.8087420817 5.019622846865311 0.18793268273901384
0.3336900240675401 13.976270548803903 497877.7414619807 5.299384822207142 0.19079537072932212
0.3483670143142556 13.842300731930482 411171.8388735111 5.591307319097047 0.19368236487832297
0.36342409872383546 13.724272094121735 340827.5416335268 5.895542109363404 0.19658844211241847
0.37887114916781345 13.620297170989456 283454.17175136117 6.212959547507878 0.19952141569693285
0.3946981265781302 13.528726844182593 236538.13341237805 6.5438285472905235 0.20247766917393778
0.41091704075932184 13.448133557445422 197982.3504305063 6.888828383856882 0.20546052381943017
0.4275189829584224 13.377305239416234 166204.58640165452 7.248674024775473 0.2084732372473059
0.4445073935870653 13.315161646839654 139899.41107802352 7.623640905018096 0.2115116208162044
0.4618819864416679 13.260791459153673 118063.15079193642 8.014644935818222 0.21458132691730933
0.4796402544444415 13.213371193924075 99883.90794452655 8.422405641057445 0.2176842455524788
0.497790116483436 13.172173657127699 84707.98135895323 8.847386182861978 0.22081816952293323
0.5163212426740735 13.136575488910205 71999.57122391432 9.290415028181977 0.22398587610032586
0.5352306964977506 13.10600641173778 61329.04899640336 9.752397000488939 0.22719058692245497
0.554531412367593 13.079963213912997 52353.15373745384 10.234140712218343 0.2304336513604448
0.5742031686111477 13.057956471782633 44772.16985150822 10.736148738774647 0.23371217001908556
0.5942553115317806 13.039649539647844 38364.30227247297 11.25960256626231 0.23703154136967416
0.6146834659095973 13.024586793541788 32935.484578363554 11.805468357475343 0.24039376096630993
0.6354753973718973 13.012524729707113 28321.903079754215 12.374723861801066 0.2438004595055493
0.6566391296758335 13.00308687968655 24397.47612883243 12.9681009758492 0.24725007699895657
0.6781623967278858 12.996029304130102 20889.227363013986 13.586839974442078 0.2507464370436537
0.7000419577655435 12.991095526511893 18193.275291026996 14.232177916631418 0.25429264126766893
0.7222662403189023 12.988023085985931 15747.88479372636 14.905302851150473 0.2578906711590434
0.7448448260023047 12.986645630383894 13650.647086712906 15.60730002195528 0.2615409882869071
0.7677551851477717 12.986748853473962 11850.106738449003 16.339323197776608 0.26524437298945475
0.7909912182643336 12.988118059559179 10302.022431418372 17.103039712936233 0.26900605504560454
0.8145553355180806 12.990638988873716 8968.527856373354 17.899902452506094 0.2728284627780998
0.8384279541168369 12.99408923596488 7817.237856214672 18.731345671973607 0.2767133044401944
0.8625992092174236 12.998357418968206 6823.658339157756 19.598573795599602 0.2806598194391658
0.88706395552563 13.003298856500514 5963.693475071385 20.503736460710474 0.2846749683388367
0.9118153053561959 13.008780594266817 5218.304867404777 21.448624913563595 0.28876175876336974
0.9368241905742056 13.014669455373479 4571.768263163354 22.43481085603255 0.2929208276183646
0.962092876766024 13.020876134731003 4010.2507631851527 23.46414104819112 0.29715455398799184
0.9876068030088317 13.027261682767525 3521.704612628951 24.539119126876873 0.30146972420407064
1.0133446672359598 13.033727943347472 3096.7532018661673 25.66179057094337 0.30586874895805183
1.0392926167002536 13.040172857500805 2725.5205968307996 26.83390532551808 0.3103513372100505
1.0654381298937612 13.046503476377326 2401.861944416608 28.058656065942436 0.3149269721018465
1.0917569155292202 13.05263467140377 2118.9400760137487 29.33821812662527 0.31959694156166163
1.1182453371354533 13.058464701600224 1871.5280751143177 30.67509962512904 0.32436424960243726
1.144866781908329 13.063923351782147 1654.7447722857494 32.07291818401675 0.32923844783115075
1.1716212097349687 13.068944558426605 1464.4658406899337 33.53343770564801 0.33421609289889237
1.1984675842548074 13.073410280545076 1297.5427164044363 35.06122615722771 0.33931096825626544
1.2254043789728675 13.077282274605277 1150.919501505111 36.65849592467379 0.34452101696606974
1.252391320714778 13.080451710461986 1021.9755072280569 38.329984302128565 0.3498587887737134
1.279426007140765 13.082905370587765 908.2757001824829 40.07822954433346 0.35532266932783607
1.3064610690849532 13.084509763800401 808.1469323929986 41.9085609698246 0.3609263934352785
1.3334892565019654 13.085227509424197 719.8707917209083 43.824243557735805 0.3666707217667095
1.3604916088440882 13.0850420297164 641.839731988139 45.830348780874466 0.3725655630355735
1.3874166659216336 13.08380475483839 572.8226262658317 47.93200711730715 0.37861977900578925
1.4142645322610936 13.081530190763509 511.74351518784385 50.13373332452673 0.384837822122014
1.4409908852743158 13.078114759799949 457.69091442512445 52.44118778944851 0.3912289832781778
1.4675721617558573 13.073521871149687 409.76544889974787 54.86055132298557 0.39780377002325606
1.4939766169864312 13.067680802876911 367.21409047143044 57.39799931311251 0.4045712190979525
1.520185012091449 13.060561452936485 329.44835416079013 60.06014396075997 0.41154107533674295
1.5461646714431077 13.052102054733645 295.84355420384884 62.85407358973818 0.4187238499370856
1.571878913745 13.0422480100297 265.99031081505103 65.78739571832642 0.42613088348087386
1.5972947136324716 13.03094372920429 239.36057825740727 68.86828427411248 0.43377441426435615
1.622387081119641 13.018162703885608 215.6294643224578 72.10553138108878 0.4416676525608496
1.6471384216210552 13.003855513301808 194.4710209672769 75.50860420178685 0.449824861516016
1.6714918107001726 12.987960339719736 175.57119215373388 79.0877073781576 0.4582614454593375
1.6954274066119086 12.97044914579436 158.67959248375914 82.8524777682434 0.46698840680375425
1.7188918429655502 12.951236988084801 143.56990073599943 86.81580904096691 0.47602805556112854
1.7419068423356652 12.930398992293782 130.03950423729952 90.98967794545572 0.48539640686815094
1.764386399591966 12.90778423142427 117.91231082256822 95.38737785474922 0.49511229080930963
1.7863148536445153 12.883382709053674 107.03555442320655 100.02332646927856 0.5051962717607357
1.8076574395473168 12.85716553356624 97.27642415232904 104.91361733511235 0.5156724471967232
1.828386646329565 12.82911124029439 88.50611280604875 110.07440552365347 0.5265620250139149
1.8484643765341269 12.799165607565813 80.62447097613041 115.52383175045135 0.5378904184836085
1.867860674007555 12.767315012734713 73.5287152665351 121.28192721773969 0.5496864060815088
1.8865408209227992 12.733522450123381 67.13934722730217 127.36994877398097 0.5619793137192836
1.9044746352452935 12.697756949416249 61.37793812651369 133.81077118006988 0.5748001176568873
1.9216313834490777 12.660001971332935 56.186318013193834 140.6290026997865 0.5881814627686908
1.9379643960844382 12.620200027401928 51.49340181350958 147.85273135401792 0.6021632666506129
1.9534650127920783 12.578362924839405 47.25702751610232 155.51093561770043 0.616783121368782
1.9681038738887517 12.534524612679533 43.42415690222668 163.63620565260103 0.6320852046711435
1.9818394813623126 12.48859197872962 39.95714389063254 172.26284816805222 0.6481131322097761
1.994645819867477 12.440577819612326 36.817586527191644 181.42996327520794 0.6649196727414
2.0064983862361765 12.390472428267856 33.96969328412405 191.1792469114436 0.6825584950345462
2.0173794793369817 12.338302284999052 31.391834616063903 201.55657706284816 0.7010886282475577
2.0272327038688407 12.283968871081198 29.047772580577128 212.6123991396276 0.720574716619236
2.0360670364608198 12.227575591345428 26.919505039635947 224.40068600700246 0.7410825064100809
2.0438380326049534 12.169056630598568 24.9879846458242 236.98374050065595 0.7626932937049058
2.050524758827115 12.108427680253428 23.2321644572096 250.4268827095442 0.7854851118838672
2.0561199618060844 12.045728104011914 21.633563652665647 264.80413266433476 0.8095496627204473
2.0606018365665966 11.980980447826061 20.17947249417785 280.19676098787454 0.8349857261862741
2.0632978130531696 11.916246746878546 18.928278108799436 297.10821127891245 1.143432834179978
