M[M_sun], R[km], Lambda[1], P_c[MeV/fm^3], rho_c[fm^-3]
0.23684300423346002 15.731373046853646 2340655.993653424 3.603474561961613 0.24657484768889665
0.2461129193329402 15.41580138566439 1935825.1694128173 3.8460301255893956 0.27012031664235686
0.25536741100100446 15.132892817677313 1610973.2413244997 4.099567120765169 0.2912426379257651
0.26467768551309917 14.876048484276353 1346965.7343584986 4.3711967580534195 0.3125701902811118
0.2741228748297124 14.640077812546265 1129418.6789420913 4.6592606333560544 0.3331556919305081
0.2837671406956923 14.421851217229792 948902.8053256052 4.9599785350045025 0.35212786454007433
0.29367623594964687 14.219114137897792 798209.0863347654 5.279108658841987 0.3708289446338132
0.30388401360253314 14.02993744966271 671897.0265997181 5.616539186502642 0.38900047185859205
0.3144264452058975 13.853081446634988 565755.5346257605 5.965556322613676 0.4054947185408861
0.3253688999518748 13.688140951435386 476418.55382090545 6.333048965032425 0.42150833224652984
0.33671162257400983 13.533688061926473 401164.2751724163 6.718962656610882 0.4369174308066572
0.34853316818252383 13.39021691913693 337769.24845294474 7.1231646246317615 0.45165543337685693
0.3608071005574438 13.256299171404851 284369.8156478578 7.543080861687975 0.4655564032531808
0.37359572271949193 13.132168268570931 239420.57955065084 7.980241682298815 0.47882356912762747
0.3869000725022366 13.017233589452982 201585.85101202407 8.436616876970294 0.49163214278207745
0.40073902908009706 12.91114907700828 169767.42931490619 8.912406052143657 0.5039763480100622
0.41511904991018184 12.813677873622828 143000.20600387602 9.407900260598026 0.5158649133428794
0.4300603496893196 12.724461596442847 120524.63705120115 9.92348424926379 0.5273158724512983
0.4455660358687868 12.642970587926227 101634.11613151825 10.459636773754749 0.538352955354492
0.46164711133872166 12.568947048088042 85766.1616366841 11.016930194477881 0.5490031375337188
0.4783029557234034 12.502257214723123 72445.66334360068 11.596030052080225 0.5592950101948444
0.49553906222500427 12.442319833207526 61236.08612181918 12.197695011760276 0.5692577223830335
0.5133530038902491 12.388737910835712 51817.03198757545 12.822777386659052 0.5789203166521982
0.5317448603147475 12.34126073723333 43900.79700288413 13.472224347108096 0.5883113327534928
0.550714176478087 12.299444151401959 37234.44868146873 14.147079868593918 0.5974585906018929
0.570254953220243 12.2631563103408 31626.169671166677 14.848487441703966 0.606389093824833
0.5903603684011608 12.23180011184411 26897.268238835182 15.574908466102379 0.6150409969245914
0.6110261443232641 12.205194530206308 22906.300472107567 16.329067957113974 0.6234957754829701
0.6322331809100918 12.182903213059761 19537.871154578253 17.113375603671592 0.631810401481415
0.6539852216384735 12.164625084545296 16686.41443012345 17.929250894986243 0.6400051492747123
0.6762645277774835 12.150166399254374 14275.490224786177 18.773172647226183 0.6479780616119989
0.699051694141031 12.138980904953902 12229.65503268913 19.651875915114047 0.6558845660682144
0.7223440589263587 12.131344745443542 10496.190359069276 20.56443354490003 0.6636865336747036
0.7461203453651433 12.126326846844785 9021.348902984035 21.511915114329312 0.671394113256582
0.7703623263988209 12.12400391030274 7766.490226949788 22.497296663180144 0.6790549925914148
0.7950454257951426 12.124126779270034 6697.19244165204 23.520789036858012 0.6866586514841925
0.8201574559375941 12.12655117794496 5784.294471528047 24.584547555479546 0.6942327201077877
0.8456826649667648 12.130543182307333 5003.698136640154 25.69211427762806 0.7018209352266697
0.8715950796654787 12.136393552368405 4335.86864615532 26.841645318651164 0.7093831122677651
0.8978848271075758 12.143491758748876 3763.0438782852216 28.038130374543034 0.7169829468342646
0.9245052662785602 12.151982828616433 3271.348210483617 29.283598245956895 0.7246348258581418
0.9514295360952434 12.161686339780763 2848.595411126338 30.579987322240324 0.7323515493326576
0.9786679511087805 12.172054250827985 2484.1927207695912 31.929503117287084 0.740148817978288
1.0061521405613465 12.18322896042636 2170.0774850763396 33.334614123686876 0.7480444798098804
1.033862234365002 12.19507543459497 1898.7248892646542 34.79805240859293 0.756058023873502
1.0618005599067553 12.207108088506871 1663.8539461152773 36.32281826342894 0.7642102517011933
1.0898912522608541 12.219421366605268 1460.4276421820682 37.91218843186721 0.7725230781548709
1.1181405808175164 12.231905242456154 1283.6947932993392 39.56972760057942 0.7810194277159676
1.1465431565213393 12.24404693320816 1130.1565634720432 41.29930296088494 0.7897232022301439
1.174999360599287 12.256146786827445 996.5608078507654 43.10366210518451 0.7986478249277392
1.2034893370510038 12.267979608083278 880.0598091737558 44.986829010456994 0.807816676601281
1.2320291125239624 12.279276200449189 778.3803069615363 46.954401910488606 0.8172636631100187
1.2605519416214999 12.28996929690145 689.5046859365671 49.00887403456586 0.826998164278564
1.2890279690048168 12.29998469379857 611.6533659413735 51.15662463612598 0.8370572545658197
1.3174052476391018 12.30915422187837 543.4255634211478 53.40286511365789 0.847467772755277
1.3456762686385006 12.317528321038742 483.5426542800971 55.75185105006586 0.8582498282211258
1.3737949474569533 12.324786461840715 430.8456622904892 58.2100553662763 0.8694329513074046
1.4017182400225183 12.330994317152594 384.4531859421837 60.78406564730077 0.880992856007548
1.4294336430205923 12.335871127943784 343.5674414513007 63.480612711651254 0.8929946605091457
1.4568671753147109 12.339583152201502 307.4919775210037 66.30653811215203 0.9054809732200778
1.4839877486755508 12.341981351545556 275.55617382260135 69.26922548440388 0.918490591481809
1.5107994775188212 12.342759647153962 247.32502009364273 72.37808514571115 0.9320718055583134
1.537212769956923 12.342100414176512 222.28076868586723 75.64110032255795 0.9462642795917984
1.563234362156257 12.339807600001128 200.0479766701917 79.06846219331658 0.9611190393602166
1.5888228666151587 12.335701851704004 180.32250481348078 82.66935975441193 0.9766821872297942
1.613893357572989 12.329932699876045 162.77082795041835 86.4558421165035 0.9930141926757916
1.6384421460824237 12.32246502524642 147.1102373124123 90.43951982467097 1.010173793022687
1.6624544068375262 12.312931988416004 133.16667591805776 94.6331806760833 1.0282261618106816
1.6858400668983966 12.3016040465786 120.70914929246857 99.0508684202191 1.0472432770978914
1.7086216487255725 12.28816293838672 109.57284642933504 103.70697483772412 1.0673003825469138
1.7307183917153774 12.272721271752031 99.61667454274918 108.61808948080703 1.0884839635915897
1.7520944512316297 12.255194639658011 90.68037613404644 113.80151521940157 1.1108859369916648
1.772750564238894 12.235457669133766 82.67287503969192 119.27657843864625 1.1346091157852625
1.7926391981400092 12.213578499045061 75.47745915832306 125.06357292181728 1.1597637262002585
1.8116992470401283 12.189452002981895 69.00804259657183 131.18491007417225 1.1864721669519913
1.8299118394553164 12.163050100754432 63.18961744051293 137.66529576987577 1.2148699286821463
1.847256489657948 12.13431066492609 57.94704071975518 144.5305766023795 1.2451027421805205
1.8636690179479323 12.10330173610174 53.2124936411499 151.81050998997978 1.2773358153161194
1.8791436874032186 12.069876714302374 48.94412384174382 159.53617064597117 1.3117469903171868
1.8936556544514918 12.034050264611732 45.09469581334975 167.74204093130743 1.348534015429272
1.9071497964418211 11.995854980443797 41.60209567984625 176.4663280262095 1.3879162049966145
1.9196114706252023 11.955146719082444 38.44976337963304 185.7508355913221 1.4301353964463948
1.931014880221012 11.912044969446171 35.59082895340204 195.64102021328637 1.475457927261279
1.9413126664453666 11.86642821740072 32.99905277824236 206.18683150675832 1.5241785962183725
1.9505032825584916 11.81838013530239 30.646743635116042 217.4438927548163 1.576624922279259
1.9585146068670236 11.76787136831967 28.513685465580004 229.47402483117042 1.633160215976966
1.9653903942427957 11.714892378741443 26.57774778441464 242.34411016689873 1.694185378083739
1.971044276872377 11.659484784080675 24.81524479586665 256.129475581458 1.7601471312656352
1.9755170126612804 11.601599965183524 23.217590451553107 270.91323456232783 1.8315411222786195
1.978737826741084 11.541330073154228 21.76135766062067 286.7881556985628 1.9089186814594166
1.9807368659581708 11.47863453140227 20.439674897297657 303.85714003370975 1.9928929669290292
1.981446958942557 11.413625614027263 19.238212772121944 322.2352175168864 2.0841469816223457
