M[M_sun], R[km], Lambda[1], P_c[MeV/fm^3], rho_c[fm^-3]
0.24162668629717493 15.618656898711224 2160425.4255784233 3.5677272577965504 0.1711233750220791
0.2536453427334327 15.277240679074586 1723185.0425760527 3.784846384347178 0.1738885068322668
0.26604249975053496 14.981226772930738 1383018.4883224668 4.01145778005474 0.17666734142088794
0.27881893504218963 14.72343489104183 1116321.6009256807 4.247816704927684 0.1794585405729084
0.2919760350853927 14.498292071084114 905809.1145649762 4.4945487062888 0.1822686771294078
0.3055127142313054 14.301131789509476 738596.5474112723 4.7518106774165005 0.1850934825716022
0.31943087393925684 14.12804095182102 605028.8107805125 5.020282853328397 0.18793953056080748
0.3337321895498711 13.975797487294086 497594.73792408366 5.3001920666561615 0.19080349834146298
0.3484143219538339 13.841915116820786 410933.49511705 5.592263815806075 0.193691619247106
0.3634798621624055 13.723852445725212 340609.6615126366 5.896669345486532 0.19659902935263548
0.37893387042737586 13.619910581402562 283241.72847308853 6.214271162372336 0.1995333760452096
0.3947693956787093 13.528335481072757 236365.31542820414 6.545323177895071 0.2024907750651926
0.41099647815521284 13.447767883018068 197821.1408558191 6.890534881426607 0.20547505706883787
0.4276071864257612 13.37695581471705 166043.46433900335 7.25060840062669 0.20848923984298498
0.4446044946361764 13.314833718530176 139765.89988718377 7.625797811624822 0.21152879117968035
0.46198644683525236 13.260505201386087 117942.82129484728 8.017061991391058 0.21460002479627072
0.4797557751361463 13.21308019470318 99775.49309180585 8.42510169069879 0.21770451607677346
0.49791627965938995 13.171904170921572 84616.92656008297 8.850351284908708 0.2208396381286422
0.5164576691945634 13.136326526213644 71915.10512586898 9.29369716271837 0.22400898253207932
0.5353784028739338 13.105780374273614 61253.97162674718 9.756018417937094 0.227215381063233
0.5546885780275397 13.079764737307775 52287.05191557773 10.238120860542422 0.23046013184544167
0.5743740805591896 13.057788168757563 44714.47894081005 10.74047861441686 0.23373996916193618
0.5944333515493665 13.039508490315434 38314.12664065009 11.264343123408596 0.2370611604565107
0.6148751529342649 13.024457478756352 32889.661584720605 11.810647596799713 0.2404252593827721
0.6356825216890898 13.012394467870326 28281.249921439045 12.380371530686523 0.24383389977209388
0.6568548529574393 13.003005929456068 24360.9168917312 12.974191139588811 0.24728488587750302
0.6783897431322512 12.995969171435421 21019.431161683013 13.59345910536273 0.25078329059124854
0.7002821559665791 12.991053108642175 18164.591029963765 14.239361499893754 0.254331612557462
0.7225195684391693 12.98799309807605 15721.959292759993 14.913088651672611 0.25793183762128363
0.7451105609709412 12.986651925986424 13627.881181737206 15.615652272886516 0.26158367945340055
0.7680348153882564 12.98675473848493 11830.737338754605 16.34835499275704 0.2652893942221798
0.791282565244603 12.988156346013591 10285.494968349896 17.11279637342985 0.26905349838170256
0.8148600517907316 12.990684461513199 8951.773716475216 17.91043230443262 0.27287842617257063
0.8387473625381019 12.994152064770887 7803.824755019268 18.742602014166142 0.27676502150838117
0.8629308263822018 12.998422166382644 6810.715629414213 19.61070296912665 0.2807142353913122
0.8874169930447342 13.003369113084156 5952.3140311831685 20.516796833350014 0.28473220091678597
0.9121755616925007 13.008872840724102 5208.372054602804 21.462678849574317 0.2888219336475306
0.9371994264419129 13.014767276664886 4562.687294690331 22.449799816702395 0.29298308322756705
0.9624863561838035 13.020971011826655 4002.459740345224 23.480253108076887 0.2972199898505474
0.9880117489002551 13.027358848114723 3514.9470733780413 24.556430110871304 0.3015384925255706
1.0137568326746793 13.033828332349342 3090.348149575154 25.680233477076257 0.30593992368472184
1.03972544183229 13.040275154340627 2719.950367348909 26.85370558850446 0.31042613903818866
1.065879635959676 13.04660387573019 2396.8607561887507 28.07990635354785 0.3150055861560322
1.0922149151128793 13.052735525127288 2114.5798048320326 29.360843132432823 0.3196783776907444
1.1187163106650149 13.058567035460538 1867.211482807653 30.69936942585722 0.3244498628971498
1.1453513136513578 13.064017767617505 1650.9367836590427 32.0987864525001 0.32932742836189294
1.172118251954979 13.069029136147194 1461.14318033907 33.561141687868115 0.3343094581753742
1.1989772314223948 13.073489836530836 1294.580091902868 35.090929459598826 0.33940918902462325
1.22592599249368 13.077347217124762 1148.330977731487 36.69011236203582 0.34462300669888035
1.2529253064906618 13.080509283494784 1019.4814759725452 38.36380323244691 0.34996571915524477
1.279970051697705 13.082950304051282 906.1099518004213 40.114311310143805 0.35543429425711415
1.3070239711131606 13.084545796439357 806.2725221063408 41.94698035025275 0.3610425410428234
1.3340562787810988 13.085241966962192 718.1011550818897 43.865431216862085 0.36679315279032154
1.3610665450711414 13.085029406696181 640.1921546961959 45.874218430373496 0.3726931300170752
1.3880092131651292 13.083780119463036 571.4517732650122 47.978746102189554 0.37875281324443716
1.4148525040129494 13.081454039443976 510.4815910376447 50.183854050843756 0.3849782659205725
1.4415856550387411 13.07800834892833 456.558771940677 52.494610705494935 0.3913756625898044
1.4681814402192686 13.073401947443246 408.7329029659149 54.917512933010826 0.3979571004331219
1.4945928679775868 13.067526735247629 366.2731440843509 57.45875527623474 0.4047316483141876
1.5208054733735341 13.060375310854939 328.61458910740544 60.12497080572634 0.41170908582801563
1.5467897747784627 13.05187830335146 295.0787072595623 62.92327060076405 0.4188999618315528
1.5725070944764397 13.041988479895968 265.2701066035602 65.86128701106188 0.4263156577545393
1.597920834260156 13.030643921808343 238.7424535435376 68.94722108310174 0.4339684562501699
1.623030159111704 13.017828668054078 215.07299499474874 72.18989458271818 0.4418716158136267
1.6477723151818995 13.003465790270402 193.94599532252136 75.59880709968517 0.4500394520724594
1.6721205669707508 12.98752040998965 175.1080618741852 79.18377313788598 0.4584856491999801
1.69605716019063 12.96995634952983 158.24106065025748 82.95525251168053 0.46722458286484414
1.7195366460028085 12.950732691480319 143.17436091754362 86.92586694585829 0.47627728256618806
1.7425188760199413 12.92978188116134 129.6840784991577 91.10706482727903 0.48565754947164985
1.7649991115669907 12.907115493851885 117.5868590640501 95.51322426494887 0.4953884259334256
1.7869101582233367 12.882635312552486 106.74583969373911 100.15774197731885 0.505486334595635
1.8082606797759397 12.856394192161883 97.01267299612468 105.05729879348735 0.5159775550747506
1.8289634615848873 12.82823252271033 88.26631641145603 110.22845191620257 0.5268846480117877
1.8490452378266298 12.798257996334318 80.40741871286157 115.68902283155221 0.5382316462541032
1.868416928425005 12.766302847285484 73.3300713300167 121.45890238365016 0.5500466626651394
1.8870946200532397 12.732465975162228 66.96079139716805 127.55953338789496 0.5623595455710375
1.905012653323825 12.696632411202478 61.21049857159384 134.01369090449452 0.5752007441989168
1.9221501384586661 12.658796076697275 56.03341021714447 140.84695172769247 0.5886061103568782
1.938459178787604 12.618887621390385 51.354307815117025 148.08701451954354 0.6026139219758158
1.9539500043532942 12.577025609755362 47.12951922959522 155.7622146427826 0.6172593202746978
1.968559522403277 12.533070330871183 43.30890299348557 163.9064164970821 0.6325905883467501
1.9822710021190355 12.487055002143977 39.85009524128585 172.55364703119932 0.6486500605152873
1.9950523711479218 12.438952888767348 36.71887681912579 181.74281770013596 0.6654895414143785
2.006883387308554 12.388772954361967 33.87802198801734 191.51618796362905 0.6831642180050602
2.017724296757008 12.336477184776365 31.305234707101434 201.91984520816413 0.7017333933720458
2.027553571826942 12.282075125801422 28.97048251364911 213.0035528055678 0.721259016555818
2.036355058701237 12.22558245304433 26.8502497832663 224.8233445273667 0.7418130817246027
2.0440908584693127 12.16696647807095 24.92473291458071 237.4399624375078 0.7634711940164992
2.050742168836375 12.106234509966393 23.171738516092166 250.92059918623718 0.786316850248708
2.056306464486248 12.043462813874005 21.57940738860513 265.33861375899187 0.8104388661713949
2.0607434133818887 11.978590472938711 20.12836650330377 280.7753681873 0.8359354880869575
2.0640396315109104 11.911668898686417 18.80872801163357 297.3211838133485 0.8629153710784705
2.0661871847954147 11.842740532165859 17.608090451852433 315.0764293815735 0.8914986994528883
2.0671722583684065 11.77183125547806 16.51220343660035 334.15034201631494 0.9218104566120147
