M[M_sun], R[km], Lambda[1], P_c[MeV/fm^3], rho_c[fm^-3]
0.24162668629717493 15.618656898711224 2160425.4255784233 3.5677272577965504 0.1711233750220791
0.2536448764743597 15.277260786777324 1723146.910854047 3.7848482296486163 0.17388852983305905
0.2660427139634107 14.981220312600954 1382908.865799799 4.011461659291218 0.17666738829917142
0.2788196093446587 14.723444859103541 1116312.8998615257 4.247822749385716 0.17945861067951274
0.2919764918465899 14.498300490893197 905781.5274395526 4.4945570746269885 0.18226877031279573
0.30551340303509705 14.301121224244223 738577.2032926242 4.751821653833559 0.18509360113785525
0.319431510575821 14.12803299108772 605026.154020616 5.020296518729053 0.18793967234461362
0.33373223329632884 13.975869275732183 497619.9382704719 5.300208780877138 0.19080366662593432
0.3484153127874338 13.84190668087141 410932.3225643645 5.592283620629652 0.1936918108642222
0.3634809961042791 13.723844868228044 340603.1769705245 5.896692685931418 0.19659924857103322
0.37893465252684483 13.61991015772112 283243.33888083725 6.214298320964008 0.19953362369886457
0.3947698476154753 13.52835769422554 236351.25335318962 6.545354126486752 0.20249104644253216
0.4109980876274773 13.447762032593394 197817.60969791512 6.890570217578031 0.20547535800633163
0.42760919413009724 13.376944728955872 166035.40573342712 7.250648456015204 0.20848957121094883
0.44460727688738 13.314823693344326 139758.29822092172 7.625842475588265 0.2115291467335482
0.46198905653499694 13.260463278760275 117941.61954733201 8.017112043105781 0.21460041198674917
0.47975837539507027 13.213070376212796 99779.04509470926 8.425157520564873 0.2177049358393177
0.4979185525984911 13.171903551214562 84616.00593963535 8.85041268711124 0.22084008270682368
0.5164604886378122 13.136328519305897 71916.78613861515 9.293765131107405 0.22400946103377545
0.5353819126221842 13.105771174149515 61254.03804623905 9.756093413481068 0.22721589452242452
0.5546914502322051 13.079760659074566 52284.90671023029 10.238202569752325 0.23046067102299295
0.5743771588349039 13.057790347390062 44713.60396848838 10.74056828374572 0.23374054486680354
0.5944366903414319 13.039509257636716 38313.03223178095 11.264441299125547 0.23706177386016683
0.614878085626009 13.024463922085701 32888.86141112874 11.810754859040767 0.2404259117161608
0.6356851462422187 13.01240492643211 28279.60032750631 12.380488495787793 0.24383459233113766
0.6568592707867142 13.00299001181323 24359.892864261317 12.974317270417432 0.24728560678959702
0.6783941052632709 12.995961087371818 21017.926637707056 13.59359619335312 0.250784053860451
0.7002867655599566 12.991039529373042 18163.267229243134 14.239510280297639 0.2543324196984143
0.7225247629282557 12.987988508836649 15721.695053771336 14.91324990699172 0.25793269023894144
0.7451160813104648 12.986643766416966 13627.483473881148 15.615825262256761 0.26158456366031285
0.768039946920104 12.986757929076711 11830.305207487649 16.348542059303597 0.2652903267019965
0.7912891022938974 12.988147068887603 10284.640962522079 17.11299845627318 0.2690544810421387
0.814866356002877 12.990684311361266 8951.527478528275 17.91065040496716 0.2728794610440121
0.8387554147194256 12.994136262086535 7803.442329649993 18.742835164924536 0.2767660927154806
0.8629386224938591 12.998425961787301 6810.381258230322 19.610954202310182 0.2807153625161622
0.8874233815026322 13.003372094370713 5952.028900251369 20.51706735849645 0.28473338639992324
0.9121830050310435 13.00887459141846 5208.3345984501775 21.462969959062864 0.28882318009405905
0.9372070993310075 13.014767604161479 4563.0567494361685 22.45011029770588 0.29298437278889444
0.9624943396423907 13.02097779425473 4002.155545670709 23.480586857837316 0.29722134530749117
0.9880185999213816 13.027359008435287 3514.814620069768 24.5567887007943 0.301539917033104
1.0137654573232284 13.033816786355573 3073.716734010892 25.680615518881115 0.3059413980576239
1.03973280015202 13.04027896779024 2719.727132014434 26.85411575389605 0.3104276885691798
1.065888738381318 13.046607054049108 2396.649238117131 28.08034656308873 0.3150072146825417
1.0922256678311433 13.052731480455675 2114.499644000934 29.36131182565407 0.3196800646985618
1.1187258727066343 13.058570794266775 1867.199308035612 30.699872199945396 0.32445163646532477
1.1453609061541004 13.064020187962901 1650.9395629643295 32.09932166617948 0.32932926730337886
1.1721288841966115 13.069026810605592 1461.1077170218823 33.561715620826504 0.33431139238861896
1.1989875216045622 13.073485496791374 1294.5308776341012 35.091544821535166 0.3394112238597217
1.2259374564413543 13.077349962182314 1148.2599760478943 36.690767366829256 0.3446251196429514
1.2529357678276236 13.080512897271252 1019.4116255758533 38.36450053901122 0.3499679149067674
1.279981283351817 13.082950950735242 906.0618366839776 40.1150588463822 0.3554366068845
1.3070347499530588 13.084546673306821 806.2016170146079 41.94777632766005 0.36104494740311577
1.334068370830556 13.085236735284347 718.0561770956574 43.86628456231673 0.36679568937433055
1.3610788105697504 13.085029359505928 640.1606512749008 45.87512735538615 0.3726957730475439
1.388019980119912 13.083777509635757 571.3593090307978 47.97971449019065 0.37875556958929074
1.4148650958045816 13.081455309750673 510.44567525540793 50.184892523833376 0.3849811758363315
1.4415982534964031 13.078006431107653 456.5481488232518 52.49571761448175 0.3913787017471592
1.4681939324655715 13.073399543046987 408.7104643361738 54.91869318077421 0.397960277447838
1.4946054381631764 13.06752525861287 366.2607125769295 57.460014162759904 0.40473497246819956
1.5208182429904404 13.060369108985645 328.60285679543904 60.12631406377481 0.41171256712414755
1.5468034238031985 13.051873870888894 295.0681479716975 62.924704434993835 0.4189036110536625
1.5725206453688423 13.041981330893174 265.25628238891363 65.86281814109316 0.42631948653366797
1.5979339001565076 13.030637785772837 238.72954357940134 68.94885679097234 0.4339724771373515
1.623043365670673 13.017819672310914 215.0570910530311 72.19164276522433 0.4418758423600772
1.6477842603343567 13.00345757097346 193.93264769156204 75.60067632617111 0.4500438989179719
1.6721337530268376 12.987510031708641 175.10067589718687 79.18576294991496 0.45849029140867875
1.6960703169878903 12.969949059258395 158.23724232386053 82.95738232986191 0.467229477180822
1.7195494989433102 12.950720957090434 143.16543431010237 86.9281477378329 0.47628244743783954
1.7425320011252023 12.929771873945072 129.67537179042893 91.10949754226316 0.48566296136703935
1.7650122163461324 12.907103254064141 117.58146834298248 95.515832346887 0.4953941486475542
1.7869224569266937 12.882622487622408 106.74165913458023 100.16052769741255 0.505492346058742
1.8082730748159555 12.856376977896598 97.010820218703 105.06027660209986 0.5159838784575811
1.8289762135699081 12.828222481409636 88.26369777112949 110.23163757547213 0.5268913083779102
1.849056512723728 12.798239996944046 80.40211415068232 115.6924465698582 0.5382387185160021
1.8684289687595368 12.766282993459477 73.3271670066681 121.46257043193955 0.5500541294672668
1.887105113928392 12.732442623744845 66.9562878311768 127.56345239598896 0.562367389155455
1.9050238956286971 12.696608092110958 61.20770948060968 134.01789685536068 0.5752090480518627
1.9221606820083235 12.658771372365615 56.02932335958959 140.85146929381543 0.5886149122936292
1.938468711534183 12.618862807143952 51.34931866771459 148.09187076496482 0.6026232632054969
1.9539603143646573 12.576996419380334 47.127424707008274 155.76742329030762 0.6172691911831506
1.9685690304461703 12.533042711906544 43.30590053949915 163.91200912303705 0.632601035418512
1.9822799051191275 12.487022984161383 39.847621832170034 172.5596751523244 0.6486611907818436
1.9950615122495543 12.43891956784612 36.71704223131581 181.74930317623438 0.6655013547990181
2.0068918486042207 12.388738027867477 33.877283156785936 191.52317292773412 0.6831767749588039
2.0177309159592833 12.336439739775036 31.303387567070423 201.92737613902284 0.701746760031455
2.0275594628677167 12.28203698389992 28.969406874059437 213.0116620296417 0.7212732031581758
2.036361084451749 12.225541386553532 26.849522770687816 224.83210713715928 0.7418282281042373
2.044095680985956 12.166922841805237 24.922925234743843 237.44942113824195 0.763487321970142
2.0507467457883495 12.106189557115192 23.17027762244596 250.93082234430813 0.7863340519298377
2.056310139114853 12.043415503516119 21.577736130233532 265.34967722014323 0.8104572428451382
2.0607460203460946 11.97854111620111 20.12694559480047 280.78735621964967 0.835955151250201
2.0640410061827197 11.911617551538031 18.808439439961035 297.3341901825505 0.8629364437270735
2.0661883903586142 11.84268703787291 17.607178451624915 315.09055857870584 0.891521317518498
2.067174065807486 11.771773337328991 16.511874778671253 334.16568727113463 0.9218346932162321
