M[M_sun], R[km], Lambda[1], P_c[MeV/fm^3], rho_c[fm^-3]
0.24162668629717493 15.618656898711224 2160425.4255784233 3.5677272577965504 0.1711233750220791
0.2536281286466769 15.277709776919101 1723688.3225413952 3.7845346472206574 0.1738846211793717
0.26600677839123954 14.982008444622192 1383762.7596338491 4.01080247738546 0.17665942247486288
0.2787651161184931 14.724444979181754 1117345.544894091 4.246795698699043 0.1794466984392797
0.29189919715533524 14.499492137460702 906836.1110877752 4.493135237508117 0.1822529378264859
0.3054157762350037 14.30243679239255 739622.9205994692 4.749956790527519 0.18507345705500491
0.3193118286366539 14.1293977285759 605964.6902524469 5.017974926871269 0.18791558493303698
0.3335886948441785 13.977293252534418 498617.6086312495 5.297369384452305 0.19077507861534693
0.3482471115912792 13.843317664549575 411825.6156522233 5.588919366026632 0.19365926077546344
0.3632853725725371 13.725291720629595 341382.7511732036 5.892728044306501 0.19656201181788438
0.37871452582854537 13.621288568992943 280053.3656311963 6.209685366646383 0.19949155910984642
0.3945195637422971 13.529725113929947 237019.8591609081 6.54009768437323 0.20244495454630201
0.4107188588607861 13.449055670225409 198404.07359536376 6.884568883627405 0.20542424812804602
0.42729797801606867 13.37821303332306 166569.91897216818 7.243845977442848 0.20843329604904562
0.44426665650829106 13.315963755100785 140238.70439775163 7.618257686380536 0.2114687669344512
0.4616176285984057 13.261554557928633 118358.65986231928 8.008612740882853 0.2145346630126641
0.4793504902382503 13.214078716041854 100161.40648570127 8.415677504914182 0.21763365937444332
0.4974763333161783 13.172831161383723 84069.48267877825 8.83998693909427 0.2207645958366014
0.515979444847645 13.137168526353681 72209.8418657983 9.282225054329913 0.223928218173822
0.5348665402993182 13.10653791667241 61519.15706474359 9.743360854490406 0.22712872068383824
0.5541390080358077 13.080447963070908 52517.014124876725 10.224199587030316 0.23036744734473805
0.5737838444950807 13.058374691721319 44918.94357991212 10.725345841456077 0.23364281207198156
0.5938093927320462 13.040030316772368 38493.962962863145 11.247775610383007 0.23695764633531616
0.6142051941026484 13.024904851568964 33051.76934632598 11.79254758850734 0.24031518113315745
0.6349687608666817 13.012761104736763 28425.296638614516 12.360635178234146 0.2437170393647274
0.6560979905608413 13.003285364202164 24491.380771420154 12.95290906760524 0.24716324628116926
0.6775946503464396 12.996186830612652 21133.791228039085 13.57032936005174 0.2506545103661866
0.699442253056835 12.991197654087157 18265.37386238214 14.214260215876049 0.2541954368665974
0.7216340566394281 12.988079776334626 15812.64505258057 14.885884011338481 0.25778799643297035
0.7441800579487263 12.98667307301815 13706.701321750665 15.58644401898243 0.2614342652336936
0.7670581618020611 12.986737882131607 11901.477447482826 16.316798683279846 0.2651320939340317
0.7902653168683618 12.988065051089324 10347.336872296377 17.078708634902235 0.2688877412523195
0.8137856080220002 12.990530108364322 9008.43569963415 17.873644483112415 0.27270387059086154
0.8376293375019617 12.993972021702993 7852.968053906033 18.703129065066236 0.2765830307337593
0.8617706602413678 12.998203606200352 6855.369550098004 19.56833034818837 0.2805241361641757
0.8861966827779003 13.003112138101113 5991.778864946824 20.471172730623877 0.28453226902451106
0.9109125034998892 13.008570560551764 5243.305414551739 21.413585654296558 0.28861173080210184
0.9358911206260239 13.014449232708603 4594.316615041824 22.39744190400255 0.2927656182662868
0.9611201443943974 13.020630620563066 4030.2673259209855 23.42397412077973 0.29699142416101715
0.9866019547299849 13.02700751397368 3539.690656917591 24.49596550250388 0.30129829534042407
1.0122998181660237 13.033462360999248 3112.684786343088 25.615632906835355 0.30568997390687586
1.0382139747503656 13.039898016286296 2739.998942905512 26.784550875209696 0.31016488498401884
1.0643295586884265 13.046246446059918 2414.6966174949685 28.00569001090173 0.31473102763284505
1.0906127285706217 13.052367273651997 2130.551850012002 29.281827976617123 0.3193939716453608
1.117069329754757 13.058216482791302 1881.6710954566906 30.614613215375165 0.3241508798726088
1.14365920061681 13.063689934538749 1663.927777868689 32.008052265598 0.32901411625179533
1.1703792229296148 13.068722011835995 1472.7251844969765 33.464399146280705 0.33398342583565116
1.1971931597821275 13.073202684600401 1305.0864389153894 34.987209317765235 0.3390662146341736
1.2241018244854183 13.077109040527946 1157.5626651739933 36.57971530893188 0.34426688289466356
1.2510569007793737 13.080315175715487 1027.945704559469 38.24553508367437 0.34959127216275987
1.2780637098860659 13.0828054913373 913.7210600418183 39.988331552805285 0.35504455497502646
1.3050741897450218 13.084446532113787 812.9805775125211 41.81258308175526 0.3606355664971905
1.3320828954969444 13.085242134733218 724.2075872010353 43.7216349551981 0.3663657159347059
1.3590520328936329 13.085080494321899 645.7144687781016 45.72106395269216 0.37224777760044114
1.385958802583598 13.083915707262229 576.2971985320099 47.8152442843016 0.3782866330151625
1.4127793951055296 13.081692161356784 514.9208041428526 50.00889001387755 0.38448799740755774
1.4394870862785711 13.078340814966287 460.579763808695 52.308126003780814 0.39086364546867713
1.4660470199438047 13.07380712380645 412.3774964751203 54.718683012219934 0.3974218860451343
1.4924418690367771 13.068063896459995 369.5840042076245 57.24668884998595 0.40417167611056326
1.5186351367545114 13.061029482474725 331.5907230024254 59.898703886662105 0.4111226741917488
1.5445972160890649 13.052650821699727 297.79452580251115 62.68175993661664 0.41828529799034847
1.5703028993154395 13.04289023179049 267.7088303838962 65.60340285951321 0.4256707866874864
1.595722008048144 13.031697730754708 240.9239089069841 68.67173925118853 0.43329126847928684
1.6208142720964507 13.019024117948046 217.04982222466737 71.89548764741902 0.4411598339584578
1.6455560026401315 13.004822018123068 195.7616905050209 75.28403471599789 0.44929061603124254
1.6699030996801338 12.989033448643735 176.7446652170995 78.84749697249401 0.4576988771415667
1.6938506648258653 12.971665085607356 159.73610073915452 82.59663899441031 0.4664004900466092
1.7173400174124835 12.952619066124361 144.52806549918265 86.54185811384347 0.4754076914976145
1.7403483736936327 12.931880831229448 130.91325310659255 90.6970876071547 0.4847447810442055
1.7628263580564028 12.909373655011727 118.71064709577367 95.07416633773133 0.49442503480423905
1.7847877057753532 12.885162264201234 107.7676047886974 99.68880814042453 0.5044743957197355
1.806144014984645 12.859085372413116 97.94033728032062 104.55510934393517 0.5149095761984591
1.8269045973022822 12.831206296429638 89.10654749715572 109.69041552489657 0.5257567371503906
1.847001638449596 12.801405545294784 81.17278764358993 115.11280640259069 0.5370413819488719
1.8664387153714395 12.769753828808726 74.03005443090868 120.8416112924027 0.5487900842153078
1.885143661361161 12.736107624160907 67.59615575322255 126.89787606113688 0.5610318675513397
1.9031292402295763 12.700563917985084 61.798332065664276 133.30453726763943 0.5737984164795232
1.92032927959849 12.662997396827981 56.57070639159519 140.08661557164874 0.5871243118425364
1.9367165590713906 12.623403960211066 51.84588904535864 147.27000169894566 0.6010423571664733
1.9522806989083386 12.581823511685268 47.5763828885207 154.88523862375945 0.6155962364154538
1.9669601385167061 12.538138803776283 43.71835433321109 162.96328346374418 0.6308252022653522
1.9807509275631423 12.492400317038545 40.22650464869311 171.53971708235557 0.6467779497255545
1.9936388932145181 12.444662069537863 37.063921190231426 180.6520496121783 0.6635026922178078
2.005547277968771 12.39474311693933 34.19929626349751 190.3415123228007 0.6810524895174276
2.0164867290494204 12.342764096472845 31.5983389709652 200.6534645093584 0.6994856925498208
2.02642030407997 12.28868778085335 29.23766880522617 211.63785074644005 0.7188664481168264
2.035337043670949 12.232523393993208 27.095755989162598 223.34971559083706 0.7392652710992011
2.043200355852798 12.174266950525933 25.150414632527564 235.84775405386029 0.7607530820421573
2.049982394083041 12.113901983570907 23.379716303843296 249.19903815240943 0.7834152435011729
2.0556698598136895 12.05145407374481 21.770820917459407 263.4756735074959 0.8073390295016172
2.06023572542218 11.986918500092953 20.305752170257183 278.75761444773985 0.8326209835081814
2.063684902972272 11.920394576465556 18.970941085206974 295.1344091504197 0.8648720856878284
2.0659168023331365 11.851983335408425 17.763699338157068 312.73771816286614 0.9331080859603433
2.0668545399604366 11.781719925572924 16.67126956953959 331.7087162816682 1.0085239196187235
