M[M_sun], R[km], Lambda[1], P_c[MeV/fm^3], rho_c[fm^-3]
0.24162668629717493 15.618656898711224 2160425.4255784233 3.5677272577965504 0.1711233750220791
0.2536449431461016 15.277275146862479 1723213.7619168547 3.784838194487419 0.17388840474961584
0.2660417485575652 14.981242450855623 1353376.5242080484 4.011440563169514 0.1766671333649907
0.27881756855548456 14.723479141008509 1116354.205675857 4.247789878372641 0.17945822942529666
0.2919736555098383 14.498346958361203 905849.6274537932 4.494511565938578 0.18226826356298825
0.3055104628274435 14.30115546202412 738596.9423012456 4.751761961980729 0.18509295635192108
0.3194287064575295 14.128040865993166 605031.9280734665 5.020222203772669 0.18793890129825822
0.3337255689449774 13.9759427079924 497645.35220863274 5.300117886006245 0.1908027514654063
0.3484099217170744 13.84195209604641 410960.2367623301 5.592175918662164 0.193690768818059
0.36347354816990673 13.72392010974001 340629.54315706174 5.896565756836804 0.19659805642611553
0.378928795008484 13.619936845022893 283263.433225932 6.214150628377364 0.19953227692030784
0.39476294944849505 13.528381546361539 236379.30193503262 6.545185823511857 0.2024895706528085
0.4109892411142162 13.447826440417229 197837.83362771268 6.89037805467161 0.20547372146638251
0.42759888823983316 13.376990996699282 166051.2125705513 7.250430629535217 0.20848776918830406
0.44459561643577156 13.314863653125489 139778.90580423514 7.625599587364318 0.21152721318710896
0.461978654252336 13.260512764997275 117966.1936710321 8.016839855977388 0.21459830639925723
0.4797452234080896 13.21312081522623 99795.81962771023 8.424853911569214 0.21770265312410791
0.4979041446293803 13.171935679305037 84625.95867991562 8.850078775520652 0.22083766504423838
0.5164450504034079 13.136354109075995 71926.33723315888 9.293395512391024 0.2240068588949691
0.5353644310418892 13.105809044788952 61262.85502410522 9.755685580942291 0.2272131022849857
0.5546730255819029 13.07979283764833 52293.13971110724 10.237758228191046 0.23045773893008417
0.5743582145707672 13.057819553085334 44718.522479191124 10.740080655015323 0.23373741413930593
0.5944172113194185 13.039495297723285 38319.69095787193 11.263907412686397 0.23705843812803365
0.6148562324325998 13.02447890214455 32893.654052960315 11.810171560194535 0.24042236428596309
0.6356628010585836 13.012412907330136 28284.496338388082 12.379852432990432 0.24383082615611673
0.6568351239105372 13.002998954026204 24364.310764161877 12.973631364619516 0.24728168643332504
0.6783682231185002 12.995968906066283 21022.102755701937 13.592850702909704 0.2507799031693909
0.7002593049165216 12.991045292054972 18031.136483510854 14.238701207036046 0.25432803043648333
0.7224957360146035 12.988010982715908 15724.534287600312 14.912372995808516 0.25792805367896166
0.7450856532597093 12.986655925198471 13629.868624190745 15.614884541953446 0.26157975532212674
0.7680092031988143 12.986749034254425 11832.848757782618 16.34752478828343 0.2652852558611013
0.791256603379589 12.988142634739637 10286.918483582383 17.11189952778991 0.269049137325053
0.8148322200618285 12.990679510773399 8953.152961893991 17.909464373650465 0.2728738334102197
0.8387180588727887 12.994142796640396 7805.148747106932 18.741567291783593 0.2767602674944131
0.8629032350063189 12.998411296787843 6812.085746545882 19.609587998763974 0.2807092332224699
0.8873835503694929 13.003367217855063 5953.147850214398 20.51559624736386 0.28472693976284086
0.9121432245639078 13.00886094025215 5209.284072957386 21.46138691270247 0.2888164019479735
0.9371652915422901 13.014753062972188 4563.644104561299 22.448421911309573 0.2929773601930256
0.9624511773081026 13.020961671182818 4003.0248175790575 23.478771939039074 0.29721397438298663
0.9879734223040186 13.027349181716481 3515.2820731128886 24.554838704715046 0.3015321706243877
1.013718673218489 13.033802183113167 3090.7031352218637 25.678537994752162 0.3059333804919017
1.039685859836221 13.04026340169748 2720.3619718550494 26.851885298132824 0.31041926230894346
1.0658386016904844 13.046590858143551 2397.2618915600224 28.077952732241037 0.31499835886131866
1.0921735356069717 13.052727232446044 2114.8224059591957 29.358763105224384 0.3196708908699373
1.1186735727756842 13.058554531783637 1867.6378993051246 30.697138153983634 0.3244419919410329
1.1453076560636453 13.064010089202329 1651.440356794593 32.09641121955763 0.32931926729545363
1.1720720788927363 13.069016715624118 1461.4286059347064 33.5585946264758 0.3343008743158691
1.198930482571505 13.073474473305941 1294.8942722669342 35.08819854504049 0.33940015863053147
1.225878004573091 13.077340937892213 1148.5835121622106 36.68720552062986 0.3446136296784741
1.2528753298480455 13.0805054872921 1019.7077071814097 38.360708664805145 0.34995597465840633
1.2799203266530363 13.082945811228976 906.3024375256797 40.11099383494608 0.35542403109714926
1.3069657872277198 13.084526170970433 806.4347625818139 41.94344790433059 0.3610318619236375
1.3340052164089526 13.085236440502511 718.2969855701899 43.86164418599012 0.36678189577606196
1.361014024809213 13.085030076222735 640.3324766857506 45.87018475126853 0.3726814006261719
1.3879475253886553 13.083767103781817 571.5680003434222 47.97444854165989 0.37874058099988706
1.4147972079476465 13.081456605130462 510.57799741369456 50.17924547270686 0.3849653521767571
1.4415285192320755 13.078018693918548 456.67889445130464 52.489698427356196 0.39136217531450695
1.4681257185690773 13.073413807538182 408.82538941213585 54.91227519836127 0.3979430013934313
1.4945362261529813 13.067542880590873 366.3643814188986 57.45316856598965 0.4047168963211339
1.5207483378017361 13.060393323612326 328.6980112016293 60.11900968038993 0.41169363649376484
1.5467349612798404 13.051898058146831 295.1573486745657 62.91690752684227 0.41888376730253507
1.5724503215453085 13.042010155732552 265.34053345491355 65.85449216996903 0.42629866641792674
1.597864413685845 13.03066957336568 238.80320575334162 68.9399621605936 0.4339506124108206
1.6229622894103424 13.017848893548582 215.1361318765726 72.18213653664044 0.4418528593382601
1.6477132600646285 13.003503195106815 194.00274009194288 75.59051190355397 0.45001971799744545
1.672062772913263 12.987559410647336 175.1482537738058 79.17494282570145 0.4584650481826789
1.695999061307404 12.969999851237427 158.28778471816247 82.94580090498211 0.4672028631001787
1.7194793030774636 12.950781883841893 143.21042250652704 86.9157453761446 0.4762543621906936
1.74245928177511 12.929826036252045 129.720956017916 91.09626908205152 0.4856335329122896
1.7649427008543677 12.90717387902155 117.61738680245604 95.50165031328947 0.495363030099147
1.7868684002351993 12.882736441557103 106.7665005187573 100.14537974047845 0.5054596574248538
1.808205927247851 12.856464558862832 97.03662223913564 105.04408414891867 0.5159494937493101
1.8289186335958731 12.828331198139702 88.28687758055858 110.21431492067305 0.526855091314686
1.8489913858547458 12.798340286784024 80.42250104729307 115.67382935045691 0.5382002617650276
1.868364355213331 12.766394059562922 73.35051612718586 121.44262476736233 0.5500135274034582
1.8870407520558838 12.732564855191008 66.97243300234068 127.54214212763613 0.5623247383405607
1.9049624330457164 12.696736175416918 61.22494137655153 133.9950263315677 0.5751638945366607
1.9221022017366454 12.658906847379258 56.046617260950846 140.82690436189344 0.5885670504646737
1.938413363354829 12.619006260749469 51.367259066566056 148.06546426897657 0.6025724689966584
1.953906676094783 12.57714937117015 47.1404921922107 155.7391006138499 0.6172155168761233
1.96851987890878 12.53320987346384 43.32070077553978 163.8815985758234 0.6325442282635876
1.982232697945569 12.48719484337377 39.8599666367023 172.5268966246439 0.6486006688144117
1.995014607056679 12.439101276178079 36.727166051529885 181.71403780922577 0.6654371184440299
2.0068481685518065 12.388931840520543 33.88578547497069 191.48519163340868 0.6831084955304779
2.0176910904727503 12.336644050425907 31.31297882018061 201.88642620155076 0.7016740779318202
2.0275237275724245 12.282249221485577 28.978448400882606 212.96756768086215 0.721196062733067
2.036328601611677 12.225764782359876 26.85666254946518 224.7844600859345 0.7417458690418799
2.04406783149989 12.167158086912448 24.930730647418702 237.39798918632923 0.7633996257675112
2.050723628712905 12.106434881037039 23.17714417021099 250.87523377205568 0.7862405175358952
2.0562893367406105 12.043673497881192 21.583992456565888 265.2895196430834 0.8103573196699505
2.060730619204622 11.978809710547264 20.13292258963953 280.7221714615212 0.8358482330752508
2.064030584750863 11.911899713160278 18.81334548578817 297.26346842995935 0.8628218618158733
2.066185035531539 11.842983853215516 17.61111910445953 315.01373170548794 0.8913983328051591
2.0671708986091657 11.772078919788369 16.516651862014726 334.08224837814424 0.9217029081498055
