M[M_sun], R[km], Lambda[1], P_c[MeV/fm^3], rho_c[fm^-3]
0.24162668629717493 15.618656898711224 2160425.4255784233 3.5677272577965504 0.1711233750220791
0.2536353878702675 15.277513122299553 1723428.7659413263 3.784661557279394 0.17388620305203042
0.26602284211580035 14.981613767848389 1383429.424460483 4.01106924580021 0.1766626462137192
0.27878566810124805 14.724106893414659 1116958.2771587805 4.247211328164897 0.17945151911474339
0.2919313818078831 14.499006950683086 906493.2803795928 4.493710611191687 0.18225934474598973
0.30545530697625095 14.301904196635233 739192.634510545 4.750711418056187 0.1850816084725428
0.3193604115289315 14.128830706873986 605547.2525402334 5.018914342533485 0.1879253317331136
0.33364647661018976 13.976713611303468 498189.16535668034 5.29851828864475 0.19078664617418803
0.34831510816744693 13.842748300190367 411450.63309599616 5.590280602110103 0.19367243110903418
0.36336465717679833 13.724703898386203 341061.9193919135 5.894332156408141 0.19657707797820928
0.37880416275281575 13.620703328402856 283673.23246055015 6.211551730077139 0.19950857809708705
0.3946218777207942 13.529129237421163 236747.1021019108 6.542224336336876 0.20246360241105713
0.41083168312786617 13.448527017462453 198160.8666913802 6.8869968288395516 0.20544492552832033
0.42742364739612626 13.37770415654281 166357.4963764339 7.246597955102572 0.20845606245495307
0.4444028494340063 13.315523896209474 140041.90815179402 7.621326067270066 0.2114931932192943
0.46176889016344397 13.261116576992581 116872.7498837232 8.012050978434518 0.21456126055982191
0.47951554699243076 13.213672124335671 100001.93053431012 8.419512356621096 0.21766249209825494
0.4976550104845083 13.172458268185165 83935.81331487093 8.844204246366978 0.22079513094317257
0.5161728639133262 13.136828735755325 72096.00403575899 9.28689297864559 0.2239610806520155
0.5350748585561044 13.106229676438849 61414.575348915394 9.748510981411028 0.22716398117885786
0.5543616463650854 13.080164482968064 52418.1872765202 10.229865418540209 0.2304051795723459
0.5740228116227001 13.058133648095623 44834.79086773598 10.731502750127214 0.2336823413328219
0.5940649189675825 13.039793439311719 38422.804548551714 11.254516060812383 0.23699976079157611
0.614479060290477 13.024717247442544 32983.68384403853 11.799911317392704 0.24035996489089081
0.6352579438307714 13.012608446234516 28367.191104511898 12.36866439783058 0.24376458096974982
0.6564043413609865 13.00315120175492 24437.346853653195 12.961566911967092 0.24721273096922544
0.6779180998287846 12.996090171666648 21087.96993807776 13.57973859258276 0.25070689845203503
0.6997837335491173 12.991142837141341 18223.901294643212 14.2244711802678 0.2542508318467689
0.721992122925222 12.988065503326299 15775.726974956902 14.896950281501079 0.2578465079747821
0.7445586347844876 12.98667075601365 13577.657912987668 15.598339981065973 0.2614951905013109
0.7674553498107549 12.9867404323909 11872.844233161626 16.32963444248645 0.26519607697435704
0.7906771553621403 12.98809597827592 10252.410308011575 17.092573669576936 0.2689551622208479
0.8142253723575783 12.990604756565233 8985.405173674628 17.88860732920567 0.27277486822567926
0.8380855955942885 12.994042783263325 7833.474852914203 18.719262831311273 0.2766577528138073
0.8622414890890139 12.998289786801502 6837.271662311792 19.585563807048196 0.280601451825506
0.8866910929814941 13.003210654834975 5975.737650275112 20.489728061277592 0.28461358136048515
0.9114250680166766 13.008696484641813 5229.119635661691 21.43355127532118 0.2886972178095452
0.9364250189517414 13.01457966693212 4581.194315885735 22.418734736423463 0.2928540565698629
0.961674771440991 13.020766854205133 4018.8348028334053 23.446860886070137 0.29708437411518207
0.9871753976760074 13.027158130458949 3529.329104533305 24.52055367871864 0.30139597249197003
1.0128929891837064 13.033612610724909 3103.5074280396752 25.642011655965767 0.3057924183159493
1.0388315885840518 13.040058280300576 2731.746322233699 26.812671374180912 0.3102711191654866
1.0649612686409358 13.046397626161728 2407.5736352865783 28.035867799031916 0.3148426683934466
1.0912654164440576 13.052509996985759 2123.9327871041264 29.313956252241404 0.3195096137107465
1.1177394419608992 13.05835935375008 1875.9772611081773 30.64907477456045 0.32427244525568827
1.1443513676807755 13.063828906398506 1658.5528608728023 32.04500840160305 0.32914192494639155
1.1710872990798862 13.06884759894313 1468.028429121792 33.50373204104586 0.3341159817464009
1.1979194177272698 13.07332012183719 1300.81262139058 35.02937774849873 0.33920565420272186
1.2248447661068058 13.077209423325506 1153.8181780087216 36.62459711510851 0.3444116646538351
1.2518235176793067 13.080405582773945 1024.4601037926786 38.29364550099892 0.34974367541799195
1.27884006350986 13.082866086441822 910.5736579010043 40.039545394425716 0.35520299349156104
1.3058638378288054 13.084479682322602 810.1930893272176 41.867371745490914 0.36080187216997767
1.3328816161398085 13.085226150032858 721.7159986731881 43.780088000986304 0.3665394686164776
1.3598738763688991 13.085059861917573 643.5061695027042 45.783319321288694 0.37242880775556725
1.3867862247709075 13.083842358904015 574.3060973798267 47.881903112716316 0.37847716683479915
1.4136192447904405 13.081579518892088 513.128314747016 50.08000604788229 0.384687272371988
1.4403456023381154 13.078215370299878 458.93882753417483 52.3839224404795 0.39107175408538103
1.4669136331690225 13.073637182984388 410.8793847747711 54.79949464664255 0.3976394164313445
1.4933163942082797 13.067841385368219 368.21870892340974 57.33287755557085 0.4043992617791089
1.5195176532774135 13.060764278573995 330.34512392556843 59.99066103562657 0.41136099777176527
1.5454931009175155 13.052338032082663 296.67038771615125 62.779909061431894 0.4185350953162047
1.571203353311204 13.042525417967262 266.71050813922227 65.70820258228967 0.425932851295365
1.5966225007184767 13.031271704982958 240.0271691998653 68.78368651103511 0.43356645655548587
1.621716883493577 13.018537444850804 216.2487521391932 72.01512125952758 0.44144906978872334
1.646448633844685 13.004268062120671 195.02194833925338 75.41193930038423 0.4495948980063745
1.6708130786755524 12.988429655061697 176.07345055588524 78.98430729506721 0.45801928438125755
1.6947448935787988 12.970969461193976 159.12882116669536 82.74234796027818 0.4667353288258002
1.7182352195473485 12.951857889549508 143.97650021279426 86.69787943386785 0.4757610030235198
1.7412394561064626 12.93103886728109 130.40686255106095 90.86389942099238 0.4851165959486306
1.763722665756645 12.908485158068093 118.25731521545691 95.25254056412162 0.4948164276859687
1.785657797793182 12.884144894561983 107.34817192217825 99.87931306170613 0.5048854970750392
1.8069989718616717 12.857974692673713 97.56441182130206 104.75956251720399 0.5153451134284968
1.82774897422967 12.830008294443507 88.76761983057018 109.90908486449112 0.526215321399643
1.8478298273393718 12.800116067071663 80.8597099605984 115.3468666580213 0.5375248696686068
1.8672498789336969 12.76836600276882 73.74807542920729 121.09234588626761 0.5493004879644389
1.8859460901589944 12.734647002254063 67.33705282231168 127.16668843478632 0.5615713718403627
1.9038864918963478 12.698930765094175 61.560962765721165 133.59296355816787 0.5743693953954753
1.9210600497217853 12.661260327045813 56.35112003614047 140.3955582168768 0.5877266241415325
1.9374270849464756 12.621578954850543 51.646851530893606 147.60180312030698 0.6016805937086118
1.952965206163321 12.579888004444168 47.39354827755925 155.2418155860313 0.6162731119694741
1.9676136676543088 12.536087406493813 43.55264808334517 163.3464213746298 0.6315426027277828
1.9813796778277792 12.490257489701815 40.0728807867276 171.95143226615707 0.647538136796437
1.994222432235292 12.44235556996299 36.922077506639965 181.09494424799317 0.6643094309380264
2.0060897650204024 12.392309961475748 34.068093488197974 190.81845284326565 0.6819098912111087
2.016989780091518 12.34020125828075 31.479580441945455 201.1676123098184 0.7003982541791389
2.0268847471437126 12.285994962084015 29.131342356045277 212.19269688028788 0.7198390964580019
2.0357498193086347 12.229694217644495 26.995422952876925 223.94817738067272 0.7403003344767674
2.043563819648689 12.171299599924748 25.057335537705804 236.49460124552922 0.7618581419063428
2.05029641018313 12.110791909014441 23.29535512060223 249.89797869116472 0.7845934992617627
2.055918852374584 12.04817029000681 21.692008497882668 264.231865300905 0.8085973765796671
2.060443252137891 11.983529918864544 20.233409261438094 279.5767865381842 0.8339670112746067
2.063834848325545 11.916841553148991 18.90506017675047 296.0221236162419 0.8608099496453554
2.0660656548364167 11.848113899662964 17.69554620873843 313.6657821751532 0.889240530728361
2.0671378044864754 11.777411577859166 16.59393968655965 332.61838453969864 0.919390852149599
