M[M_sun], R[km], Lambda[1], P_c[MeV/fm^3], rho_c[fm^-3]
0.24162668629717493 15.618656898711224 2160425.4255784233 3.5677272577965504 0.1711233750220791
0.25364429219380397 15.277262833874302 1723175.1490198914 3.784826131700959 0.1738882543928019
0.26604061139808194 14.981254070243304 1382965.368600219 4.011415204637427 0.176666826922096
0.27881598232304877 14.723486828530591 1116407.1294025471 4.247750366024536 0.17945777114160247
0.2919716836985923 14.498386276366597 905893.9807435472 4.494456862783444 0.1822676544306599
0.3055063741284024 14.301208563064128 738606.9716512462 4.751690210412213 0.18509218129804117
0.3194237388680597 14.128102436406895 605067.8329970309 5.020132875087147 0.18793797447866822
0.3337222970533292 13.975939457390352 497665.178933002 5.300008628214279 0.19080165142073263
0.3484034241553811 13.842007202216246 410994.1976326281 5.59204645880653 0.19368951625834255
0.36346665121124133 13.723961853082256 340621.50497240806 5.896413186175778 0.19659662345017978
0.3789196871247856 13.619989567762739 283294.8716213223 6.213973100353532 0.19953065807848816
0.39475179059984156 13.528477853894481 236393.48687502372 6.544983522277935 0.20248779674428258
0.4109783147211815 13.44785915272096 197864.87581078024 6.890147074496592 0.20547175434228498
0.42758597353401046 13.377067654869325 166080.70613604106 7.250168802650404 0.20848560316158646
0.44458296964801536 13.314904614801438 139796.88081898759 7.6253076372782225 0.21152488907670033
0.4619644212299841 13.260571493156174 117976.37230238573 8.016512689968575 0.21459577550567668
0.47972937038284214 13.213139091248456 99802.78655362064 8.424488978114702 0.2176999093346976
0.4978864676532603 13.171979415300466 84639.5267313335 8.849677420059987 0.22083475905921715
0.5164257001755147 13.136399586787332 71934.43588132857 9.292951239199475 0.22400373118400338
0.5353452049788894 13.105831204429126 60680.949105752916 9.755195377335507 0.22720974609161376
0.5546523993485273 13.079794249779638 52301.70915894699 10.237219491377187 0.23045415482860707
0.5743353418817918 13.057844141097869 44728.61484045091 10.739494542370625 0.233733651114572
0.594393051914544 13.039512739006183 38323.266487795634 11.263265702122192 0.2370544287088159
0.6148294966877977 13.024500397088312 32899.241021564354 11.809470460283004 0.2404181004287416
0.6356354471390123 13.012442863676512 28290.192922446873 12.379087915744496 0.2438262993927741
0.65680622626196 13.00303228377182 24369.735522640553 12.972806940856863 0.2472769743651686
0.6783385169360644 12.995978931135637 21026.533261551707 13.591954664531343 0.2507749142677632
0.7002274124954678 12.99106030360211 18171.042825572902 14.237728748972096 0.25432275480402555
0.7224583367280013 12.988018721492212 15727.901795106525 14.911319004226767 0.2579224808281638
0.7450497394255702 12.986650139318128 13632.78293106087 15.61375385909021 0.26157397602134147
0.7679708378999411 12.986752023959939 11835.324470464115 16.34630210080336 0.2652791610706738
0.791217161440187 12.98813756081896 10288.10114201993 17.110578698417502 0.2690427145790853
0.8147921104463195 12.990667676012736 8955.315282074092 17.90803885818057 0.2728670694412443
0.8386737228019568 12.994142510114518 7806.598289438724 18.740043413269486 0.2767532660611167
0.8628551677864161 12.998408138822045 6813.515651040172 19.607945940984624 0.2807018663448056
0.8873368801475572 13.003364831972405 5954.812557128553 20.513828106006546 0.28471919149325847
0.912094775006368 13.008842624854259 5210.672331324406 21.459484242138267 0.2888082552636062
0.9371141798881379 13.014741852973167 4564.750084777238 22.446392637897834 0.29296893174656635
0.9623985810191094 13.020948561946385 4004.16719148278 23.476590593986433 0.2972051152925871
0.9879198845664953 13.027337244762062 3516.281201896081 24.55249501914588 0.3015228602742212
1.0136624971156944 13.0337966730271 3091.5534635008803 25.676041041455207 0.3059237442682427
1.039626610808988 13.040250901964333 2721.164577984304 26.849204547776313 0.3104091349168181
1.0657771096476676 13.046585059481256 2397.8828331158998 28.075075634490048 0.31498771522567975
1.092109438720044 13.052708490373808 2115.523151502395 29.35569985790283 0.3196598650604231
1.1186093358649878 13.058542110099046 1868.3859749214403 30.693852180574428 0.32443040045690613
1.145241390663909 13.0640024355637 1651.9715691859817 32.09291324578407 0.32930724860210425
1.1720048152177978 13.069010955547906 1461.8749195411838 33.55484361640453 0.33428823302518357
1.198860619118614 13.073463009060562 1295.2737317544365 35.08417679210749 0.3393868597838817
1.225807349352032 13.0773385679542 1148.9459034327929 36.682924696824045 0.3445998204035338
1.252803434808541 13.080493060598469 1020.0581181295661 38.35615139524245 0.3499416242534431
1.279847535302234 13.082932555712762 906.6053492644628 40.10610831463874 0.3554089169294652
1.3068905947983454 13.084520887435271 806.6534442002967 41.93824582054705 0.36101613523624765
1.3339227289046558 13.08524736802614 718.451523272282 43.856067206833934 0.3667653181098085
1.360936826119189 13.08503391005869 640.5526877730597 45.864244563704894 0.3726641273676503
1.3878670005005536 13.083773149422745 571.7374081756278 47.96811976999831 0.37872256727276626
1.4147248599643327 13.081479938253693 510.76793407581596 50.17245871008386 0.38494633491997077
1.4414486715653028 13.078027506731864 456.8280664110236 52.48246444889397 0.3913423135199872
1.4680428788510769 13.073428415724512 408.95684538684105 54.90456196832526 0.3979222387653686
1.494452420400344 13.067562203357719 366.4727510231377 57.44494145348851 0.40469517221139045
1.5206646512247006 13.060414894357967 328.79769326893364 60.1102312270013 0.4116708855444135
1.5466483859150313 13.051928299216767 295.25571210087566 62.90753719105062 0.4188599190529706
1.5723645692234114 13.0420469683223 265.4328401071749 65.84448604583156 0.42627364487274516
1.5977888419019768 13.030717653425768 238.88937328309473 68.92927266773852 0.4339243355642201
1.622875190223248 13.017895994875945 215.20129248992635 72.17071207834337 0.44182523865020557
1.647627584532689 13.003555834772998 194.07393095710614 75.57829648923746 0.4499906578162712
1.6719773836483005 12.987620193346148 175.20158100982223 79.16193944931787 0.4584347114543443
1.6959143924958224 12.970066585268052 158.34937276664544 82.9318826780939 0.4671708790553261
1.7193941620631674 12.950856322110427 143.2615271428449 86.90084064003355 0.4762206102966718
1.742377494818066 12.929918327915951 129.765230509734 91.0803716331594 0.48559816694014524
1.7648588870379465 12.907265695826128 117.66454131850301 95.48460698031327 0.4953256332210059
1.7867860885614264 12.882827271009564 106.81119736670652 100.12717568251475 0.5054203738575288
1.8081238289554735 12.856569437705451 97.07404888303144 105.02462495416584 0.5159081721084644
1.828833645344863 12.82843418339267 88.31728760187819 110.1934976078572 0.5268115678511548
1.8489130573424375 12.798466294282244 80.4545837419601 115.65145643001355 0.5381540470316929
1.8682891511207134 12.766526267392917 73.37721014755586 121.41865552833853 0.549964734816552
1.8869674455511574 12.7327052824396 67.0014016016543 127.51653312046714 0.5622734839402731
1.9048915796703383 12.696887172113254 61.248988622941795 133.96754247570055 0.5751096328715175
1.9220324833430937 12.659069852702615 56.067941651876176 140.79738446946297 0.5885095344883714
1.9383458489993426 12.619181057041077 51.38559824270362 148.03373152988644 0.6025114294942163
1.9538415679556957 12.577335578067883 47.15486074186549 155.70506537184994 0.6171510166855577
1.9684573096668603 12.5334036969819 43.332688655471884 163.84505454371282 0.6324759637079029
1.9821722316780226 12.487402584710427 39.87445868643659 172.48750725750872 0.6485279406547408
1.994962626143233 12.439325547263248 36.74229982957628 181.67166029616976 0.6653599272164008
2.006798187076153 12.389163082118454 33.899314929875956 191.43955073119807 0.6830264463331936
2.017644312688493 12.33688808191455 31.323949745382393 201.8372182816534 0.7015867387279635
2.0274797713664965 12.282502354410392 28.98912698300836 212.9145815592126 0.7211033666833001
2.0362894234578945 12.226035805270575 26.86587932168389 224.72720523037367 0.7416469026609982
2.0440331829616034 12.167439296424087 24.93890793344609 237.3361866195872 0.7632942467139355
2.0506926810389374 12.106731799333765 23.18491267750444 250.80843690142487 0.7861281238449161
2.0562650640787457 12.043984086987773 21.59115932632825 265.2171300756288 0.8102369144074844
2.0607110931354584 11.979136780100466 20.13963767991397 280.6438446455905 0.8357197588667177
2.064016313070295 11.912236748222151 18.819347361247708 297.1784889343014 0.8626841798061866
2.0661769709770716 11.843334386034034 17.616794226444377 314.9214170007835 0.8912505551198323
2.067168955145351 11.772441821301019 16.521507301425494 333.98198948593205 0.9215445572381802
