M[M_sun], R[km], Lambda[1], P_c[MeV/fm^3], rho_c[fm^-3]
0.24162668629717493 15.618656898711224 2160425.4255784233 3.5677272577965504 0.1711233750220791
0.25363739550606984 15.277466698124547 1723314.6332487438 3.7847125140077678 0.17388683820306725
0.26602685173607943 14.981580112654754 1383369.8300385205 4.011176361808218 0.1766639406474604
0.2787960292671614 14.723865569632101 1116760.0406824597 4.247378221996545 0.17945345483168684
0.29194341290673503 14.498833021599951 906227.0937600727 4.4939416567267205 0.1822619174916452
0.3054731180938969 14.30159928827704 738968.5726610192 4.7510144539342205 0.18508488183837823
0.3193796260236149 14.128625240871079 605398.4541834339 5.019291595157463 0.1879292458746935
0.333668622473626 13.976505786029863 498058.75158310623 5.298979682449294 0.19079129164420902
0.34834242587048503 13.842510950789784 411287.9848122777 5.590827283081998 0.19367772039782402
0.36339616861579044 13.72447384366084 340923.1902272213 5.894976397442684 0.19658312882634166
0.3788407407930942 13.620460950546294 283562.9650475935 6.21230131863727 0.19951541344219206
0.39466210429065035 13.528923729920356 236648.6813831113 6.543078488189622 0.20247109216890308
0.41087804605150385 13.448304565813734 198066.8116796829 6.887972021347815 0.20545323067694438
0.42747416884051637 13.377486516224403 166268.92547335275 7.247703328755357 0.20846520692789955
0.44446007526145187 13.315316802681041 139971.83188756616 7.622558561436155 0.21150300466534752
0.4618291351823242 13.260970459797703 118129.15266229823 8.013432074865307 0.21457194445728256
0.4795819597340203 13.213515407641413 99944.80097571727 8.421052812135319 0.21767407417020457
0.49772727703961206 13.172303727595637 84754.72102787188 8.845898376559617 0.22080739716961342
0.5162527689028589 13.136698463665839 72045.9945680877 9.288768178844407 0.2239742821783203
0.5351573251454487 13.106118862826348 61368.14463629521 9.750579950605605 0.22717814643713313
0.5544514894768127 13.080050476921071 52382.89223086524 10.23214162668186 0.2304203382306176
0.574118378066995 13.058044258266875 44801.795270421986 10.733976304852147 0.23369822232036733
0.5941666911950124 13.039715888595154 38057.26089409276 11.257224130553679 0.23701668086032576
0.6145866125820507 13.024656368582532 32958.65919718323 11.802869880347405 0.2403779578899087
0.6353740204754037 13.012548137715127 28345.058696445052 12.371890428193147 0.24378368253490762
0.6565274720437589 13.003101599624951 24419.040456867675 12.965045596607135 0.24723261370412616
0.678048684740958 12.996061330106162 21068.77956588525 13.583519286521907 0.2507279483429797
0.6999214710924356 12.991103974963806 18207.999983794463 14.228574129336721 0.2542730905457123
0.7221388995476576 12.988031634237108 15760.160709969394 14.901397031294849 0.2578700196171568
0.7447104629685903 12.986661562412321 13661.448378117007 15.603110109449924 0.26151957223345845
0.7676155156693596 12.9867366556851 11860.204364167777 16.334792486306085 0.2652217885291159
0.7908443715673891 12.988109737187944 10310.826072709742 17.09814548247949 0.2689822560602189
0.8144019819234751 12.990610217488726 8976.352988535145 17.894620477509918 0.27280340018442223
0.8382673795801544 12.994068351152999 7824.552664058103 18.725699372749535 0.27668736261673343
0.862433530748161 12.998320849888037 6830.144103925784 19.59248980380662 0.2806325244049635
0.8868898304426933 13.00325715757814 5969.350183364292 20.49718551896801 0.28464626109638164
0.9116311943983598 13.00875110753506 5223.343875957127 21.441575762055923 0.28873157633795643
0.936635932328108 13.014627513209598 4576.400619489611 22.427292846821498 0.2928896020882072
0.9618969786439551 13.020822508316572 4014.4233062630183 23.456059901138754 0.29712173404866943
0.9874057209376865 13.027212467972927 3525.345109452406 24.53043683795347 0.30143523359185403
1.0131318035477683 13.033664835296218 3099.610140704635 25.652540731932067 0.3058330520478888
1.0390784841198197 13.04011425897711 2728.456462671983 26.823974938400564 0.3103138219956808
1.0652158902505628 13.0464496761691 2404.4503799890094 28.047998688575394 0.314887545828783
1.091527534231534 13.052577064834159 2121.308498813855 29.326871509989747 0.31955610070863183
1.1180089103897517 13.058415377506694 1873.6057629383226 30.66292840748817 0.3243213148435338
1.1446238419495616 13.063879447516607 1656.5853686616194 32.05986531354004 0.3291933059273507
1.1713713637709415 13.068902419650541 1466.1377023503057 33.51954483683858 0.33416927249858985
1.1982162155719023 13.073379573237203 1299.0678626982808 35.04633102795415 0.3392617141018365
1.2251424905443933 13.077247073977658 1152.2937908846363 36.64264173132284 0.34446987379249594
1.2521240265745655 13.080429682107075 1023.0874288992081 38.312988789431145 0.34980495071527484
1.2791524619363428 13.082887223116803 909.4356752117474 40.060136985601915 0.35526669699545405
1.3061825417441126 13.084490964516196 809.1838117049224 41.88929664209133 0.360868154454008
1.3332048783051453 13.085225549984331 720.6928878138799 43.80359167060892 0.3666093336777989
1.3602019136006123 13.085046792433477 642.5942863923493 45.8083525742334 0.3725016010546201
1.387122517419241 13.083826406868054 573.4940485000012 47.90857272320324 0.37855307715538256
1.41395843372523 13.08154375595238 512.4208958248703 50.10860402162508 0.3847674070459771
1.4406880873244463 13.078160008326014 458.27784306241284 52.414403437179864 0.3911554434820777
1.4672626962925384 13.073570960294386 410.29771616741596 54.83199343454032 0.39772689732358574
1.4936698175035752 13.067753607413303 367.6878675714378 57.36753980956768 0.40449078922688325
1.5198730110339722 13.060657514405213 329.8739530397644 60.027644312816875 0.4114568466222352
1.5458517149065891 13.052209296272508 296.23936565429125 62.81938387387647 0.41863556185226286
1.5715628969720532 13.042378977200846 266.31534104277864 65.75035357785005 0.42603825504864384
1.5969779823070736 13.031092176321312 239.6801356829881 68.8287137744029 0.43367714230161014
1.6220713137288008 13.018328256773195 215.92308538030017 72.06324174707201 0.44156540974471387
1.6468204854735031 13.004049747843673 194.730657715795 75.46338842413009 0.4497172942525083
1.67117506240192 12.988179686482027 175.8070525664648 79.03934067302873 0.4581481715324013
1.6950992409601586 12.97067434328825 158.89331187232085 82.80096269822991 0.4668700253228995
1.7185946334930067 12.951546965300777 143.75340406782334 86.76064489345852 0.47590313590829897
1.7415951721924723 12.930697725727583 130.21897914944134 90.93084174769238 0.48526551798495343
1.7640759132019759 12.9081101450145 118.07481084182315 95.32430347213281 0.49497389153002397
1.7860076436909877 12.88374019572895 107.18372494726367 99.95595900131306 0.505050895687521
1.8073438086317102 12.857533805087412 97.40846397498727 104.84160782316678 0.515519534847169
1.828088257384035 12.82953297841271 88.62690445681524 109.99706908693764 0.5263998382535903
1.848172655573902 12.799624477848367 80.73500303011306 115.44104718456346 0.5377194141372417
1.8675744124319476 12.767804205109881 73.6299813232831 121.19323975463507 0.5495058709069571
1.886263270390231 12.73404700835585 67.23489482555368 127.27486106935321 0.5617884734548138
1.9041942788145272 12.698288215710473 61.46520344692558 133.70903388470677 0.5745991723312046
1.9213585859101106 12.660574201211103 56.26413276348987 140.5197919710454 0.587968678738362
1.9377065240125415 12.620811046009553 51.56302833960352 147.7353398161013 0.6019374581868371
1.9532232119614492 12.579049795613399 47.3252450231234 155.38503193696113 0.616544521290645
1.9678803353725516 12.535266662363243 43.485500634686204 163.50063266577794 0.6318313531971007
1.9816239714524275 12.489366748246109 40.01232730902618 172.1171531597805 0.647844122306965
1.9944557424648368 12.44143165094097 36.86442872949144 181.27322353640733 0.6646341691338551
2.0063102265253807 12.391331457655276 34.017426648135675 191.01044591232252 0.6822550394539627
2.0171920500193026 12.339179403448815 31.43358078615406 201.37459353629575 0.7007656254391218
2.0270671681051016 12.284912068075029 29.085879502662277 212.41607363982263 0.7202306771528368
2.0359228267361353 12.228573898570529 26.957237134605723 224.18896630464462 0.740716543864224
2.043709847233105 12.170103998090854 25.020838353135677 236.75504426744 0.7623030771771883
2.050415468530548 12.109524854454339 23.261913098771394 250.17941138730268 0.7850679311727138
2.0560286129339236 12.046876672084535 21.659761816116507 264.53636757952773 0.8091040860625048
2.0605248018763813 11.982158563707069 20.205155359957626 279.90666882237457 0.8345090594221836
2.06388710642605 11.915408645821827 18.87829417071602 296.3797758524383 0.8613901214992679
2.0661002368301435 11.846633898528095 17.671122822351695 314.0537997629165 0.8898616705691843
2.067147200741545 11.775872923244574 16.571645076605336 333.0397504135877 0.9200563658889382
