M[M_sun], R[km], Lambda[1], P_c[MeV/fm^3], rho_c[fm^-3]
0.24162668629717493 15.618656898711224 2160425.4255784233 3.5677272577965504 0.1711233750220791
0.25364404671070095 15.27727741296206 1723223.4429489004 3.7848214466175265 0.17388819599549707
0.26604005755101545 14.981263045394897 1383011.6557857224 4.0114053556306395 0.17666670790266148
0.2788150675903618 14.723514419353826 1116415.0879120664 4.247735019860039 0.17945759314922047
0.29196978631163073 14.498400042777755 905886.735830207 4.494435616738181 0.18226741785101494
0.30550481562160337 14.301247556123373 738660.5690067476 4.751662343052441 0.18509188027736997
0.31942142388330014 14.128143800591388 605103.712019955 5.020098181106008 0.18793761451522326
0.33371973658519943 13.975930342757215 497645.36679896014 5.299966194177827 0.19080122418039638
0.3484009054908711 13.842028451979344 411007.44020041305 5.5919961787379515 0.19368902978484748
0.36346467904519997 13.723947632946002 340652.41670523904 5.896353930421457 0.19659606690759535
0.378916861163863 13.620006674877892 283309.4757809661 6.213904151794942 0.19953002935065328
0.3947506054539504 13.528443606973434 236415.9863170261 6.5449049524720015 0.20248710779322715
0.41097585461033814 13.447848626087385 197862.89037499475 6.890057366605221 0.20547099035223762
0.427582163381301 13.377056499722332 166081.90920845166 7.250067114819891 0.208484761924225
0.4445771912272652 13.314945767751107 139800.39108353056 7.6251942505361106 0.2115239864453257
0.46195868112779076 13.260574297367647 117980.23573030884 8.016385626511846 0.2145947925671125
0.4797234292737134 13.213154873919207 99808.53623981634 8.424347247068049 0.21769884371536313
0.49788110179947315 13.171988813795425 84644.19605289503 8.84952154398535 0.22083363044983606
0.5164184491442098 13.136408330341153 71936.63403646501 9.292778695449025 0.22400251646524336
0.5353379905265244 13.105838844348845 61275.72251301867 9.755004995954206 0.22720844263990264
0.554645089631408 13.079813622912873 52298.99350687438 10.237010031315785 0.23045275990630876
0.5743269107357233 13.057836998080033 44729.64467849176 10.739266913721302 0.2337321896681328
0.5943832121242629 13.039535628248638 38329.19774290724 11.263016481556106 0.23705287157420904
0.6148201370645028 13.024512837851324 32902.48079760386 11.809198175443193 0.2404164444826183
0.6356250277273569 13.01243009111417 28060.863035696137 12.378791002413902 0.24382454134691178
0.6567946681559744 13.003015115741041 24370.942897876415 12.972486762513856 0.24727514435705528
0.6783272773184842 12.995977887939812 21028.366885567088 13.591606674399268 0.25077297675194
0.700214484206483 12.99106462805178 18172.21966864994 14.237351081079858 0.25432070593727807
0.7224479361759165 12.988009940246593 15729.569570159563 14.910909672706891 0.25792031653811953
0.7450367368544204 12.986637880176392 13634.291475982534 15.613314744451397 0.2615717315585841
0.7679566891045545 12.986763840583524 11836.3513294517 16.345827256279517 0.2652767940898175
0.7912009787717622 12.988144146260279 10289.121750868546 17.110065740725606 0.26904022023953167
0.8147760940185702 12.990667229664604 8956.412420611645 17.907485246023157 0.2728644425911425
0.8386565834287389 12.994134312778833 7807.334010655795 18.739451602185824 0.2767505469953986
0.8628391022622309 12.998401181110586 6814.833674655396 19.60730823567476 0.2806990053632599
0.8873188813157508 13.003351332825243 5955.4615953164075 20.513141437032946 0.2847161824033464
0.9120730217227313 13.008847277044769 5211.054645647744 21.458745329868165 0.288805091455245
0.9370951396538237 13.014735800717574 4565.353079862795 22.44560456044808 0.2929656585215033
0.9623781117630978 13.020949037247783 4004.628608569348 23.47574346112381 0.29720167483432425
0.987898555915253 13.027335962174696 3516.5815341379835 24.551584843266276 0.3015192445775323
1.0136406670379567 13.033791864899172 3091.8388358015445 25.675071345828567 0.3059200020260667
1.0396054108880366 13.040240464809001 2721.5150578482708 26.848163477159908 0.3104052019394944
1.065755810181922 13.046568385125568 2398.38448514941 28.073958315393014 0.31498358177649227
1.0920869638344801 13.05270155257926 2115.828085165173 29.35451025042812 0.3196555832039369
1.1185847194894112 13.05853836563664 1868.673732825708 30.692576081386793 0.3244258989343326
1.1452158817268876 13.063998278011539 1652.091867380349 32.09155481994559 0.32930258118472283
1.1719782927442328 13.069004191557193 1462.0599002524434 33.55338692903425 0.33428332383855497
1.1988346732166009 13.073464859082087 1295.5160307031804 35.08261496758996 0.33938169525361384
1.2257805575973195 13.077333787837343 1149.091067338454 36.68126226761559 0.34459445766424585
1.2527758296255438 13.080497073456275 1020.2112449779647 38.354381614483756 0.34993605138349676
1.279817356398227 13.082933906322237 906.7265237375193 40.10421106599391 0.35540304747598794
1.3068605006443967 13.08451958878165 806.7418587902259 41.93622564234166 0.3610100279314771
1.3338982690470462 13.085232587172074 718.6023497601049 43.853901448470765 0.3667588803559054
1.360905634026818 13.085034408392504 640.6299455109883 45.861937763348266 0.3726574195055684
1.3878370178185702 13.083774397063756 571.8065003265161 47.965662074179626 0.3787155718771048
1.4146937382316014 13.081484964820106 510.8340961711593 50.16982316809042 0.3849389498408624
1.4414172189823509 13.07803100883144 456.88053904190787 52.47965524475115 0.39133460049792884
1.4680108303793413 13.073434767928525 409.0161737384455 54.901566662604694 0.39791417594106276
1.4944201430194153 13.067570447346265 366.52765227110524 57.44174659912288 0.4046867360356552
1.520631964016883 13.060424939429904 328.84654980867 60.106822279064964 0.4116620506394015
1.5466155763705414 13.051940667019498 295.291396352312 62.90389840753722 0.41885065805963284
1.5723315526334953 13.04206129964713 265.4660798658556 65.84060037842713 0.4262639282830662
1.5977555223345148 13.03073299683537 238.9170055646124 68.92512164146441 0.4339141315365719
1.622842110125302 13.017913229451912 215.23904120877594 72.16627565880702 0.4418145128059768
1.6475954085029356 13.00357442572295 194.10060589718407 75.5735529360713 0.44997937301570307
1.6719444046167475 12.987640728133561 175.23726128917886 79.15688992473343 0.45842293097125913
1.6958811962579907 12.970095023870927 158.36842215641286 82.92647791357686 0.46715845892220714
1.719361075920332 12.950884047253304 143.27913393809885 86.8950528119025 0.4762075037136206
1.7423460912625004 12.929944249946367 129.77820849200523 91.07419833232665 0.4855844336181027
1.7648270021599763 12.90729852784668 117.68057044504475 95.47798873404143 0.4953111113109029
1.7867529798849995 12.88286193064759 106.82234012022498 100.12010672801227 0.5054051193603903
1.8080919696587827 12.85661053908785 97.08599174726878 105.01706863356044 0.5158921262458201
1.8288024960170466 12.828477550105015 88.33154687123124 110.185413936178 0.526794667043993
1.8488828741133359 12.798514663968067 80.46637601618339 115.64276872850908 0.53813610123828
1.8682597610779828 12.766575952032127 73.38631048417017 121.40934798971256 0.5499457880787418
1.8869398900478462 12.732759151747844 67.01161938173404 127.506568428451 0.5622535082756976
1.904861760584283 12.696947040808958 61.2554391613586 133.95687024775748 0.5750885625798605
1.9220050363015317 12.659132574843733 56.0755366938281 140.78592167716138 0.5884872006098884
1.9383190782884416 12.619248239486636 51.39119374581303 148.0214095249387 0.6024877275046413
1.9538162271492665 12.577406311330568 47.16078988694334 155.6918493432873 0.6171259709884883
1.9684334733032764 12.533478567886334 43.34212927663018 163.83086439884676 0.6324494563993648
1.9821500114432806 12.48748339630464 39.87980519608357 172.47221233269673 0.648499700248388
1.9949402810306633 12.43941072457617 36.745969103471445 181.65520514360367 0.6653299539278381
2.0067769517805862 12.389253650120489 33.90316375994475 191.42182848772674 0.6829945868435588
2.017626459597709 12.336983106328322 31.328880879501156 201.81811106439994 0.7015528253021102
2.027463150788002 12.282601007988564 28.991840868105307 212.89400737504317 0.7210673733790101
2.036275058183455 12.226139477294426 26.86995979327641 224.70497363582408 0.74160847482056
2.0440206276327055 12.167549150439932 24.942656816693624 237.31218930260457 0.7632533290840491
2.050681070908523 12.106846801520348 23.187879473747646 250.7825004779604 0.7860844827231623
2.0562544789813466 12.044105718542488 21.593628586845877 265.1890087933013 0.8101901189598794
2.060703302221181 11.979259454077718 20.14194401464733 280.613431610839 0.8356698744111534
2.0640109763142966 11.912368000305602 18.82171360155936 297.1454929605163 0.8626307204163994
2.0661733684597565 11.843470884670472 17.618846753833918 314.88557311352537 0.891193176106282
2.0671686252899537 11.77258252308503 16.524332849969785 333.9862954969746 0.9214764534695999
