M[M_sun], R[km], Lambda[1], P_c[MeV/fm^3], rho_c[fm^-3]
0.24162668629717493 15.618656898711224 2160425.4255784233 3.5677272577965504 0.1711233750220791
0.2536443480510384 15.277298909271332 1723179.3253025531 3.78484217073342 0.17388845431160405
0.2660422095932065 14.981215886605897 1382893.3471900644 4.011448922105939 0.1766672343778043
0.27881810030402115 14.723471126610342 1116394.9044310064 4.247802902871228 0.17945838048985274
0.2919743002000465 14.498337279360408 905779.7393260533 4.494529597850539 0.18226846435251293
0.3055117492491774 14.301128185815742 738597.6174556743 4.751785613663645 0.1850932118352365
0.31942918945751214 14.128044856237752 605013.1023604557 5.020251649532845 0.18793920680938506
0.3337285351183944 13.975862640979477 497629.46730165544 5.300153901175601 0.19080311407840173
0.34841206176380357 13.841934679716342 410942.8982172069 5.592218593245887 0.19369118170639588
0.36347708969569 13.723884388808987 340617.8389034748 5.896616049703385 0.1965985287873616
0.37893081405154494 13.619925414562655 283258.3449626919 6.214209148261735 0.19953281055119076
0.3947659060956983 13.528371412900807 236363.01157831587 6.545252509739198 0.2024901554009336
0.4109927919546504 13.447783007874467 197822.38307848267 6.890454194777832 0.20547436990747805
0.42760312724221516 13.376971211913292 166055.12132720952 7.250516938152558 0.20848848319737628
0.44460074308859093 13.314861165167331 139774.56927368598 7.62569582602192 0.2115279793087047
0.4619815886688931 13.260491075829359 117950.3447552168 8.016947703520158 0.21459914068719155
0.47975136550771835 13.213074616550895 99792.24026902998 8.424974209146523 0.21770355759371635
0.49790951085018903 13.171927904523477 84621.90020120342 8.850211079640209 0.22083862298259316
0.5164505822314123 13.136343569339902 71919.2186797097 9.293541964425113 0.2240078899264193
0.5353715561230175 13.105799785565779 61259.3965026286 9.755847174078045 0.2272142086371293
0.5546811452831626 13.079772848687288 52290.77980121824 10.237934286940039 0.23045890069538916
0.574365173733121 13.057805983307905 44716.85486187574 10.740273864991535 0.23373865460720217
0.5944247535322174 13.039490979821199 38317.34241726998 11.264118950854057 0.23705975982233327
0.6148640856955656 13.024505434091335 32891.139784663916 11.810402676482388 0.24042376985860223
0.6356718266332348 13.012432952831656 28283.199938300062 12.380104455318278 0.24383231839902073
0.656844572275186 13.003008849210431 24362.51260312167 12.973903135643674 0.24728323976505417
0.6783793000028268 12.99596185399632 21020.409397261483 13.593146082407172 0.25078154776329586
0.7002702405713969 12.991056599936055 18165.672592448456 14.239021779123282 0.2543297695557021
0.722506749377464 12.988004550366208 15723.105084774475 14.91272044639858 0.2579298907812038
0.7450980276410757 12.986638828428486 13628.99492203551 15.615257274762252 0.2615816604850019
0.7680211913210103 12.986763773528136 11831.893218421259 16.34792785168522 0.2652872650310674
0.7912698535832245 12.988140490785513 10286.183369390053 17.112334945120445 0.2690512546120867
0.8148456330509561 12.990680364096068 8952.545192439182 17.909934302408686 0.27287606318857593
0.8387322987802592 12.994144999905519 7804.446226477288 18.74206964747868 0.2767625755589062
0.8629142064423029 12.998424475989125 6811.11460812283 19.610129314335882 0.28071166176405116
0.8874002219383895 13.003374277428083 5952.911658833464 20.5161791287355 0.2847294940393886
0.9121594176124259 13.008862014344944 5208.922046623202 21.462014144268696 0.28881908757190194
0.9371816159062807 13.01475789708659 4563.137811552935 22.449090879975223 0.29298013870800976
0.9624693376429446 13.020962698352617 4002.7291879239074 23.479491041384794 0.2972168948712787
0.987991769691904 13.027357779409108 3514.959545747776 24.555611326263076 0.3015352398830174
1.0137369916198826 13.033808271363533 3090.795803444509 25.67936114442089 0.305936557185003
1.0397046836411876 13.040275644854404 2720.128035559549 26.852769040978444 0.31042260093027907
1.06585804837587 13.04659778423592 2397.053269460116 28.07890120599399 0.3150018676781588
1.0921932230665208 13.052726620965029 2114.624808627952 29.359772947860247 0.31967452568337984
1.118694603320604 13.058559223501755 1867.461245960095 30.69822142436084 0.3244458132474826
1.1453282382779402 13.064011605657642 1651.233242039651 32.09756438158198 0.32932322944658743
1.17209365709118 13.069029802271983 1461.3309815876487 33.55983120932817 0.3343050417275786
1.1989524806852605 13.073479397295772 1294.758263554052 35.08952438650951 0.3394045428288331
1.2259014484791027 13.07735053687039 1148.4711003190898 36.688616772601556 0.3446181821588777
1.2528992698459969 13.080512108338162 1019.6336162577584 38.36221105568348 0.3499607055432532
1.2799443138541935 13.082948232716825 906.20569719694 40.112604444644546 0.35542901378548636
1.3069972741994924 13.084551920120512 806.3300142406737 41.94516287964488 0.36103704655383023
1.3340299892460161 13.085237894353886 718.1452302177063 43.86348275888989 0.3667873609655599
1.361039772006027 13.085032690458313 640.2170456621584 45.87214306861436 0.3726870951469963
1.38797984798445 13.083780821295012 571.4520320167418 47.976534969834596 0.3787465196479859
1.4148252704169522 13.08145795753626 510.5747554916715 50.1814828953745 0.3849716216816409
1.4415573068117915 13.078013495748305 456.6283109790175 52.49208329195845 0.3913687232591732
1.4681523523651292 13.073410997331186 408.77869448874117 54.91481806723059 0.3979498463391025
1.4945635848472245 13.06753756962987 366.33183671613466 57.455880857140286 0.40472405826411256
1.520776087935115 13.0603824694785 328.65535271101567 60.12190374414152 0.41170113698330635
1.546760425072963 13.051888521137194 295.11832096564393 62.91999673008977 0.4188916295704025
1.5724778529326338 13.04199935042327 265.3036767225529 65.85779098895138 0.42630691552088396
1.5978922520046308 13.030656271174717 238.7759779185 68.943486283117 0.4339592753874654
1.6230006533746315 13.017845455012763 215.09830377695644 72.18590297482658 0.44186196538176
1.6477425487899091 13.003484438081413 193.97045177969494 75.59453911832217 0.45002929864594077
1.6720907359581174 12.98754058998351 175.13158456635006 79.17922982965852 0.4584750497138642
1.696027355400793 12.969977893942875 158.2620990228801 82.95038953553406 0.46721340775982284
1.719507090751267 12.95075773530386 143.19261448989434 86.92065926056011 0.4762654897212176
1.7424883688118966 12.929810848455565 129.70031302633782 91.10151026546558 0.4856451926161756
1.7649698873627135 12.907146176414438 117.59972270055869 95.50726929981077 0.4953753594102335
1.7813857122350056 12.88391594802203 108.97365089511442 100.73480078363927 1.197634502048245
