M[M_sun], R[km], Lambda[1], P_c[MeV/fm^3], rho_c[fm^-3]
0.24162668629717493 15.618656898711224 2160425.4255784233 3.5677272577965504 0.1711233750220791
0.25364493987928743 15.277271820622271 1723251.8814910208 3.784838036244928 0.17388840277719952
0.2660414913869281 14.98124615629335 1382900.3877064341 4.011440230509531 0.17666712934499113
0.27881745571098804 14.723480658655726 1116435.0107138485 4.2477893600380305 0.17945822341339626
0.29197350832756463 14.498349936458107 905857.3355037849 4.494510848324971 0.1822682555721942
0.30551035103191404 14.301164707608795 738607.8873540706 4.751761020718546 0.18509294618449307
0.31942847603152563 14.128050738144148 605044.0424814145 5.0202210319253595 0.18793888913989007
0.33372539127809775 13.97592061830812 497628.69132349506 5.300116452718426 0.1908027370345762
0.34840983862995817 13.841952659610229 410960.7498354043 5.5921742203522395 0.1936907523864433
0.36347409404670145 13.723941086816646 340616.1611563348 5.896563755345359 0.19659803762768432
0.3789276757988751 13.619954380852977 283261.74639497336 6.214148299479167 0.19953225568356045
0.39476265607164596 13.52838391960594 236371.32655372814 6.54518316962185 0.20248954738177838
0.41098911674836075 13.447799830670183 197829.60844162636 6.890375024550756 0.20547369566060178
0.4275986896682747 13.37699135235792 166047.3641405793 7.250427194744085 0.20848774077315727
0.44459555068104106 13.314868833256382 139773.08783968212 7.625595757393504 0.2115271826980786
0.46197862474532575 13.260513206239512 117954.77187178981 8.016835564015365 0.21459827319746105
0.47974499780207863 13.213105169258856 99795.07122250112 8.424849124141726 0.2177026171293459
0.49790489609194155 13.171924856356489 84626.27925531333 8.850073510277408 0.22083762692162762
0.5164446157467237 13.136349571659505 71925.5521394843 9.293389684113883 0.22400681786353466
0.5353648711299897 13.105805560121963 61261.570195132146 9.755679150106646 0.22721305825608085
0.5546727413141271 13.07979384400424 52293.68935613936 10.237751221679089 0.2304576926959575
0.5743578866780891 13.057808578930207 44719.247959684755 10.740072965950526 0.23373736477312815
0.5944170931727748 13.039494827741622 38319.67808615085 11.263898994230725 0.23705838552937028
0.6148556753968829 13.024503335050495 32893.34604219404 11.810162362606302 0.24042230834928077
0.6356625226077866 13.012438116363066 28284.774250769446 12.379842403424275 0.2438307667703113
0.6568347081300444 13.003004088107586 24364.02676442108 12.973620549133436 0.2472816246164417
0.6783684635392533 12.99596636036334 21021.73593871404 13.59283894790087 0.25077983772065104
0.7002587294314372 12.991058075299918 18166.87508519688 14.238688449463767 0.2543279612260311
0.7224957674985392 12.988003091941012 15724.993419729122 14.912359168581123 0.2579279805691982
0.7450855584854588 12.986643902223449 13629.983135908473 15.61486970859674 0.2615796795038466
0.7680082543110379 12.986758239679668 11832.763792959313 16.34750874789413 0.2652851759037837
0.7912545291399844 12.988140981493432 10217.744250182926 17.111882199848612 0.26904905306514215
0.8148336111821655 12.990667518825854 8953.734196363732 17.909445672298748 0.272873744673643
0.8387175866320525 12.994146801970693 7755.728422514388 18.741547299975505 0.276760175642399
0.8629008558555096 12.998415587304114 6811.937655260265 19.609566456517978 0.28070913657599805
0.887383865591392 13.003364815804321 5953.343209801456 20.515573050976638 0.2847268381126754
0.9121418733790397 13.008869495482953 5209.285391217678 21.461361951368314 0.2888162950707691
0.9371643040987417 13.014757401983838 4563.559390252638 22.448395289018332 0.29297724961918425
0.9624500197706181 13.020961766756754 4003.1152135177276 23.478743321645947 0.29721385815925006
0.9879726203722307 13.02734930843442 3515.263779233331 24.55480795749274 0.3015320484802699
1.0137168086399517 13.033808656810022 3090.6674973727386 25.67850523673218 0.30593325407239375
1.0396849615404922 13.040260328727568 2720.450053198864 26.851850128774092 0.31041912944543915
1.0658382112857863 13.04659442547163 2397.325842856998 28.077914986882348 0.3149982192248239
1.092172091276541 13.0527220971275 2114.816061957866 29.358722917658778 0.31967074621937636
1.1186724113329956 13.058556932305788 1867.647302457349 30.69709504432741 0.3244418398689271
1.1453060988496853 13.064009775158459 1651.417385340768 32.096365328530716 0.32931910961840527
1.172071248263151 13.069017785586972 1461.4316531523748 33.55854541568403 0.334300708470427
1.198929481017306 13.073477750912266 1294.8882314607695 35.088145782169725 0.33939998415802186
1.225877032348991 13.077344706724642 1148.5985884987479 36.68714935881641 0.34461344850915754
1.2528751369541293 13.080501078110853 1019.7312338771146 38.36064887608749 0.3499557863894662
1.2799192318234103 13.082941123180237 906.3334374611231 40.11092973963141 0.3554238328076585
1.3069651461910057 13.084526853084062 806.4230966568858 41.94337965575712 0.3610316555978603
1.3340044682740118 13.085242070169862 718.2852914246421 43.86157101882579 0.3667816782854103
1.3610127093204059 13.085032829340236 640.337370694053 45.87010681884865 0.3726811740092812
1.3879461697238418 13.083770841119726 571.5446021950579 47.97436551104658 0.3787403446679587
1.414796807059229 13.081457102302366 510.59334056107133 50.179156433252516 0.3849651026783937
1.441529225095575 13.078015211995185 456.68685161624154 52.489603520434095 0.3913619147356574
1.4681246570334534 13.07341361739534 408.8237362258804 54.912174003647394 0.397942728995461
1.4945355448737672 13.067541922108422 366.37060153176236 57.45306062910928 0.4047166113083017
1.5207474644996373 13.060392539895025 328.6998034612958 60.11889450986803 0.4116933380085312
1.5467336448890388 13.05189595226214 295.15680317174326 62.91678459075016 0.4188834544204068
1.5724483620814744 13.042012630563349 265.34143906727684 65.85436089223279 0.4262983381417867
1.597862718037988 13.030670562064127 238.80076795587115 68.93982191692696 0.4339502676646886
1.6229601641494524 13.017849428030491 215.1344864317026 72.18198665005696 0.4418524969604161
1.647712101938062 13.003503351666323 194.0033861568692 75.59035163941454 0.4500193367328557
1.6720611214040924 12.987560780296375 175.14512455136548 79.17477222329622 0.4584646501692193
1.6959978989818476 12.970000971870933 158.28746989263453 82.9456182994252 0.4672024434731408
1.7194781916356925 12.950782845482596 143.21110029999147 86.91554982720918 0.47625391936856676
1.7424586666526793 12.929827470441095 129.72272029075646 91.09606050834999 0.4856330689125769
1.7649417254373156 12.907176372745909 117.61810777966576 95.5014267050594 0.49536253945276093
1.7868670470362968 12.882737662359968 106.77112838673688 100.14514090300268 0.5054591420239427
1.8082042732374006 12.856465389972 97.03970166893697 105.04382884341989 0.5159489516075483
1.8289179942211908 12.82833206564487 88.2888450342179 110.21404179592821 0.5268545202834979
1.8489903819245856 12.798341953455418 80.42360021324996 115.67353581516271 0.538199655422401
1.868364358272167 12.766396012278431 73.34986802836752 121.4423102873551 0.5500128872374076
1.88703997349918 12.732566039035964 66.97158182522472 127.54180613282828 0.5623240658735548
1.904961498772136 12.696738117406692 61.22511065147024 133.99466573738954 0.5751631826117896
1.922101171312768 12.65890914440126 56.04733277336052 140.8265170533452 0.5885662958403357
1.938412489563512 12.619008892409974 51.3658397819592 148.06504792606304 0.6025716681403499
1.953905973000263 12.577152005488406 47.1411315682761 155.73865406018112 0.6172146706122204
1.968519044898935 12.53321245190572 43.320913743603995 163.8811191046144 0.6325433326073845
1.982229644168207 12.487199608216299 39.86052675007333 172.52637981987752 0.6485997145909168
1.9950144817603765 12.439105020997001 36.72788823858082 181.71348179702503 0.6654361056600967
2.0068474938793655 12.388935194992154 33.88605514930453 191.48459280213189 0.6831074190043097
2.0176901594457344 12.336647116565548 31.312665619391026 201.88578056707308 0.7016729319943089
2.0275228979035727 12.2822524700652 28.977429366517534 212.9668724721261 0.7211948465069764
2.0363280575850746 12.225768358386404 26.856785779916677 224.78370886622062 0.7417445705407205
2.0440670200532858 12.167162509971488 24.93111509892957 237.39717829497837 0.7633982431232682
2.050721656117259 12.106438886281232 23.176614696069645 250.87435734890846 0.7862390428495597
2.056289780342858 12.043677413618003 21.584293729363566 265.28857118693156 0.8103557442615839
2.0607301798863324 11.978814269795595 20.132703510306154 280.72114374928975 0.8358465473879934
2.0640301782083226 11.911904373057117 18.813275319150232 297.26235342456476 0.8628200553073462
2.0661846603007725 11.842987829003524 17.610556086755807 315.0125204506071 0.8913963938243303
2.067171280596475 11.772083851818781 16.515913470004683 334.0809328826464 0.9217008304297477
