M[M_sun], R[km], Lambda[1], P_c[MeV/fm^3], rho_c[fm^-3]
0.24162668629717493 15.618656898711224 2160425.4255784233 3.5677272577965504 0.1711233750220791
0.25364343413086365 15.277282898252661 1723264.134014829 3.784809404739898 0.17388804589930162
0.2660382060364741 14.981307970286569 1383127.8601652328 4.011380041212204 0.17666640199285424
0.2788128710215596 14.72356056656363 1093988.864100798 4.247695576486589 0.17945713566552834
0.29196659036653666 14.498467891285657 905997.5469983529 4.494381009398045 0.18226680978560883
0.3055012287533305 14.30128820916167 738721.7421462975 4.751590717588957 0.1850911065856651
0.31941709049798434 14.128192457113295 605125.6878661665 5.020009009922687 0.18793668932977936
0.3337127019257512 13.97601338009827 497715.62277884077 5.299857129663435 0.1908001260817072
0.34839443882999765 13.842081946344807 411038.6416277676 5.591866948600958 0.19368777944772209
0.3634564781420698 13.724074013335471 340689.42965831014 5.896201631356749 0.19659463648254968
0.3789087623760552 13.620073887349047 283327.7752730352 6.213726940798489 0.19952841339974156
0.39473918277901643 13.52854893523523 236423.3974756254 6.544703013549645 0.20248533706168423
0.4109635842882065 13.447922768208178 197883.6203431122 6.889826801384452 0.2054690267620646
0.4275700431531351 13.377109860349476 166096.5024939255 7.249805759747623 0.2084825998006917
0.4445641788844689 13.314980684540593 139818.33488064955 7.624902827984651 0.211521666534432
0.4619446003790517 13.260610581291983 117999.00728399068 8.01605905344318 0.2145922662604034
0.4797089794630056 13.213179570475608 99823.08968141391 8.423982976969807 0.2176961049134646
0.49786414836581727 13.172017560623427 84658.85323289064 8.849120919989087 0.22083072976092966
0.5164002044147838 13.136441923819024 71949.68418879465 9.292335234303101 0.2239993944711295
0.5353178519383264 13.10587935820197 61286.20592087679 9.754515690945562 0.22720509259880922
0.5546235155634733 13.07984450345282 52310.43945981246 10.236471693033911 0.2304491747833579
0.574303699175978 13.057863715965711 44739.204982878735 10.738681881250088 0.23372843357844722
0.5943608572490874 13.039525117576426 38336.2733042007 11.262375956993857 0.23704886956515298
0.6147942671230566 13.024519366121856 32906.76038202711 11.808498374967842 0.24041218852813687
0.6355940135820006 13.012444596074006 28297.611817049794 12.378027906144276 0.24382002299727532
0.656765453674916 13.003026938059453 24375.849135801396 12.971663874702791 0.24727044106776827
0.6782959912903833 12.995980473834383 21032.369622556627 13.59071231006261 0.250767997170928
0.7001824035979544 12.991070280148456 18040.651281008708 14.236380444900472 0.254315440188633
0.7224130293389486 12.988005965266064 15733.017410709463 14.9098576612643 0.2579147541570639
0.7450004755568472 12.986654240400036 13541.027506767141 15.612186190692018 0.26156596314036545
0.7679188771417964 12.986761019498308 11838.496297149404 16.344606877534996 0.26527071080785763
0.7911621955248708 12.988129278075855 10291.60710074784 17.108747412322987 0.2690338096549332
0.8147344044826648 12.99066048795769 8958.372108041398 17.906062437237846 0.2728576914651919
0.838614897941764 12.994114809977777 7809.448452930513 18.73793062366888 0.27674355888608865
0.8627932690232322 12.998395603095123 6816.192698940952 19.605669311467874 0.280691652543959
0.8872673413528084 13.003340915570512 5956.778543894793 20.511376679247572 0.28470844896110087
0.9120265700019544 13.008828314545312 5212.569227748742 21.456846310480987 0.2887969604041604
0.9370438044315319 13.014724062674862 4566.503843174517 22.443579189955177 0.29295724628554687
0.9623211081905413 13.020921754465048 4005.8019026070033 23.473566323244913 0.29719283283050735
0.9878447285388348 13.027313598213096 3517.5926566908734 24.54924569072561 0.3015099522349361
1.01358385232418 13.03377730861554 3093.0407201868798 25.672579232996814 0.3059103844826951
1.0395455340851514 13.040233894615032 2722.273451895088 26.845487938356552 0.3103950942356784
1.0656948712066423 13.046559689332122 2399.025964718372 28.0710868269289 0.31497295889204463
1.0920257753922649 13.052680429620196 2116.348166414546 29.35145298913703 0.31964457894045695
1.118521313035641 13.058525626365633 1869.158721641086 30.689296547877863 0.32441433016737137
1.1451500933089203 13.063981366764054 1652.593726642637 32.08806371766533 0.3292905861011476
1.1719116222215986 13.068992627720979 1462.6186041798856 33.549643309235194 0.3342707074538488
1.1987656907617752 13.073457629496353 1295.817599189378 35.07860116191388 0.3393684226863882
1.2257094655314542 13.077322864474484 1149.4601978600185 36.676989923481656 0.34458067574341444
1.252703440959626 13.080485141224113 1020.4999535214326 38.3498100008842 0.349921592241146
1.2797436479490059 13.082928745217371 907.0290219583366 40.09933527655772 0.35538796341236834
1.3067871147314638 13.084521476309277 807.0155618655385 41.931033945986044 0.36099433264685554
1.3338208175376598 13.08523753515171 718.8196752506622 43.848335640163896 0.36674233589519334
1.3608275320411385 13.085036146910394 640.8435575339284 45.85600950490118 0.3726401809352973
1.3877580981992597 13.083782012528534 572.001557675229 47.959346045357755 0.3786975944202193
1.4146134786450988 13.081495342193072 510.9859755354582 50.16305011480591 0.3849199709991533
1.441335717204245 13.078045889686877 457.0245292113545 52.472435918620526 0.3913147789332219
1.467928461963916 13.073452496012706 409.1612797161852 54.89386909871692 0.39789345548345356
1.494337107189513 13.067589475626518 366.66431106718517 57.43353624343946 0.40466505617314275
1.5205479910303301 13.060452453057977 328.9480248354494 60.098061756614754 0.4116393461613195
1.5465306549537143 13.051970218136649 295.39310006121895 62.89454726748307 0.41882685866474645
1.5722461639756344 13.042095147905334 265.5531288642667 65.83061481342736 0.4262389581485393
1.597670080514568 13.030773625791426 239.00708920343988 68.91445417844055 0.4338879088435691
1.6227570793967652 13.017962528309916 215.31329151821453 72.15487481787395 0.44178694921715855
1.647508909774147 13.003629376038162 194.17084995556965 75.5613628539834 0.4499503730993004
1.6718577590280381 12.987700667363164 175.29563327614366 79.14391358709922 0.45839265732401746
1.6957956303417654 12.970161603423929 158.4261669154065 82.91258872315733 0.467126541603075
1.7187885560013 12.951010127854675 143.59423543993148 86.91604503395878 0.5651417002588749
1.7367528174723372 12.928165126549438 132.2483917115047 91.42676965346618 0.7716652286728987
1.7495059428523536 12.898608942426483 123.51283100903233 96.52099096495293 0.9712968404954273
1.7579431429255934 12.861784741166913 116.53288567346502 102.21750474542158 1.164787895442317
1.7627807118094214 12.817581533516847 110.75987147707289 108.53505707817803 1.3534717218157364
1.76462268897552 12.766269350257113 105.82951119755215 115.49722305642163 1.538759738049823
