M[M_sun], R[km], Lambda[1], P_c[MeV/fm^3], rho_c[fm^-3]
0.24162668629717493 15.618656898711224 2160425.4255784233 3.5677272577965504 0.1711233750220791
0.25364074096474937 15.27737427905481 1723284.9240510776 3.784775956049258 0.17388762897750898
0.26603432910075353 14.981413438483404 1383147.4723174353 4.011309726020638 0.17666555227526134
0.27880710173830375 14.72368074246383 1116591.722123837 4.247586016572144 0.17945586493562404
0.29195897400261606 14.49856855851504 906055.609877985 4.494229330498213 0.18226512080585636
0.30549069237484666 14.30140897930963 738803.0228150258 4.751391770285371 0.18508895757508975
0.31940387820917643 14.128351588444634 605247.8757385532 5.019761329431806 0.1879341195490906
0.33369894173525794 13.976177962877701 497810.2001424144 5.299554196169449 0.19079707604408033
0.3483755405128637 13.842251377597128 411134.41307742347 5.59150800648746 0.1936843065840324
0.36343513843617964 13.724181402400244 340771.92470996897 5.895778617610866 0.1965906634479291
0.37888498387718217 13.620224643654465 283415.17333764146 6.213234737444051 0.1995239250978005
0.39471334845145745 13.528640653344276 236503.4827275364 6.544142132349559 0.20248041889127286
0.41093380156470094 13.448078893058751 197954.40956851203 6.889186416061278 0.2054635729719252
0.42753704929270275 13.377235234298237 166156.7822916284 7.24907986233466 0.2084765946374258
0.44452829046164305 13.315096124414332 139865.96445999015 7.6240934254585255 0.21151522316987992
0.46190422920328633 13.260728091189826 118042.25805392835 8.015152029893475 0.21458524969994938
0.47966444766333083 13.213304861364797 99864.08762422323 8.422971261175215 0.21768849822504202
0.49781578889728917 13.172126981510816 84688.64442185553 8.848008242852838 0.22082267350305285
0.5163488890914284 13.136528931000576 71981.61641679131 9.291103591895954 0.2239907236317992
0.535263410659845 13.105949382847335 61315.327683039286 9.753156734356242 0.2271957884626611
0.5545641533067321 13.079935550087301 52336.95844700757 10.23497656612276 0.23043921782138055
0.5742408010290707 13.057925498239245 44760.95113887817 10.737057080613898 0.23371800185506264
0.594291474932176 13.039598300482456 38353.94034467814 11.260597051823485 0.2370377549334569
0.6147224537275581 13.024565576478288 32925.92508593356 11.806554858852767 0.24040036870747217
0.6355185244158406 13.012479583373281 28315.297627739797 12.375908617312675 0.2438074745308459
0.6566847266397657 13.003057620940666 24389.936721765524 12.969378545098602 0.24725737906089423
0.6782102135895121 12.996009059443685 21044.924323853553 13.588228492982038 0.2507541679428778
0.7000907915273116 12.991084609933445 18186.921813346926 14.233684825776837 0.25430081632332757
0.7223193028278873 12.988018335886949 15742.797129415927 14.906936070180647 0.25789930660370247
0.7449005995857664 12.986649106637724 13645.627219559778 15.609052048726324 0.26154994348559535
0.7678137073013926 12.986747782823777 11845.853907847166 16.341217749621897 0.26525381685523347
0.7910520982749855 12.988122566596676 10297.98395493261 17.105086293388162 0.269016006873312
0.8146181661371549 12.990656058486127 8964.542977208379 17.902111194968615 0.27283894310315177
0.8384951671380837 12.994111650014425 7814.450790372317 18.733706781701578 0.2767241525177234
0.8626692213771613 12.998370916120649 6821.004465681856 19.601117960493788 0.28067123350252515
0.8871383299338288 13.00330518386805 5961.2360753452995 20.506475919375834 0.2846869730714681
0.9118903702283795 13.008800252845711 5216.087568851398 21.451572742406206 0.2887743805128209
0.9369032426382737 13.014696182941625 4569.890870398149 22.437954778624714 0.2929338856829343
0.9621732621581957 13.02088730873009 4008.536819746372 23.467520501497052 0.29716827895200065
0.9876930968236772 13.027276783740623 3520.273289948686 24.542750009068 0.3014841479753553
1.0134326516018088 13.033751707997139 3095.4180712566417 25.665658831573 0.3058836773208065
1.0393837633821965 13.040189498601167 2724.386883909405 26.838058233226214 0.3103670261475596
1.0655306126660908 13.046525735859271 2400.8699786127336 28.063113049530916 0.3149434604221853
1.0918520844827007 13.052648512761222 2118.029316888945 29.342963395130102 0.3196140216146693
1.1183443881149702 13.058483972863213 1870.7268934468757 30.68018980479292 0.32438220554103697
1.1449698608584336 13.063957253296158 1653.8594889172 32.07836954252977 0.32925727787021963
1.1717255559733397 13.068956036019491 1463.8378184602514 33.539248019404184 0.3342356742553191
1.198574115109076 13.07342523561878 1296.9647425387586 35.06745570838462 0.33933156769310624
1.225513801379031 13.077299906960759 1150.3872930727523 36.665126642889746 0.3445424066366213
1.25250302407686 13.080469458536383 1021.379913482082 38.33709243667885 0.3498813057857107
1.2795391023465503 13.082909386879265 907.8263052568861 40.085796573706695 0.3553460791887357
1.3065778956285192 13.08450702298113 807.7925862630751 41.91661815623199 0.3609507515304464
1.333608844892899 13.085228713052302 719.4767010645543 43.832881184713806 0.36669639726113984
1.3606124100600037 13.085039265683292 641.432185092453 45.83954875825847 0.37259231532008374
1.3875384243691429 13.083792842110373 572.5375658009872 47.9418087188514 0.37864767752781003
1.4143893934189182 13.081517278158131 511.46456164455105 50.144243964033194 0.3848672740922075
1.4411169771550782 13.078098598016673 457.4583112190361 52.452390790097205 0.3912597425205575
1.4676995622910654 13.073498486774128 409.5435844678815 54.87249626129237 0.39783592364892767
1.494105479011243 13.06764790440053 367.02426635386297 57.41073977992442 0.404604860949716
1.5203154201193214 13.060521378725696 329.2729527386305 60.073737920525375 0.41157630654165056
1.5462959906519305 13.05205348943007 295.6852789586023 62.86858377561255 0.41876077951374685
1.572010292294485 13.042193029233289 265.8265839073737 65.80289006710099 0.42616962900737304
1.5974325930626212 13.030889312453297 239.2432341606018 68.8848364054398 0.4338151026133447
1.6225194463371768 13.018089967781924 215.52009891805528 72.1232211260312 0.4417104207091603
1.6472711570597731 13.003773816312561 194.3634380162516 75.52751818633095 0.44986985743701685
1.6716205374129878 12.987868975897264 175.47285580209788 79.10788622484884 0.4583086059000671
1.6955587826195115 12.970347594773006 158.5892821954648 82.87402728628234 0.46703792753344536
1.7190313939471584 12.951153781014831 143.4774621010719 86.83888532990571 0.47608031200182477
1.7420297193760008 12.930255732212807 129.96793649844233 91.01429061352835 0.48545116099501506
1.764515064832136 12.907642782584643 117.84394970913236 95.41376383260712 0.4951701875364324
1.7864423562166039 12.883231959067986 106.97059197476327 100.05150872664088 0.505257087849471
1.8077846208027684 12.857006174672527 97.22204517573462 104.9437419126137 0.5157364168001909
1.8285107805782441 12.828932226776152 88.4559355681024 110.10675906587633 0.5266298755177782
1.8485855987949231 12.79897742594972 80.57652514467874 115.55846497738645 0.5379619587794486
1.867979139490714 12.767107648223174 73.48581334310862 121.31903046444059 0.5497619346949687
1.8866570669782763 12.733300294440614 67.10149593673414 127.40973019977766 0.5620591547234359
1.9045875132045422 12.697521000029669 61.34406817285497 133.85331245640614 0.5748841073453241
1.9217403262457264 12.659748657785764 56.15392923378748 140.67469402063423 0.5882704868372334
1.9380723188636693 12.61992859222605 51.46567012338081 147.90184612729425 0.6022577413606223
1.9535649141537104 12.578077931080978 47.2295951528712 155.56361251440225 0.6168829493610637
1.9682007622390283 12.534216508891344 43.39970762949788 163.69292906188076 0.6321914155129624
1.981930308846521 12.488269382133627 39.93384371300221 172.3238075760806 0.6482256870915367
1.994731249288257 12.440236990617809 36.79559648053655 181.49554492885667 0.6650391306328622
2.0065781512923015 12.390114468836169 33.95221151295316 191.2498763425654 0.6826854664099465
2.0174462421412587 12.33790503104418 31.37082774259529 201.63272366064157 0.7012237809473985
2.0272993640089907 12.283571017239906 29.03156312020493 212.6943894286993 0.7207181537246439
2.0361279423441 12.227156891697167 26.9064227239314 224.4892781862763 0.7412356401010364
2.043890989162875 12.168618493969612 24.974530051225642 237.07936584886588 0.7628563437078978
2.0505708115819767 12.107965083579273 23.217997958774486 250.53043886984042 0.7856596841624058
2.056157094537168 12.045248581822097 21.621485555255937 264.91618313271135 0.8097361212098209
2.060631639990347 11.980477343186601 20.168184298229193 280.3181570932 0.835185198959346
2.0639656585424646 11.913650569970695 18.845396493877026 296.8253846748097 0.8621120876361952
2.066143585247347 11.844791726610165 17.640391659562862 314.53784217348834 0.8906365272646949
2.0671607510653556 11.773960209813787 16.544479221538907 333.56541500613326 0.9208866111230727
