M[M_sun], R[km], Lambda[1], P_c[MeV/fm^3], rho_c[fm^-3]
0.24162668629717493 15.618656898711224 2160425.4255784233 3.5677272577965504 0.1711233750220791
0.2536446411961238 15.277262914127082 1723213.4085457537 3.784832256941958 0.17388833074097604
0.26604055239247054 14.981253786025468 1382984.4468322883 4.011428081177024 0.17666698252747784
0.2788173862510023 14.723469610480654 1116432.7101462935 4.247770429558434 0.17945800384836058
0.29197219134801505 14.498370751677573 905800.5109902254 4.4944846398584675 0.182267963734837
0.3055074920852857 14.30120120923095 738598.3850862966 4.751726644262861 0.18509257485316322
0.3194253925857276 14.128112275157502 605063.8493863698 5.020178234161308 0.18793844509656962
0.3337227750447646 13.975933929227587 497688.7778379189 5.300064106777832 0.19080220999781203
0.3484067173075126 13.841979413381694 410976.8946732532 5.592112195444275 0.19369015227839625
0.36347032078560787 13.723936644164935 340638.071394807 5.8964906578528336 0.19659735108056545
0.3789250418909189 13.619970046858102 283282.15155315463 6.214063244682853 0.19953148008623073
0.39475833905977065 13.528411030661507 236388.91976955684 6.54508624573494 0.20248869749022794
0.41098396174673424 13.447825054609241 197840.84678839077 6.890264360280022 0.20547275319723374
0.42759311535667854 13.377016703381857 166065.643335328 7.250301751468396 0.20848670301308586
0.4445894211509297 13.314882577832424 138166.70251316502 7.625455881737019 0.21152606919791322
0.46197185823881165 13.260556651655675 117969.3449254889 8.016678815972748 0.21459706062462608
0.4797380810992521 13.213111596862893 99808.8625481832 8.424674281223366 0.21770130255502576
0.4978956902388603 13.171958606286804 84633.21842701473 8.849881217083755 0.220836234636745
0.5164360303978245 13.136370759157753 71929.28981937541 9.293176828427546 0.22400531934623286
0.5353553008431187 13.105816959005693 61266.92586545039 9.755444288480952 0.22721145026907183
0.5546629223069641 13.079802288106764 52297.5884173892 10.237493347111966 0.23045597860096922
0.5743471280489285 13.057818593679919 44722.52228694633 10.739792152818204 0.23373556186583364
0.5944051151820984 13.03950461437213 38321.54733191636 11.263591543224605 0.2370564645699203
0.6148432580740574 13.024486037369218 32896.03849606142 11.809826457157925 0.2404202654837088
0.6356493434530587 13.012417306313278 28287.099885408552 12.37947611362155 0.24382859794120956
0.6568209486005301 13.00300443695438 24366.380114591626 12.973225557056546 0.24727936700370434
0.6783541314840266 12.995969339292834 21024.18486375101 13.592409643936906 0.2507774474711971
0.7002432885656596 12.991060086546739 18168.779029060737 14.238222531373122 0.2543254335976502
0.722479330178345 12.988003312365851 15726.16194718649 14.911854186185053 0.25792531053691564
0.7450683969311891 12.986639202153954 13631.492493127178 15.614327981896183 0.2615769105562949
0.7679900989675158 12.986754406238116 11833.698519610805 16.346922939889442 0.26528225579780607
0.7912365891303849 12.988147493120893 10286.812076735227 17.111249369991807 0.2690459758278427
0.8148111946852645 12.990674223867524 8954.326119354664 17.908762685066293 0.27287050394806095
0.8386957247480559 12.994136034058734 7805.991755608415 18.74081718487718 0.2767568211412939
0.8628781474214917 12.99840659809251 6812.637906457252 19.608779719060088 0.28070560698119384
0.8873621660003475 13.003358484399708 5954.072475138109 20.514725903955522 0.2847231257830766
0.9121187800815669 13.008850990036493 5209.9783002072545 21.460450348213975 0.28881239185005064
0.9371399691692459 13.014746502868606 4564.124985858517 22.44742302744568 0.29297321139813326
0.9624252703202785 13.02095546661717 4003.6246265551686 23.477698198793785 0.2972096136048112
0.9879473114781817 13.027344860444531 3515.710701431997 24.553685053198848 0.30152758771457794
1.0136910236282468 13.033797692453028 3091.3539443257737 25.677308898016566 0.30592863717088836
1.0396559051804914 13.040259118815031 2720.6870004110906 26.850565728059706 0.3104142772108216
1.065807780786314 13.046587567656744 2397.5609931743297 28.076536510862372 0.3149931196426187
1.0921429196093848 13.052714492066059 2115.1817943840592 29.35725525241277 0.3196654635256418
1.1186418513096474 13.058550801589595 1867.926745728657 30.695520664804906 0.32443628614314424
1.1452740812660784 13.064006351729558 1651.692388312068 32.09468937376046 0.32931335120288957
1.1720386637332472 13.069012480830535 1461.6619767084135 33.556748223901685 0.3342946517488222
1.1988956719647217 13.07347147841439 1295.0500414475644 35.08621886948536 0.3393936123801619
1.2258427659795583 13.077342059074711 1148.7371119287136 36.68509831767217 0.3446068321679206
1.2528408540998914 13.080501651285621 1019.9032350138027 38.35846538153076 0.34994891077443113
1.2798840795079613 13.082943583204395 906.4396637705398 40.10858896991676 0.35541659124816205
1.306928632864522 13.08452516187009 806.5641430566751 41.94088721067626 0.3610241205587771
1.333967276965766 13.085241139672597 718.3971815569753 43.85889894925697 0.3667737355127591
1.3609762311688707 13.085031421137549 640.4414567660286 45.86726072445715 0.3726728979534034
1.387907786819346 13.083771528943599 571.6352270418864 47.97133323331114 0.3787317138266831
1.4147586390735944 13.081460595559054 510.66651584226105 50.17590471644004 0.38495599100953853
1.4414896252321818 13.078023002158655 456.74737845808113 52.48613752733828 0.3913523984172117
1.4680851895653013 13.073420132289806 408.8997201404062 54.90847838458077 0.39793278105357627
1.4944941281127664 13.067553604568388 366.4253095294677 57.449118790908756 0.40470620268369045
1.5207074039224726 13.060403714204211 328.7351889479931 60.11468850455015 0.41168243738518423
1.5466913707412384 13.051913550749804 295.20032277118594 62.91229499305469 0.418872028037333
1.5724075715234045 13.042030652918935 265.38811167805954 65.84956666481759 0.42628634958595507
1.597821657473615 13.030690526505634 238.84113018997328 68.93470026182484 0.43393767764313346
1.62291923446188 13.01787034776372 215.1653217021242 72.17651284483836 0.44183926304923343
1.6476724159696428 13.003526559987172 194.03197614189736 75.58449885630033 0.4500054131005281
1.6720201955138396 12.987592581453555 175.17680950586333 79.16854189696453 0.45845011488916704
1.6959577557796253 12.97003369817887 158.31951903861966 82.93894963129645 0.46718711889320325
1.7194375728966158 12.950817904169568 143.23570633138536 86.90840848196422 0.47623774773519567
1.742413509242952 12.929843169148473 129.7462143909476 91.08844351371205 0.48561612390322245
1.7649016161141606 12.90721969232004 117.64557408960607 95.49326066860178 0.4953446213453856
1.7868283943757746 12.882779381284154 106.79529185324931 100.13641871385497 0.5054403199181634
1.8081652419435716 12.856517226804897 97.05312201853663 105.03450526393924 0.5159291529669782
1.8288743305439406 12.828375972424192 88.30191686583485 110.20406748228994 0.5268336666469251
1.8489531141546012 12.7984019889892 80.43679589420134 115.66281613898194 0.5381775122704874
1.8683274269058359 12.766459233643367 73.36300268277522 121.43082574196629 0.5499895089116124
1.8870061006965742 12.732633750891768 66.98817603774172 127.52953589953151 0.5622995079730917
1.9049279293274772 12.696810691678348 61.23765855852939 133.98149717534946 0.5751371837815202
1.9220665025887733 12.658987594068538 56.05529560753897 140.81237292802385 0.5885387377054707
1.9383803690736658 12.619092449102988 51.377279264985674 148.04984351720276 0.6025424217034406
1.9538743517514743 12.577243155924325 47.1500107397866 155.72234640858122 0.6171837659800196
1.968488678346298 12.533302292581006 43.32617239635542 163.86360936561292 0.6325106242694136
1.9822022502143706 12.487297976296194 39.86794703167036 172.507506733298 0.6485648675000883
1.9949905720433474 12.439213189003436 36.735282387389496 181.69317693367594 0.6653991200699634
2.0068229749706306 12.389046414332812 33.89322982352659 191.4627242753462 0.6830681056914336
2.017667236422787 12.336764166593941 31.31744971332644 201.8622028885898 0.7016310839407474
2.027501587495586 12.282374188610657 28.982801560715195 212.94148445054554 0.7211504316821382
2.0363094792587764 12.225897482820887 26.861650426549563 224.75627545370443 0.7416971512340893
2.044050587336918 12.16729638128288 24.93494522374943 237.36756581527536 0.7633477511251259
2.050708100696735 12.106580523085299 23.180874182211912 250.84235180841696 0.7861851897155183
2.0562781966523667 12.043825880944755 21.58743703987116 265.2539020751336 0.8102981051510686
2.0607209221201215 11.978969746535139 20.136275343646208 280.68361352233427 0.8357849890807025
2.064023517158619 11.91206673548107 18.816370041131652 297.2216354887923 0.8627540849555096
2.0661802095812116 11.84315673408084 17.613557524240733 314.9682877548081 0.8913255859782578
2.067169669808897 11.772255264954067 16.51908335740208 334.03289362006575 0.9216249562518508
