M[M_sun], R[km], Lambda[1], P_c[MeV/fm^3], rho_c[fm^-3]
0.24162668629717493 15.618656898711224 2160425.4255784233 3.5677272577965504 0.1711233750220791
0.2536434630711513 15.27730953123764 1723245.94996084 3.7848099385621583 0.17388805255313858
0.2660382148966672 14.981323995636375 1383109.2633125386 4.011381163410182 0.17666641555395451
0.27881264622060553 14.723573723296617 1116434.4421906103 4.247697325022973 0.1794571559459154
0.29196681905702626 14.498485429096782 905999.877388112 4.494383430152625 0.18226683674127292
0.305501368267302 14.301280287430842 738685.7918177932 4.751593892753903 0.18509114088350642
0.3194173273758676 14.12818911443247 605142.6452916869 5.020012962883693 0.18793673034327552
0.33371480269775766 13.97597528874917 497711.393479128 5.299861964486648 0.19080017476035452
0.3483947630339918 13.84207910236684 411039.67040281754 5.591872677354269 0.1936878348749863
0.3634546050954278 13.724105692994991 340670.9986564667 5.896208382739049 0.196594699892961
0.3789098160881107 13.620040133413255 283328.4951520401 6.2137347965056575 0.19952848503433204
0.39474023475272063 13.528493144229387 236425.04872467558 6.544711965421994 0.20248541555751132
0.4109640269126303 13.44794559609698 197886.9927673635 6.8898370222297585 0.20546911380707225
0.4275717156885674 13.3770898420861 166098.44118963013 7.249817345470249 0.2084826956464058
0.4445649118285327 13.314964174782393 139820.45311187595 7.6249157465596795 0.21152176937459582
0.4619453177354602 13.26060539844413 117992.38072316449 8.016073530191106 0.21459237824975252
0.47971016066028327 13.213200928797626 99825.53607921957 8.423999124769814 0.21769622632234645
0.49786491727305526 13.172012782227318 84655.52299689599 8.849138679299108 0.22083085834592217
0.5164010260682889 13.136441804472922 71948.54448104919 9.292354892510303 0.22399953286613372
0.535318218425561 13.105875766666312 61285.631253273634 9.754537381327614 0.22720524110264614
0.5546238605749513 13.079848375782815 52307.174846177615 10.236495556966467 0.23044933370783938
0.5743048112777455 13.05788920795463 44738.572226102384 10.738707815043146 0.23372860008143195
0.5943609471441672 13.039532913442558 38335.75834856915 11.262404350633972 0.23704904696913023
0.6147954525756214 13.024546147273254 32907.02927805435 11.808529396177947 0.24041237718885206
0.6355960285044909 13.012438117610582 28297.084713588665 12.378061733110505 0.24382022328925243
0.6567661659572115 13.003031183169602 24375.72754864659 12.971700352087193 0.24727064955753925
0.67829623857726 12.99600201601186 21031.83816709426 13.590751955823277 0.25076821790790166
0.7001838796043608 12.991077726500407 18040.26000027081 14.236423471594364 0.2543156736105473
0.7224153597146052 12.988007848877354 15733.170513654482 14.909904295104926 0.257915000727758
0.7450020680807529 12.986654206571005 13540.890579006022 15.612236217446224 0.26156621884394887
0.7679210081758395 12.98675914912429 11838.21495411158 16.34466097462797 0.2652709804682981
0.7911639586623221 12.988129518432926 10291.50065700204 17.108805851234557 0.2690340938235711
0.8147366031361434 12.990651051780361 8958.642098004784 17.906125507445598 0.27285799072881795
0.8386176309705367 12.994122007839978 7809.620022786577 18.737998045440627 0.27674386865424483
0.862795712435623 12.998400591069021 6816.289101845596 19.605741961391203 0.2806919784783471
0.8872696591409073 13.003335799323136 5957.017350890966 20.511454906954963 0.28470879176704406
0.9120298436843366 13.00883153707175 5212.6284974195605 21.45693048954558 0.28879732083453785
0.9370468477031121 13.01472702434496 4566.584236273186 22.443668969733206 0.292957619179632
0.9623227257753076 13.020927843937564 4005.7618904213487 23.47366283032484 0.297193224774434
0.9878461701433028 13.02731593276251 3517.5539439590098 24.549349379316205 0.30151036414048327
1.0135866251540813 13.033776786537194 3093.091316583843 25.67268970175461 0.3059108108029065
1.0395482159974936 13.04022908037432 2722.206834690171 26.845606537676172 0.3103955422825518
1.0656992216746661 13.04654885668601 2399.0016513459937 28.071214111917072 0.3149734297745636
1.0920270923714597 13.05268885103986 2116.2993715480025 29.351588508700328 0.3196450667276754
1.1185239514872327 13.05852359244649 1869.1413319911287 30.689441919842725 0.3244148429763973
1.1451532806293838 13.063989047916545 1652.512556191932 32.088218467598935 0.3292911178066772
1.1719150592687715 13.068995509595643 1462.6091797057281 33.54980925217065 0.3342712666986507
1.1987678616392679 13.073451637457753 1295.8293600759073 35.078779080983644 0.33936901101651795
1.2257127374686023 13.077320798283536 1149.426106502728 36.67717930241605 0.34458128665054155
1.2527061230373395 13.08048556410786 1020.4758529478412 38.350013018375115 0.3499222353560513
1.2797462321380382 13.082928464385375 907.0205031153153 40.09955140341996 0.3553886320366768
1.3067890720886712 13.08451701762766 806.9925717813325 41.93126407551141 0.3609950283632752
1.3338254858113046 13.085236652845046 718.8095705015143 43.84858235221712 0.3667430692510056
1.3608317341970824 13.08503453637162 640.839784569568 45.85627228258324 0.3726409450571011
1.3877615564215662 13.083781002849085 571.990973080793 47.95962601095217 0.37869839129267585
1.4146166960539421 13.08149286500288 510.98953494980805 50.16335033788507 0.3849208122573064
1.4413401215963266 13.07804410322288 457.0415302712882 52.472755922633596 0.39131565754434666
1.4679321614760394 13.073453153967803 409.15034114944984 54.89421030045099 0.3978943739371579
1.4943411117503946 13.067588459847023 366.6498814125643 57.43390017443522 0.4046660171514799
1.5205520122591765 13.06045123770564 328.9562379411372 60.0984500734407 0.41164035255459264
1.5465343987920157 13.05196888157329 295.3883802332842 62.894961763033336 0.4188279135888757
1.5722508476291497 13.042093862785997 265.5593146188298 65.83105742935984 0.42624006496416544
1.5976739772470947 13.030774330749002 239.00795763228277 68.91492701888156 0.43388907117707765
1.622761060786491 13.017959849362164 215.3083553070425 72.15538016453424 0.44178817098383666
1.6475125778500836 13.003627002386084 194.1683721948589 75.56190318284644 0.44995165852886065
1.671861332704265 12.987699439335627 175.29357398353682 79.14448876585942 0.45839399920948454
1.6957993919317191 12.970157282724502 158.41901129370845 82.91320436284595 0.4671279563412864
1.7192644189538229 12.9509198323924 143.33412595804737 86.88083854438618 0.4761753153912488
1.7422670701011826 12.930024760355687 129.82403652270307 91.05903743130058 0.48555070619384677
1.7647460996253965 12.907383973673024 117.71873894530174 95.46173515754496 0.49527544733482237
1.786674900155794 12.88295671258307 106.85920384737265 100.10274632385506 0.5053676563613789
1.8080145241503303 12.856711229414493 97.12127877272134 104.99851138414452 0.5158527198877879
1.8287264349110888 12.828586616473874 88.36257008408778 110.16556165436799 0.5267531612035894
1.8488084505448839 12.798630495143618 80.49497805570248 115.62143312509272 0.5380920292439725
1.8681959900972767 12.766732496599596 73.40931856368466 121.38649024760099 0.5498992580922307
1.8868681282653235 12.73289549206666 67.03309338135092 127.48206022304618 0.5622043205030045
1.9047928457282326 12.697092259679286 61.28073161281645 133.93066124426332 0.5750368178691396
1.9219379182073415 12.659289107879555 56.09385561995155 140.75777130627364 0.588432352982354
1.9382544305337346 12.619412257492618 51.41090708173674 147.99114921981032 0.6024295203021829
1.9537552947760366 12.577584159385816 47.17996511572839 155.65939362263705 0.6170644641489927
1.9683741754616717 12.533668580625065 43.354430378402185 163.7960165948385 0.632384360411872
1.9820943565628795 12.48768375863711 39.894782331130614 172.43465160669848 0.6484303484746371
1.9948884365625401 12.439620089169862 36.758017876877624 181.6147953426139 0.6652563469150216
2.0067218121174655 12.389460430259252 33.91721385691167 191.37830721436885 0.6829163481284842
2.017580392816823 12.33721690707883 31.33983540964552 201.77118886493997 0.7014695430265621
2.0274217481307324 12.282846577141536 29.001490261968154 212.84348291700073 0.7209789838624471
2.036236965928282 12.22639578572934 26.87864863219978 224.6503793076063 0.741514107224529
2.043987998066823 12.16781760729487 24.950964241530073 237.25325915111557 0.7631528477623444
2.050652784927378 12.107130261141398 23.19578253827578 250.71875746336022 0.7859771467437522
2.056226506648959 12.044377511132998 21.600596003327055 265.1199521462021 0.8100752046869996
2.0606860427807656 11.979567081317185 20.148796661500203 280.5387475426277 0.8355473751567223
2.0639982978099214 11.912687550923003 18.82787327385665 297.0644665208584 0.8624994430657458
2.066166228575971 11.843804593865835 17.624509641349597 314.7975537118172 0.8910522743562312
2.067167687838587 11.77292864152821 16.52897661455511 333.8474684104178 0.9213320919448731
