M[M_sun], R[km], Lambda[1], P_c[MeV/fm^3], rho_c[fm^-3]
0.24162668629717493 15.618656898711224 2160425.4255784233 3.5677272577965504 0.1711233750220791
0.25363699203239665 15.277459659386677 1723398.8377851807 3.784702143903181 0.17388670894471628
0.26602573223910514 14.981580079370952 1383288.161611357 4.011154562672128 0.17666367721776574
0.2787936542646432 14.72395086034642 1116758.1133266229 4.247344257249829 0.17945306089180874
0.29194053779506773 14.49888055467728 906285.0134004202 4.493894636059759 0.18226139390560567
0.30546777513806345 14.301729134730667 738994.4667278841 4.75095278188086 0.18508421566249905
0.3193760150656077 14.128646172060344 605429.437498245 5.019214818427775 0.1879284492864899
0.3336659485576008 13.97645847582159 498058.73908040853 5.298885781026439 0.1907903462126915
0.3483368653417337 13.842511944111235 411315.3799323222 5.59071602354752 0.1936766439312215
0.36338938028349327 13.724526419561206 340957.2031510283 5.894845281751705 0.19658189736002493
0.3788334477705963 13.620510626401549 283579.86741452035 6.212148761610527 0.1995140223057988
0.39465451494107884 13.528950690988749 236667.75599217627 6.542904649245164 0.2024695678362051
0.41086815144040173 13.448376939963639 198092.2261047615 6.887773546595751 0.2054515403826691
0.4274643475975987 13.377522655374033 166297.93261304832 7.24747835755482 0.2084633457988127
0.444447609853327 13.315383081434575 139985.26982627044 7.622307716527522 0.21150100777858205
0.4618159504376854 13.261003349493972 118140.24014555915 8.013150983646481 0.21456976998945246
0.4795687237871835 13.213554312552915 99953.60131206714 8.420739284894058 0.21767171688365333
0.4977131260131245 13.172331063872567 83893.7597400308 8.845553570093376 0.22080490062347338
0.5162369302964827 13.136718137460127 72055.82174609882 9.288386516717745 0.22397159525315474
0.535141711603753 13.106129402293966 61376.77884008578 9.750158847690935 0.22717526334367655
0.5544356570666709 13.080071933808254 52393.18493529466 10.231678340885756 0.23041725292794393
0.5740980524439122 13.058082408656073 44807.52389082331 10.733472849535836 0.23369498998128566
0.5941465681356998 13.039726751488693 38398.24200366541 11.25667293968099 0.2370132370097787
0.614564058869406 13.024673367658226 32964.59109541038 11.802267701149194 0.24037429563566978
0.635349623761136 13.012569788553769 28348.78509621553 12.371233805113025 0.24377979462092683
0.6565022016213696 13.003110050425114 24227.966058105583 12.964337544736848 0.24722856676998592
0.6780218187462493 12.996061726739539 21072.42991680036 13.58274975877743 0.2507236638186673
0.699892491752559 12.99112539109307 18211.491021106187 14.227739004045157 0.2542685599502473
0.7221098918973954 12.988045644679383 15764.515384738252 14.900491922141915 0.2578652339638817
0.744679722110757 12.986671841934676 13664.215638658865 15.60213917343976 0.26151460945262184
0.7675829665881816 12.986748905085815 11862.580318934488 16.333742585374402 0.26521655503629565
0.79080945856095 12.988114997349607 10312.709369947193 17.09701135315481 0.2689767411733614
0.8143671993354523 12.990609173951514 8978.420467895161 17.893396507598926 0.27279759253471264
0.8382304449038513 12.994056403546914 7826.053520206306 18.72439098878083 0.27668135126937327
0.8623931345519998 12.99831868859523 6831.484807980522 19.591080008174476 0.28062619954107365
0.8868491681483535 13.003250876064923 5970.521794624992 20.495667533985685 0.2846396090508218
0.9115917907521609 13.008729253950554 5224.748649082979 21.439942346237807 0.2887245825244392
0.9365931472578922 13.014619575216999 4577.655865620505 22.42555080064562 0.29288236662016326
0.9618527030429188 13.020810347405732 4015.1976452257773 23.454187383343065 0.2971141291975219
0.9873588725363324 13.02719581966444 3526.1917986145104 24.52842504499657 0.30142724169347923
1.013085121767874 13.033649263159196 3100.4613809682965 25.650397446209784 0.305824780695513
1.0390275864352831 13.040106545444358 2729.1634861834314 26.82167398339767 0.31030512940201177
1.0651634031204285 13.04644397228119 2405.0758691037017 28.045529306431348 0.3148784105104625
1.0914741275989261 13.052565334564159 2121.8285298347246 29.324242446276887 0.3195466376935189
1.1179534249374865 13.05840590237118 1874.014203122674 30.6601083062583 0.3243113667537075
1.1445669644954803 13.063862051260438 1657.0227419430398 32.05684095975524 0.32918284653546026
1.1713133558801092 13.068887232135493 1466.5164532717483 33.51632587993277 0.33415842428192893
1.198156717395239 13.073372314603288 1299.3959162142726 35.042879882137264 0.33925030209822776
1.2250827646003326 13.077242157149055 1152.606949265254 36.638968402903934 0.3444580242036356
1.2520621277523478 13.08042036687321 1023.3690317102923 38.3090510626371 0.34979247686002685
1.2790887113844713 13.082876515706836 909.6845263922606 40.05594511589105 0.3552537287509818
1.30611699550901 13.084485017938313 809.3598777869908 41.884833321732685 0.36085466116037374
1.3331393320395917 13.085227965389826 720.9284938639602 43.79880691817463 0.36659511091907243
1.3601350689026852 13.08505049107495 642.7789602886016 45.80325640532326 0.37248678208769165
1.3870545951986666 13.083828994940452 573.697196488422 47.90314339647316 0.3785376235388839
1.4138897284609178 13.081551304852226 512.5710501773469 50.102782077788376 0.3847510933177552
1.4406181195622658 13.078169985328259 458.4049108798588 52.4081981083818 0.39113840597413396
1.4671909941941876 13.073585352407973 410.4177557905032 54.825377278455335 0.39770908782129466
1.4935981484421286 13.06777151941614 367.8049873056894 57.36048316268613 0.4044721557912454
1.5198007203573254 13.060676691272441 329.96755367265337 60.02011509174392 0.41143733328432675
1.5457791557423006 13.052235219402196 296.33022679558917 62.81134735682141 0.4186151082774263
1.5714905730598498 13.042408163318498 266.39811138926024 65.7417721641008 0.426016796167173
1.5969044956431138 13.03112293024233 239.75015901120327 68.81954671931504 0.4336546079023091
1.6219974178179253 13.018367043054155 215.98904716676452 72.05344486979526 0.4415417240272704
1.646737334295663 13.004090141491652 194.79297200589806 75.45291378495273 0.44969237533413664
1.6711015869345245 12.988231396628377 175.86588898592012 79.0281362168297 0.4581219309036574
1.6950325817031096 12.97074758918311 158.945232840484 82.78902901611994 0.4668426017561673
1.718521565855608 12.951610486482224 143.79739830777987 86.74786603522627 0.4758741980817208
1.741521156004509 12.930768298564356 130.259858980854 90.91721239082197 0.4852351976827027
1.7640042817490758 12.908187438810579 118.10960385784229 95.3096925211891 0.4949418318411867
1.785936649236777 12.88382142143835 107.21089453347115 99.9403537402978 0.5050172202112652
1.8072732080260616 12.857620828086418 97.44350911351134 104.82492744612082 0.5154841140315485
1.8280192864644182 12.829627578191616 88.65507475774513 109.979155009914 0.5263622695959166
1.848094709102 12.799703335367466 80.75573025476415 115.42187133889283 0.5376798034571617
1.8675088050086723 12.76791848905807 73.65615249235306 121.17269683892194 0.5494640530587039
1.8861985940814678 12.734170734513393 67.25440301809061 127.25283592596173 0.5617442691677688
1.904130522746191 12.698419775955678 61.48669369262142 133.68540045771547 0.5745523867607942
1.9212967477642386 12.660714960332806 56.279925932613146 140.49449614355757 0.5879193928468986
1.9376491839062981 12.620963701950469 51.58574644902976 147.70814949437616 0.6018851562501959
1.9531674499147575 12.579209731450355 47.33586934032922 155.3558703994455 0.6164892572579418
1.9678256127474238 12.535431807029353 43.49814898951069 163.4692320097223 0.6317725575401456
1.9815730816276518 12.489543226787067 40.02427871816954 172.08340856399042 0.6477818166003965
1.9944082173642228 12.441620909759312 36.87587397872265 181.23692137838154 0.6645680442496532
2.006262711817202 12.391530642619546 34.0268203537579 190.97135085405193 0.682184757798835
2.017149448187787 12.339381503188925 31.439135829787542 201.3324459981668 0.7006908177164547
2.027030701401837 12.285133377876713 29.095180185882153 212.37058694629653 0.7201509387275244
2.035889223282607 12.228806008692438 26.96491633609066 224.13993338127645 0.7406317892888739
2.043680245924551 12.170346417751146 25.02789658918048 236.70200841881692 0.762212471871281
2.0503900720537915 12.109779379023088 23.269123767722526 250.1221005614563 0.7849713180748129
2.056013957100887 12.047164788978957 21.667288317960434 264.47435808323104 0.8090008986579913
2.06050696302123 11.982439937580248 20.210927496910664 279.8394899951519 0.8343986741102175
2.0638750695389856 11.91569769996167 18.883159108563596 296.3070282870865 0.8612722574084081
2.0660932294818934 11.846935425105068 17.675908720452863 313.9747798174363 0.8897351751784975
2.0671454513238245 11.776186811905564 16.575895577343 332.9539378593806 0.9199208318142266
