M[M_sun], R[km], Lambda[1], P_c[MeV/fm^3], rho_c[fm^-3]
0.24162668629717493 15.618656898711224 2160425.4255784233 3.5677272577965504 0.1711233750220791
0.2536411863667517 15.277381065628829 1723183.0756494626 3.784785384566553 0.1738877464994286
0.2660353402188124 14.981357022554116 1383141.2878704504 4.011329546378394 0.17666579179258765
0.278811794401574 14.723535850668325 1116504.978874115 4.247616899048715 0.17945622312581339
0.29196068113552176 14.498555014778379 906029.3449863133 4.49427208518856 0.18226559688925623
0.30549393358352117 14.301379108545047 738770.7464618899 4.75144784857849 0.18508956332768245
0.31940759157426035 14.128306529449803 605209.6724174643 5.019831144113757 0.18793484390336182
0.33370112699272847 13.976192657124546 497809.78196609026 5.299639584876698 0.19079793576667683
0.34838248279105594 13.842167204698846 411099.9060849574 5.591609182104966 0.19368528548596425
0.36344032677981436 13.72416977053857 340738.2149326878 5.895897852719054 0.19659178332929805
0.37889218784176576 13.620146230159342 283389.12711919117 6.2133734744999956 0.19952519021270043
0.3947207916946065 13.528610068915334 236473.02897592037 6.544300227000749 0.20248180516778835
0.41094220026377504 13.44804015236264 197936.41010171638 6.8893669196883325 0.20546511021655858
0.4275459621720197 13.377217122073592 166141.77898288856 7.249284468206024 0.2084782872893636
0.4445390360485764 13.315041702941057 139858.96781879338 7.624321567781371 0.2115170393294648
0.46191573780759665 13.260692796055515 118031.06575124821 8.015407687180039 0.21458722741575098
0.4796764993519768 13.21327462721934 99850.99827453474 8.423256426331184 0.21769064226836132
0.497829037798482 13.172097646761664 84676.46424786956 8.848321864197743 0.22082494425559007
0.5163643956916741 13.13649688879933 71973.09994072437 9.291450743695759 0.22399316760211221
0.5352779719691285 13.105939079560315 61307.6378052744 9.753539769581412 0.22719841092456497
0.5545797162448631 13.079909553863645 52327.760837839596 10.235397980684128 0.2304420242779649
0.5742583334124883 13.057909410686497 44754.26382802749 10.737515043350436 0.23372094211769032
0.5943106744464567 13.03958309359692 38350.27397563252 11.261098448235566 0.23704088766731302
0.6147432346921937 13.024549102190674 32919.552017221955 11.807102649906904 0.24040370019105053
0.6355390484716028 13.0124741455015 28309.225758408807 12.37650594865808 0.2438110113740658
0.6567060718367893 13.003072944498628 24385.51046779344 12.970022673764145 0.2472610606362091
0.6782342154896402 12.996007549790239 21040.89851991143 13.588928563460902 0.250758065747744
0.7001172374500062 12.991074256861943 18184.0326076907 14.23444459037967 0.25430493808337823
0.7223452974998995 12.988019535236107 15739.35758577128 14.907759522254747 0.25790366050522084
0.7449277664870875 12.986651351263918 13643.353321606835 15.60993540564175 0.2615544586201932
0.7678441414967291 12.986756408875054 11843.814239860565 16.342172970659686 0.26525857839252914
0.7910824100263386 12.988125942968862 10295.805086247972 17.106118170835806 0.26902102454391685
0.8146503608268039 12.99065675492185 8962.735738507265 17.903224838762732 0.2728442272633255
0.8385275368304642 12.99412137709125 7812.632247958362 18.73489725308926 0.2767296221177834
0.8627040089273694 12.99837974642319 6819.693248195187 19.60240073399062 0.2806769884982025
0.8871748326783123 13.003326611625704 5960.2721776280005 20.507857166594434 0.28469302591094575
0.9119283644954886 13.008813603510097 5215.263165256761 21.45305905747752 0.28878074448353874
0.9369425623218334 13.014705467863894 4568.848610294963 22.439539971262054 0.29294046967067805
0.9622148599790489 13.020899266184015 4007.8603488470703 23.46922445847499 0.297175199227583
0.9877353700691841 13.027287733824627 3519.4002061769825 24.544580747596303 0.3014914206304358
1.0134719769398592 13.033749370937175 3094.470935764946 25.667609266659298 0.30589120442543716
1.0394292097295212 13.04020299860875 2723.825722760907 26.84015220136643 0.31037493678213346
1.0655783594381383 13.046541613466163 2400.243886787523 28.06536034854129 0.3149517741584252
1.091901184256778 13.05266282538734 2117.569569488815 29.345356062166076 0.31962263374689376
1.1183934087284162 13.05849916568288 1870.214234395404 30.682756395745862 0.32439125935693447
1.145020386898049 13.063959469808164 1653.5252722713228 32.081101682833065 0.32926666523519676
1.1717774454759189 13.06897354931884 1463.4820760415848 33.54217774490917 0.3342455477323382
1.1986274522884879 13.073431026182678 1296.6083936329112 35.07059684080679 0.33934195456646343
1.2255697471671418 13.07729860138062 1150.106013917603 36.66847006961369 0.3445531920136814
1.2525592956944307 13.080476460493465 1021.102968365178 38.340676610567826 0.3498926596628619
1.2795968026416285 13.082914273755687 907.5932550944466 40.08961215447937 0.35535788332094315
1.3066364858045398 13.084516543165808 807.5499243801738 41.92068090972692 0.3609630338497661
1.333668231193415 13.085237796575715 719.2643869869703 43.83723664230585 0.3667093439335802
1.3606724062215538 13.085039143427286 641.2507004201971 45.84418779697165 0.37260580501449586
1.3875998266453033 13.083793612481466 572.3710284142713 47.94675114521853 0.37866174526870083
1.4144520955385522 13.081509842292812 511.3294539007232 50.14954394968372 0.3848821252360708
1.4411807378826735 13.07808839743036 457.33804502396885 52.458039924606155 0.3912752529273713
1.4677646822213264 13.073485660174041 409.4432507890101 54.87851954761345 0.3978521372524396
1.4941714784819682 13.067630041088643 366.91457127017634 57.417164245752936 0.4046218250790727
1.5203812932991998 13.060501097389484 329.18345836326 60.080592799525775 0.4115940722001377
1.5463623503148132 13.052030080900629 295.6047058085881 62.875900706724295 0.41877940168514804
1.5720771155373527 13.042164881805117 265.74435991753217 65.81070331393461 0.4261891669929083
1.597501790629998 13.030855705868243 239.17900560371223 68.89318309802077 0.43383562040249946
1.622586550980809 13.018057038649461 215.46929714790565 72.13214152742643 0.44173198738810926
1.6473382457536507 13.003733851137472 194.3084884371449 75.53705598700763 0.4498925476387968
1.6716882006557974 12.987821016291742 175.42599790517568 79.11803909227028 0.45833229242360496
1.6956263824407793 12.970296141568268 158.53616058130513 82.88489422746682 0.46706289973263765
1.7190903641701094 12.951070471939417 143.44086713142374 86.85052225640457 0.4761066639148679
1.7420957383659545 12.930192372827712 129.92995188210776 91.026702370201 0.4854787725850083
1.7645804997089682 12.907574939787267 117.80469902831997 95.42706992248635 0.49519938406873293
1.7865071430644708 12.883155711756432 106.93779889499311 100.06572073374709 0.5052877567442356
1.8078481683556262 12.856924452067268 97.19067155074167 104.9589334967598 0.515768676160968
1.8285737268975704 12.828840777666313 88.43274347260355 110.12307480881435 0.5266640922156477
1.8486475518313117 12.79888166653752 80.55163343640481 115.57593046019355 0.5379980364400533
1.8680392086289535 12.767004410405468 73.4644572093405 121.33774169094949 0.5498000238952413
1.8867156328685506 12.733188340956946 67.08299895051348 127.42979216533773 0.5620994189282378
1.904644485430045 12.697401909410422 61.32580631285591 133.87476635285464 0.5749264639982892
1.9217943824093244 12.659621503443176 56.13700747984202 140.6977366673317 0.5883153826756757
1.9381229782904565 12.619794348173734 51.44985677772036 147.92661543518898 0.6023053863567077
1.9536182920495615 12.577943338049149 47.21589444850337 155.5901784276753 0.6169332944260015
1.9682491865482268 12.534067586644449 43.38657494154595 163.72153592114284 0.6322449799697291
1.9819768643467142 12.488109501041015 39.92271074355923 172.35455095928737 0.6482824513872161
1.9947767953170883 12.440067397003494 36.78657749291393 181.52861967075654 0.6650993767338401
2.0066184710399977 12.389935542246253 33.942045895154614 191.28549709703472 0.6827495022674627
2.0174840012055837 12.337714340786464 31.362339170010035 201.67112720772633 0.7012919434552763
2.0273339203332577 12.283372561524853 29.022742170169472 212.7357404761793 0.7207904949082555
2.0361586240386096 12.226945063736581 26.89893003537865 224.53395921635547 0.7413128723252327
2.043918245586668 12.168397003651448 24.96935466341202 237.12759441716378 0.7629385778471975
2.0505931768914105 12.107732610719571 23.213116355956963 250.58266781438925 0.7857477303571418
2.0561764521072683 12.04500798330552 21.615390946484183 264.97269671436186 0.8098301630930572
2.0606461296927505 11.980228143227343 20.163039955989564 280.37938478858496 0.835285805631648
2.0639769135393116 11.913386554477214 18.840775730170886 296.8916909106508 0.862219515619083
2.066149660102552 11.844517388270354 17.63641601722842 314.6098691579343 0.8907518283001753
2.0671617878191673 11.773675580760111 16.540235788428017 333.6436374901463 0.9210101572882033
