M[M_sun], R[km], Lambda[1], P_c[MeV/fm^3], rho_c[fm^-3]
0.24162668629717493 15.618656898711224 2160425.4255784233 3.5677272577965504 0.1711233750220791
0.25364061852116737 15.277409452982578 1723174.4047501434 3.7847747369839495 0.173887613782448
0.26603431065631156 14.981383321382012 1383038.0836755345 4.011307163341733 0.17666552130679916
0.27880691955289016 14.723688107682246 1116598.4756481913 4.247582023621096 0.17945581862340915
0.29195867762178146 14.498573267071649 906059.7990933906 4.494223802539179 0.18226505925074954
0.3054903601261692 14.301418112999947 738808.6237586797 4.751384519667635 0.18508887925458017
0.31940296477384716 14.128360861444218 605245.998827415 5.019752302790082 0.18793402589419875
0.3336983667466808 13.976136958633774 497836.7685222282 5.299543155915251 0.19079696488703965
0.34837493747789233 13.842255754860021 411143.61095110263 5.591494925101912 0.19368418001802867
0.36343499057848805 13.724182301551325 340773.2401634016 5.895763201272139 0.19659051865441335
0.3788840389262908 13.620206422505733 283416.5691281169 6.2132167996601915 0.1995237615268102
0.3947120443477783 13.528656448501177 236495.43613715548 6.544121691790295 0.20248023965518194
0.41093272235163447 13.44808403457274 197957.32317054257 6.889163078215602 0.20546337421703806
0.42753574163365726 13.377246724706023 166157.75870102356 7.249053408285269 0.20847637578985478
0.4445251463564759 13.315118171816195 139878.92474068268 7.624063928363665 0.21151498835403826
0.46190306151639643 13.260727351371917 118042.18172581351 8.015118975376819 0.2145849939965396
0.47966252478945887 13.213310697163827 99866.86550051527 8.422934391581833 0.21768822101724253
0.4978145252287838 13.172125371003004 84689.97319165408 8.84796769416112 0.2208223799131997
0.5163475213007547 13.136524610179677 71982.41728459079 9.291058708064936 0.22399040764683067
0.5352611598004262 13.105951316742209 61315.53952385988 9.753107211181463 0.22719544940079242
0.554562052510694 13.079925985033157 52337.04740150147 10.234922080920303 0.23043885497118693
0.5742338728105089 13.057972981810334 44759.29615587715 10.736997870138996 0.23371762170547267
0.594288601809909 13.039604177883028 38355.349435567936 11.26053222587215 0.23703734989973985
0.6147201766351159 13.024578014700811 32925.98386536773 11.806484034618478 0.24039993797796008
0.6355149913865675 13.012492502585465 28315.56355131706 12.375831388113175 0.24380701725102502
0.6566816786249138 13.00306461186255 24390.362265823976 12.969295265572374 0.24725690306927267
0.6782068885687015 12.996011493055759 21044.766365893956 13.588137980877613 0.25075366399573
0.7000892173888209 12.991073915699094 18187.693943527185 14.23358659598294 0.25430028342190153
0.7223163759204932 12.988013029759937 15743.418707716379 14.906829606425113 0.2578987436896952
0.7448969671909592 12.9866442503141 13645.982961684826 15.60893784005745 0.2615493597266377
0.7678098817503597 12.986757170657159 11846.313251146988 16.341094249890574 0.26525320124004764
0.7910474420723353 12.988119548640118 10298.145700600344 17.10495288303627 0.2690153581439473
0.8146158150908319 12.990643821340035 8964.932415710458 17.901967213372757 0.2728382599207746
0.8384906507759743 12.99410078547788 7814.391458670811 18.733552867374083 0.276723445361026
0.8626654991481237 12.99836219487443 6821.169084614878 19.600952112839035 0.2806704894486929
0.8871329595279672 13.003322242647869 5961.469178363323 20.506297340519417 0.2846861905112302
0.9118851604850281 13.008800798239037 5216.262192307317 21.451380579851698 0.2887735577284103
0.9368984576306465 13.01469241928901 4569.983982021395 22.437749832680304 0.2929330344541598
0.9621686352340226 13.020891124670749 4008.7113080180284 23.46730020116057 0.29716738424687655
0.9876875859448931 13.027282614436931 3520.421130438676 24.54251331787209 0.3014832077135965
1.0134276600480563 13.03374447753408 3095.491688234001 25.66540666548901 0.30588270416332397
1.039378288781083 13.040188954080447 2724.495321155625 26.837787510646713 0.31036600340640313
1.065524765303375 13.04652788625012 2401.0057476800284 28.06282250379911 0.3149423855671844
1.0918466174072743 13.05264216672823 2118.1431166239113 29.342654055699843 0.31961290818265575
1.1183380268925986 13.058486962490143 1861.6227003620684 30.679857979956015 0.3243810350074231
1.1449627731992806 13.063956490106122 1653.8962994668382 32.07801631496185 0.3292560642150878
1.1717198311343298 13.068957637079697 1463.9431508157393 33.53886924752892 0.33423439775504643
1.198567172273335 13.073419307949873 1297.0017336886892 35.067049605357305 0.3393302248204897
1.2255065482915974 13.07729600250853 1150.415550282227 36.664694386791325 0.3445410122453596
1.2524952351920262 13.08046783697446 1021.3277189890484 38.336629056384936 0.3498798378985226
1.2795325456117868 13.082914395200548 907.8339099098777 40.0853032767238 0.3553445530926705
1.3065699699139792 13.084509060881276 807.8297016702917 41.916092904385586 0.36094916361453944
1.333600271375544 13.085232298722193 719.4479721130242 43.83231809182819 0.36669472345787363
1.3606047223839757 13.085038308376957 641.4487163785975 45.838949003736346 0.37259057131540385
1.3875304021911583 13.083793082465693 572.5537768445213 47.94116974216511 0.3786458587938947
1.4143816567095484 13.081521600287816 511.474533117291 50.1435587620764 0.38486535408081374
1.441108351750138 13.078099818630724 457.4683199077617 52.45166045014486 0.3912577372806831
1.4676905142354093 13.073499699586439 409.5521890410395 54.87171755106597 0.3978338275010462
1.4940969058437954 13.067651550087529 367.02425280234706 57.40990920540428 0.40460266777537646
1.5203066015969608 13.060523186790785 329.29020408819963 60.072851702524346 0.4115740097474474
1.5462878883169808 13.052056254482546 295.6997564140688 62.86763782401274 0.41875837199171884
1.5720016142779971 13.04219571995622 265.82733524604845 65.80187995249341 0.42616710309144945
1.5974241220339234 13.030892667631857 239.25112582477328 68.8837573278756 0.43381245003141133
1.6225115995414165 13.01809406322027 215.52631827297307 72.12206788055602 0.44170763253026446
1.6472625148417164 13.003781265458342 194.3679449361592 75.52628512493536 0.4498669240131782
1.6716123591421814 12.987872759338948 175.47989292382323 79.1065736490181 0.45830554367567083
1.6955504174611384 12.970353847005219 158.59469283605665 82.87262239714047 0.46703469910228906
1.7190232302875603 12.951161347620824 143.48586687381717 86.83738089965168 0.47607690520749313
1.742021825737153 12.930264566739586 129.97390975226313 91.01268601579622 0.4854475913556923
1.7645077664465791 12.907651334500722 117.84618370583613 95.41204361910765 0.49516641300390957
1.7864342546244372 12.883241811296408 106.97707160440967 100.04967139982473 0.5052531229779119
1.807776477331614 12.857016538928239 97.22457622598093 104.94177795038898 0.5157322463222901
1.828503169046927 12.828943852360087 88.46284298431992 110.10464977819682 0.5266254520073365
1.8485786922972969 12.798990460522 80.58017745382993 115.55620705730644 0.5379572946957116
1.8679712556069878 12.767121808423967 73.48821354383709 121.31661150156935 0.5497570105730138
1.886649532016786 12.733315103487275 67.10570457416522 127.40713662144609 0.562053949432419
1.9045802831868095 12.69753634237749 61.346180464559005 133.85053893762193 0.5748786315580742
1.921732766884298 12.659766388788135 56.15366301880505 140.67171511899772 0.5882646828040264
1.9380636227826336 12.61994817768597 51.46644171930571 147.89864401537054 0.6022515819390221
1.9535585594108138 12.57809484099803 47.23039188304986 155.56017815049503 0.6168764408976748
1.968193769780996 12.53423936540556 43.401255239294514 163.68923086100955 0.6321844908758023
1.9819255594623484 12.488292632613689 39.934494313784235 172.31983318302 0.6482183488093015
1.994725866113879 12.440259602753208 36.79794137624704 181.49126915806454 0.6650313422570774
2.0065729959654104 12.390138168357186 33.95251686495436 191.24527144668247 0.6826771881333904
2.0174417407572904 12.337930067164011 31.372912094273214 201.62775903230033 0.701214969221813
2.0272959814355707 12.283596917345909 29.033431946980755 212.6890437766947 0.7207088018262819
2.036123581102305 12.227184119618322 26.905693387629963 224.48350206974533 0.7412256559461027
2.0438875056235637 12.16864713744295 24.975890650373127 237.07313114549157 0.7628457129659151
2.050568207892445 12.107999835318823 23.219084878273378 250.52368704490905 0.7856483021117466
2.056154987096893 12.045280288647708 21.622858220497015 264.9088774417039 0.8097239641155328
2.060629791402016 11.980510253435554 20.168648119500475 280.3102420212881 0.8351721932592117
2.063964876626559 11.913684178623718 18.84631676692818 296.81681311532304 0.8620982001739652
2.066142385641534 11.844826986839935 17.641175522773754 314.52853111486587 0.8906216220911846
2.067160190726655 11.773996791552525 16.544848553796 333.55530308172246 0.9208706401462006
