M[M_sun], R[km], Lambda[1], P_c[MeV/fm^3], rho_c[fm^-3]
0.24162668629717493 15.618656898711224 2160425.4255784233 3.5677272577965504 0.1711233750220791
0.25364337150079547 15.277292466578576 1723321.2102888469 3.784810187986151 0.17388805566208831
0.2660383947210199 14.981310883485653 1383071.8643081842 4.011381687747893 0.17666642189026632
0.2788131918321602 14.723558702159515 1116454.199748304 4.247698142012237 0.1794571654217597
0.29196649054992274 14.498476600311694 905907.2145146959 4.494384561230487 0.18226684933608742
0.3055013759492295 14.301260631191608 738689.710473545 4.751595376324072 0.1850911569088957
0.31941782631756566 14.128173545875395 605125.1286072918 5.020014809873028 0.18793674950650274
0.33371478306518726 13.975985097556633 497702.0751685445 5.299864223519337 0.1908001975050653
0.3483947463580189 13.84203393047181 411035.2141897244 5.591875354069009 0.19368786077293773
0.36345638158921056 13.724042626943866 340658.48932784365 5.896211537269548 0.196594729520979
0.3789101848973055 13.620063034414482 283327.2565844434 6.2137384670237905 0.19952851850503783
0.3947403062645423 13.528509221646818 236423.28650821408 6.544716148115299 0.20248545223408107
0.4109642654378442 13.447941245113263 197883.52526333256 6.889841797841486 0.20546915447818573
0.42757057677844024 13.377117767424167 166106.58865250013 7.2498227588111614 0.20848274042958784
0.4445652294964028 13.31496685301774 139825.8217220512 7.624921782666461 0.21152181742588702
0.4619453357346827 13.260608185015125 117995.59456579939 8.016080294343286 0.21459243057593824
0.47970901673629734 13.21318950173161 99824.60080402138 8.424006669709517 0.2176962830497454
0.49786522672717565 13.172012118404792 84654.99404640176 8.849146977205834 0.2208309184263123
0.51640252187302 13.136426064538089 71948.7933737697 9.29236407766394 0.22399959753018797
0.5353197171404176 13.105883342256472 61286.35338635808 9.754547516001287 0.2272053104899867
0.5546246991283671 13.079845190608 52309.233589872834 10.236506707217252 0.23044940796415989
0.5743052133823442 13.057862349371568 44738.80186131678 10.738719932422647 0.23372867787876184
0.5943610720200657 13.039536399976042 38335.422835501035 11.26241761736109 0.23704912985988136
0.6147959784246732 13.024535121600827 32907.486465055816 11.808543890620278 0.24041246533924487
0.6355968101771969 13.012456021699109 28299.300694710957 12.378077538524602 0.2438203168742821
0.6567667148900119 13.003029559974413 24375.769244920582 12.971717395892458 0.24727074697294102
0.6782982000401271 12.995980756280947 21032.193378054424 13.590770480032639 0.25076832104573643
0.7001844628534247 12.991066131849562 18039.95389784152 14.236443575524026 0.2543157826753469
0.7224160531238241 12.98800223298662 15733.167592550059 14.90992608445202 0.25791511593624966
0.7450028123701574 12.986654193355562 13540.826437067515 15.612259592111629 0.2615663383197334
0.7679212167462477 12.986762528712593 11838.188474972034 16.344686251135006 0.26527110646534613
0.7911647824004676 12.988129630548313 10291.45095423098 17.108833156430794 0.26903422659949405
0.814737498896102 12.99065710280774 8958.617598083054 17.90615497658809 0.27285813055779196
0.8386172407431663 12.994129431791768 7809.369659787678 18.738029547826113 0.27674401339140636
0.8627965569331226 12.998395496945415 6816.233798557979 19.605775906600805 0.28069213076909444
0.8872698277441485 13.00333561706189 5956.898707423604 20.511491458352882 0.28470895194093715
0.9120330701184185 13.008830402073277 5212.595303574448 21.456969821682094 0.2887974892433563
0.9370478740366264 13.01472410245356 4566.489643507755 22.443710918772013 0.292957793412057
0.9623243513372793 13.020929126445743 4005.7777670672795 23.473707922659052 0.29719340790780147
0.9878469506311975 13.027325262706333 3517.37394995142 24.54939782717293 0.3015105566008187
1.0135880164718822 13.03378175804912 3093.0648807303737 25.67274131760794 0.3059110099984252
1.0395490219404961 13.04023478543873 2722.2616128810782 26.845661952492183 0.31039575162974814
1.065698771232601 13.046560618548174 2398.9658390935374 28.07127358506704 0.31497364979160625
1.092028098074533 13.052685794477005 2116.296215695673 29.351651829412965 0.3196452946433618
1.118525133652579 13.05852475315223 1869.1372861094892 30.689509844040657 0.32441508258340684
1.1451543570105358 13.063979830331496 1652.5398901452186 32.088290773605614 0.32929136624299427
1.1719156730835478 13.068997373904107 1462.5729339064528 33.549886788052895 0.33427152800256815
1.198769549376206 13.073451174462473 1295.8047458511883 35.0788622126571 0.33936928591042503
1.2257142479328151 13.077325737365872 1149.416692585272 36.67726778865599 0.34458157209345425
1.2527078266857152 13.080485421459352 1020.4682565401018 38.35010787716708 0.34992253584790917
1.2797482436762913 13.082934794884167 906.9582282942729 40.09965238750438 0.3553889444476974
1.306790504336262 13.084516667097049 807.0141120317671 41.93137160227557 0.36099535343297345
1.3338263315363525 13.085236287734086 718.7983881475333 43.84869762709389 0.3667434119075551
1.3608337815805092 13.085033921150648 640.8298049086609 45.856395064053274 0.3726413020889373
1.3877633398603861 13.083782888042109 571.9880109387691 47.95975682339866 0.37869876362712573
1.4146188980090877 13.081491347629907 509.0208455062294 50.16349061555588 0.38492120533079893
1.4413411270636791 13.078042839983572 457.0291063434267 52.47290544286202 0.39131606807087355
1.4679337980247884 13.073450311458474 409.15135781377893 54.89436972522632 0.39789480307998115
1.4943427072453632 13.06759180385106 366.65726116963464 57.434070219365374 0.404666466163782
1.5205536493137448 13.060448233359285 328.9502795747735 60.09863151255225 0.4116408227868596
1.5465361480668836 13.051968256766488 295.3861643021007 62.895155434051134 0.41882840649701353
1.5722519249910387 13.042094102686344 265.55514508627033 65.83126423951816 0.4262405821184251
1.5976756856484846 13.030772081996371 239.00612580101838 68.91514795132782 0.43388961427187905
1.6227629152174277 13.017959091469775 215.30961305901116 72.15561628539213 0.44178874184858924
1.6475146268888265 13.003626802935134 194.1597474444738 75.56215564901306 0.44995225913988807
1.671863242067239 12.987697179058566 175.2913996495962 79.14475751551477 0.4583946261993557
1.6958011792283516 12.970156505933279 158.4085795221216 82.91349201773203 0.4671286173713768
1.7192656505589885 12.950919137123172 143.3359161746783 86.88114658508344 0.4761760129518692
1.742269038148111 12.930022185402102 129.82445211673323 91.05936598603573 0.48555143710719584
1.7647484266689537 12.907381623840521 117.72021700924162 95.46208739097845 0.4952762202136254
1.7866764456000497 12.882956239241123 106.85888543464065 100.10312254267346 0.5053684682252673
1.8080160383621426 12.856709167445677 97.11914479995032 104.99891353898784 0.5158535738644406
1.8287280955002694 12.828584242569836 88.36189019826124 110.16599187289891 0.5267540606760961
1.8488088827683886 12.798629043573392 80.49120117175386 115.62189548738837 0.5380929843249264
1.8681973445886326 12.766730072457507 73.40544033227167 121.38698559481699 0.549900266437638
1.8868697025570587 12.732892930942658 67.03291976671339 127.48259133587408 0.5622053864422123
1.90479432233486 12.697089468344737 61.27835729236993 133.93122921345088 0.5750379392166688
1.9219393632841157 12.659285728484114 56.09430825636258 140.75838134470163 0.5884335415691976
1.9382558186879717 12.619408222526092 51.409655562246016 147.99180498014186 0.6024307816898067
1.9537565402774904 12.577580217376443 47.17976161649361 155.6600969571971 0.6170657970383888
1.9683755312461755 12.533664937257756 43.35456959685183 163.7967717651947 0.6323857710763733
1.982095533998198 12.487679458208206 39.89372429525762 172.43546556496284 0.6484318513595758
1.9948890146737488 12.43961630177088 36.758026969157854 181.61567103907788 0.6652579420082729
2.0067226660819797 12.389455166482197 33.91603853835899 191.3792503348031 0.6829180435873999
2.017581137603525 12.337211945537709 31.339815363153377 201.7722056813554 0.7014713477753988
2.0274221804164316 12.282841678420088 29.00215452892186 212.8445777920143 0.720980899280779
2.03623761694027 12.226390396606883 26.878366527743783 224.65156237348305 0.7415161521820618
2.04398876002346 12.167812267044111 24.951289526399055 237.25453617064292 0.7631550251979475
2.050653971274025 12.107123832407979 23.19593465032405 250.7201404332279 0.7859794781183441
2.0562269882763435 12.044371831075024 21.600390955105055 265.12144859664517 0.8100776948674788
2.0606867284577746 11.979560238297008 20.14853476835557 280.54036593311383 0.8355500296937967
2.063998300507961 11.912680080247627 18.82737741400085 297.0662223426533 0.8625022878116637
2.066166399529016 11.843797290341179 17.62449553910404 314.79946106164954 0.8910553276481659
2.0671662348183877 11.772921603863429 16.528270288389017 333.8495398661467 0.9213353636437301
