M[M_sun], R[km], Lambda[1], P_c[MeV/fm^3], rho_c[fm^-3]
0.24162668629717493 15.618656898711224 2160425.4255784233 3.5677272577965504 0.1711233750220791
0.2536438168310211 15.277299214954326 1723301.6274836326 3.7848163187847974 0.17388813207953585
0.26603960637026347 14.981266333886733 1383042.0456003428 4.011394575893823 0.17666657763590382
0.2788142695508396 14.723531188522001 1116462.847553795 4.247718223514582 0.17945739833692473
0.29196788466275975 14.498459828898921 905884.696650373 4.494412363025621 0.1822671589155287
0.30550484343057366 14.30119010282908 738654.4636792451 4.751631842390902 0.18509155081201398
0.31941992030141175 14.128154528474427 605129.7762899299 5.02006020881053 0.1879372205380017
0.3337156621251919 13.976081104246575 497707.4311493406 5.299919750530822 0.19080075656993498
0.34839814372705724 13.842050773157501 411020.06253645173 5.591941147771676 0.19368849734511026
0.36345930714181957 13.72407108602058 340660.16823785607 5.896289075777133 0.19659545777905116
0.3789136894584348 13.620024241749672 283330.2869723653 6.213828688629039 0.1995293412174438
0.3947443664219284 13.528493389391492 236404.70244674434 6.544818959125157 0.20248635374774665
0.410970021299837 13.447890110539394 197882.05495437369 6.889959182968784 0.20547015417918857
0.4275772454661976 13.37709903563402 166090.1877830212 7.249955819540587 0.20848384120690186
0.444572142376428 13.314939117514633 139804.87034526526 7.625070151213735 0.21152299853492398
0.4619529011482444 13.260581673474913 117987.59208589682 8.0162465585442 0.21459371676395114
0.47971628745280853 13.213184786868018 99813.02374375415 8.424192126013574 0.21769767742188875
0.4978739129741881 13.17199583256452 84649.70062242074 8.849350941792117 0.22083239521706435
0.5164126560033803 13.13639789946049 71941.88082486732 9.29258985122571 0.22400118699013816
0.5353282931231967 13.10587498370841 61280.036854535814 9.754796629276303 0.2272070160513308
0.5546363651965944 13.079806376245351 52304.332217903575 10.236780783954343 0.23045123320831123
0.5743165683852152 13.057857147565532 44733.05645308222 10.739017781751755 0.2337305901637169
0.5943732216300945 13.039530031345869 38331.28903218622 11.262743718373368 0.2370511673449073
0.6148090588124148 13.024510975104736 32904.19006679504 11.80890016967881 0.24041463211035924
0.6356130720710603 13.01245821579815 28294.43213736743 12.37846604216969 0.2438226172331928
0.6567816845308502 13.003038828259019 24372.350610470556 12.972136340059603 0.24727314148600427
0.6783136135695639 12.995989852705387 21030.11807866968 13.591225813631295 0.2507708562212226
0.7002015063121977 12.991050813644163 18037.65896553546 14.236937739867136 0.25431846354102594
0.7224344405526927 12.987997154126331 15731.605754463068 14.910461677706811 0.25791794781968114
0.74501945902093 12.98664783607928 13635.410535065119 15.61283415377246 0.2615692750978218
0.7679406949643967 12.986760357574596 11837.512512113122 16.345307561689644 0.2652742035426309
0.7911841863474992 12.988141058752447 10290.069067535382 17.109504333962192 0.26903749030854945
0.8147566819750592 12.990674459471643 8957.219796185109 17.906879345898187 0.2728615676383735
0.8386396397321556 12.994130690455593 7808.379755854508 18.738803896111577 0.27674757112111953
0.8628197049339439 12.998400681445537 6815.309250854668 19.60661030186914 0.2806958741744379
0.8872944008396544 13.003344320966962 5956.0744989194245 20.512389916330708 0.2847128891231041
0.9120540433127097 13.008837647963624 5211.928307300709 21.457936633075303 0.288801628849766
0.9370734396903164 13.014734367489167 4565.730456579956 22.444742056304204 0.29296207617032505
0.9623511786523068 13.020930365014243 4005.2208109769963 23.47481632579404 0.2971979094622713
0.9878751603408193 13.027322835802783 3517.0861612261983 24.550588712785025 0.3015152874240156
1.0125602449766977 13.032877241486899 3107.158380138604 25.695306653104844 0.37889374371700446
1.0331058869410545 13.03245725396678 2797.33685210144 26.96865651372427 0.4783393124149937
1.0504242592577773 13.024803938257877 2550.7403461953336 28.374473377252897 0.5737653880618098
1.0652139180922724 13.009965761354819 2345.5227341916243 29.915069058253145 0.6653132939425521
1.0780293746636012 12.988401708444586 2169.7273843634507 31.592817862274764 0.753262925905128
1.089288595748466 12.960528430489456 2015.024738219132 33.410343100084944 0.8380167611752792
1.0993397136719638 12.926787821077419 1875.5681285425658 35.3707818205624 0.9200505939245149
1.1084455728659457 12.887588271480217 1747.844551223924 37.47684153690401 0.9995779660607491
1.1168490606270047 12.843429036345329 1629.3574333504362 39.7330643796638 1.0773329133062652
1.1246927349094982 12.79456296254087 1518.127268526121 42.145023607765864 1.1538226401470304
1.1321800721358986 12.74153597120244 1413.319259531144 44.71657437363631 1.228802855455173
1.139421795705149 12.68464186524707 1314.167638591271 47.45474968576549 1.3049599402832646
1.1464679088242684 12.624138448075533 1220.2180410517926 50.36775240822668 1.3836346442155711
1.1534013716746796 12.560526450306545 1131.4630023452628 53.466641573378276 1.4663645120466653
1.1602329777183533 12.493976121120507 1047.4856966221628 56.75981884819348 1.5554933524465036
1.1670026020601396 12.425005362375664 968.5161580672319 60.26436721175128 1.6552287924877953
1.1736275498052686 12.35373137083816 894.5833723058294 63.9987429966608 1.7735862135187659
1.1799874394861718 12.28067262126536 826.4141585780703 67.99069546786221 1.9290289416832322
1.185920729922772 12.205598129373088 763.7167989899187 72.26746183350143 2.0486956704574317
1.1920586519687297 12.126838841831292 703.4251408592671 76.7727354543506 2.0853197582545935
1.198644282164439 12.045072007181364 644.9763105548361 81.50319130160042 2.122987532921024
1.205809480387426 11.961545832144783 589.176476093248 86.4691515314557 2.161902335600282
1.213559879083548 11.876811458288257 536.2057814547991 91.68926734992385 2.2023135919282533
1.221883291273935 11.791462183927003 486.4913629857119 97.17777264622158 2.2443871290656685
1.230741436756117 11.705862847947389 440.2679837593336 102.95427989291771 2.288316881344407
1.240079819726906 11.620457867688717 397.5856469292808 109.03463925383782 2.33424197660454
1.2498311183528785 11.535236481263818 358.3445420543049 115.44115244763205 2.3823418121404445
1.2599599973605178 11.450675126655485 322.5179643891921 122.19646872963484 2.432761243176651
1.270371573313964 11.366715195080873 290.0078908279444 129.3238567080883 2.4856325454614603
1.2809923709839077 11.2835730550923 260.6312555692358 136.84889541303977 2.541100614921327
1.2917522448688965 11.201134293323046 234.17697730058043 144.8026520281876 2.5993512840839976
1.3025786361094835 11.11950652495353 210.39510739100956 153.2121503856776 2.66052304550509
1.3133951786764821 11.038705472162237 189.12560619669696 162.1138298271957 2.724829214033363
1.324128531825982 10.958490135633 170.07437643318087 171.5431947566706 2.7924615447882215
1.3347073186860057 10.878944702755028 153.0827798742351 181.53983789472724 2.8636348131974607
1.3450678278611623 10.799963517430053 137.9042814953948 192.14771851710228 2.9385879066428497
1.355130905645854 10.721490258515084 124.39197181499462 203.41322701818447 3.0175633879352355
1.364846172192454 10.643479991793335 112.36741790664594 215.38949154182595 3.1008462701283257
1.374159847175795 10.565770343739908 101.6296296075446 228.1313242075678 3.188712627764843
1.3829922786440596 10.488296848841697 92.08221335301516 241.7025208892793 3.281497226853329
1.391310714489294 10.410967254962182 83.56917582708758 256.16988609504796 3.3795317044933886
1.3990507678829005 10.333767805981665 75.98850170199572 271.6095836120442 3.4832030573906954
1.4061850542143841 10.256431138695454 69.22313763933774 288.10311732297436 3.5929088350513907
1.4126389292256438 10.179023653397714 63.18651472967872 305.7417830590766 3.709096442634838
1.4183997613171049 10.101488413818318 57.79642641877988 324.62567898674473 3.8322468447370572
1.4234218840198714 10.023737063402343 52.985683715641336 344.86431562678354 3.962872840152777
1.4276660502421532 9.945626656990655 48.67508390818702 366.5809698155891 4.101556534382101
1.4310998647104975 9.867256728659344 44.82639626136866 389.91003071486364 4.248910770145806
1.4337118690872839 9.78839261823247 41.368050452473156 415.00199745033547 4.405621108560332
1.4354676874894758 9.709200821511867 38.27397900680406 442.02296025813047 4.572426162087103
1.4363417173547943 9.629623712169993 35.50187401031959 471.158393853367 4.750143526313721
