M[M_sun], R[km], Lambda[1], P_c[MeV/fm^3], rho_c[fm^-3]
0.24162668629717493 15.618656898711224 2160425.4255784233 3.5677272577965504 0.1711233750220791
0.2536369664016317 15.277464057975045 1723403.4694499832 3.7847055195830914 0.1738867510209379
0.2660259922459548 14.981586331310943 1383400.5989694933 4.011161658724895 0.1766637629693756
0.2787944156854049 14.723900278862809 1116796.9350617772 4.247355313437043 0.1794531891269191
0.2919423579519744 14.498836624942514 906244.7350773024 4.493909942184645 0.18226156434285865
0.30547007879386706 14.301682855448316 739017.2727303155 4.750972857286656 0.18508443251519613
0.31937736667689026 14.128646713434515 605430.0528430288 5.019239810658389 0.18792870859052863
0.3336664344833381 13.976502219535961 498046.7540981386 5.29891634762081 0.19079065396757766
0.34833863229812045 13.84249531207217 411293.4211750151 5.5907522404767995 0.1936769943399752
0.3633916794259434 13.72450984876958 340980.5164196558 5.894887962157208 0.19658229822342557
0.37883588991992573 13.62051713881665 283578.85865496536 6.2121984214796875 0.19951447514401116
0.3946568211600859 13.528935858658754 236650.67676691874 6.5429612366740875 0.20247006403151088
0.4108712264081152 13.448341157570512 195582.9437619183 6.887838153309365 0.2054520906005534
0.4274679574289356 13.377501228489278 166278.3869323029 7.247551589202763 0.20846395162546846
0.4444515374647604 13.315349088600268 139980.25196669626 7.622389370388233 0.21150165779581656
0.46181952899105355 13.260978908860963 118131.3861385054 8.01324248304078 0.21457047781124144
0.47957360070178107 13.213519697290137 99959.68279208442 8.420841342583415 0.21767248421480329
0.49771710137990094 13.172326635891572 84766.58715644915 8.845665809515314 0.2208057132848444
0.5162427196726151 13.136706941799318 72052.3632180322 9.288510753044356 0.2239724698846393
0.5351460332088912 13.10614577717833 61374.74682377567 9.750295922390043 0.2271762018296245
0.554439092293718 13.08006795110207 52388.56311238124 10.231829146516787 0.23041825723461715
0.5741054003271917 13.058054478249563 44805.064741813636 10.733636730719217 0.233696042149247
0.5941535124208401 13.039718012415282 38395.8595978518 11.256852359205304 0.23701435802621343
0.6145714092724387 13.024667283741557 32961.729426005724 11.80246371779651 0.240375487743932
0.6353576249401429 13.012576544151731 28348.213532924565 12.37144754367151 0.24378106018279164
0.6565096505278935 13.00312521098832 24421.579613828922 12.964568023760888 0.24722988409357496
0.6780307323181125 12.996058183954343 21071.575640533916 13.58300024863222 0.2507250584790685
0.6999020933715958 12.99112601886745 18210.191470611888 14.228010846335847 0.2542700347079415
0.7221146968096459 12.988064297775972 15762.852097892459 14.900786544612489 0.25786679174394245
0.7446895800103357 12.986663762074173 13663.322604873043 15.602455222953337 0.2615162248880913
0.7675933193181766 12.986747141753588 11861.927361889515 16.33408433839697 0.26521825858939857
0.790821278918649 12.988112368200106 10312.536260325676 17.09738052293855 0.2689785363210083
0.814378023597974 12.990616311963688 8977.89148681363 17.89379492090202 0.2727994829773479
0.8382419878111422 12.99406555207865 7825.2965438798565 18.72481687924222 0.27668330801568175
0.8624057431073219 12.998321095241309 6831.004030819635 19.591538908514742 0.2806282583374871
0.886862397772313 13.003261231142892 5970.216761133158 20.496161650320637 0.28464177434521554
0.9116042753296107 13.008750313066317 5224.2484031293 21.440474035644883 0.28872685906450996
0.9366076559264053 13.014622495406211 4577.346339514451 22.426117849555215 0.29288472181850506
0.9618667642493032 13.020808940457895 4014.8968165942683 23.45479690104112 0.29711660462999906
0.9873739121760036 13.027199848224438 3525.92403612121 24.529079896992872 0.3014298431095877
1.0130999667465446 13.033661755150982 3100.2329474433777 25.651095099333624 0.3058274730732783
1.0390456661971967 13.040109625668801 2729.02159260144 26.82242295800992 0.3103079588932294
1.0651797384145292 13.04644072979956 2404.775431640419 28.04633310414867 0.3148813841077369
1.0914914966059892 13.052568616881008 2121.648921879282 29.325098220431393 0.3195497179550271
1.1179711709797038 13.058410187785391 1873.7499233541307 30.66102626304689 0.3243146049057613
1.1445860746099836 13.06386998538709 1656.906645641194 32.05782540057189 0.3291862511147612
1.1713323418127213 13.068894771244157 1466.3900103436827 33.51737366392274 0.33416195542200616
1.1981760881659136 13.073376434174856 1299.2657630874742 35.04400324321572 0.33925401674877037
1.2251028883426636 13.077245423843829 1152.4984212792501 36.64016408406738 0.3444618812859814
1.252082370916605 13.080420108895499 1023.2931089954575 38.31033280478072 0.349796537138152
1.2791089130317812 13.082885007709967 909.5684641961418 40.05730958092754 0.3552579499499664
1.3061374144263913 13.084490408035105 809.2739711728993 41.88628614317532 0.3608590532596963
1.333161032269961 13.085230967917973 720.857611628495 43.80036436449067 0.3665997404549756
1.360156983800849 13.085053694563724 642.7173001255392 45.80491521651753 0.3724916056853121
1.387077008539809 13.083829990588933 573.6208643531251 47.90491064912565 0.37854265371041446
1.413912490395437 13.081550821115085 512.5249689175113 50.1046771252106 0.3847564034494708
1.4406414607085167 13.078165659781947 458.3685274035355 52.410217945605055 0.3911439516903814
1.4672143393288473 13.073583796541666 410.3776885662223 54.82753083762208 0.39771488481526235
1.4936210635399778 13.067764051414857 367.76618296742475 57.36278009889004 0.4044782209683243
1.5198239165761167 13.060671796712224 329.9388753880952 60.02256584770157 0.4114436848615576
1.545802132806883 13.052227791751378 296.2861144840382 62.81396323399103 0.4186217658927945
1.5715138306380374 13.042399152844643 266.3735879154737 65.74456540096634 0.42602378099980887
1.596929085547981 13.031115861158217 239.72894986451058 68.82253057763886 0.4336619428047704
1.6220218035619376 13.018351848073577 215.97102219040892 72.05663372974398 0.44154943367122923
1.6467707407000036 13.004079445703079 194.769220617375 75.4563232501108 0.4497004863709491
1.671125302134245 12.988215164692324 175.84612566639618 79.03178323024466 0.45813047214147795
1.695056166726713 12.970727072128996 158.92969020644713 82.79291338549166 0.46685152802567037
1.718545343803552 12.951589791269226 143.78428259038955 86.75202550018636 0.47588361722335976
1.7415450475934406 12.930743653247044 130.24402577565996 90.92164868386214 0.4852450668017763
1.7640277554727537 12.908162570505537 118.09998053555343 95.31444831124001 0.49495226710647466
1.7859598711155726 12.883795245035042 107.20087954989386 99.94543316628973 0.5050281813921911
1.8072959815200107 12.857593529270904 97.43125131378197 104.83035680878301 0.515495643294542
1.8280424488732065 12.829596792919656 88.64773472846889 109.9849859247789 0.5263744979481892
1.8481166543642082 12.799669629379913 80.75494738233171 115.42811294184334 0.5376926964550459
1.867530983742836 12.767880556583911 73.6497893272024 121.17938340321037 0.5494776644532428
1.8862199575514136 12.734130975394606 67.24816699215542 127.26000493273163 0.5617586573071535
1.9041508371913303 12.698377159969308 61.4770188693334 133.69309293514502 0.5745676150619856
1.9213186348941762 12.660667997715544 56.27369705680735 140.50272970568898 0.5879354349569961
1.9376671587574719 12.62091363065749 51.57590312892057 147.71699968158174 0.6019021800256101
1.9531853450583174 12.579156998734689 47.329963503853556 155.3653621829331 0.6165072451377916
1.9678439619439247 12.535377503194251 43.49443440525902 163.47945258428103 0.6317916948917529
1.981589014524483 12.489485722572038 40.020068910209545 172.09439204637567 0.6478020963997116
1.9944226837095274 12.441560827983018 36.87177166380799 181.2487372966859 0.6645895671086816
2.006278759261286 12.39146556202873 34.024024065611975 190.98407580392413 0.6822076335938331
2.01716288139835 12.339313848578485 31.437191243931217 201.3461644649311 0.7007151666417462
2.027042879267787 12.285061040604987 29.092287922907495 212.3853922338908 0.7201768924785569
2.035900163438273 12.228730515938551 26.963135845883425 224.15589288643855 0.7406593756734885
2.04369006199683 12.170267150777363 25.026168335135342 236.71927078027016 0.762241962519225
2.0503985061993055 12.109696144980186 23.26669977718898 250.14075432353255 0.7850027641011975
2.056014557031585 12.047055826415779 21.664680203691482 264.49454114338346 0.809034484442696
2.0605122406574257 11.982346444881106 20.209259138297227 279.8613555365059 0.834434602611852
2.0638789731462297 11.915603804713532 18.881843070454586 296.33070630291604 0.8613106200367052
2.0660959415637916 11.846837351196596 17.674544421377952 314.00049931568583 0.8897763470365591
2.0671469084800647 11.77608371706118 16.57477429033366 332.98186815508456 0.9199649454852348
