M[M_sun], R[km], Lambda[1], P_c[MeV/fm^3], rho_c[fm^-3]
0.24162668629717493 15.618656898711224 2160425.4255784233 3.5677272577965504 0.1711233750220791
0.25362091389441677 15.277860515047951 1723864.041919166 3.7844083390693526 0.17388304680919875
0.2659927452156265 14.982308167601776 1384131.6786892966 4.0105369867984235 0.17665621417780036
0.27874213119681784 14.72487729599746 1117680.7890993394 4.246382079072204 0.17944190107491986
0.29186873108981226 14.499968174464243 907276.4130039196 4.492562671712247 0.18224656217346333
0.30537807045585963 14.302915246995681 740016.7756527612 4.749205879683567 0.18506534578475534
0.3192638872169171 14.129943000487103 606387.7939539182 5.017040178048726 0.18790588655322318
0.3335311017353368 13.977825662644651 498956.13022793684 5.296226238281048 0.19076356903022487
0.34817877751797077 13.843910391874086 412173.7952532497 5.5875644798362725 0.19364614708927833
0.36320789303193585 13.725827956281908 341698.30151990836 5.891132106188348 0.19654702242934216
0.3786236635609488 13.621873110421514 284271.04357843724 6.20782859305737 0.19947462757041556
0.3944227523891756 13.530225971423075 237261.97438666777 6.537982042425425 0.20242640322451205
0.41060701775096864 13.449548679388501 198635.81297989338 6.882153609672376 0.20540367864151463
0.4271744907362306 13.378664652432004 166776.72078411092 7.2411084763731 0.20841064940425702
0.4441288517405472 13.316439947660474 140426.5250580794 7.615205560527105 0.2114444700501474
0.46146599720176334 13.26200333941818 117215.09478779315 8.00519285806514 0.2145082074542126
0.4791865165786807 13.214486644842948 100313.88272423367 8.411863281040235 0.21760498174309842
0.4972981003542787 13.17320367377046 85083.89173899883 8.835792467451368 0.22073422606974696
0.5157876890928111 13.137498142855701 72329.99687835823 9.277582592727917 0.2238955349547202
0.5346586995353741 13.106842187703425 61626.77244770851 9.738239026388648 0.22709365393751202
0.5539165440228075 13.080715605955557 52612.3964380191 10.218565113776519 0.2303299239508829
0.5735456026685899 13.05861950033457 45003.19420129658 10.719223219557877 0.23360350294284424
0.5935559717814904 13.040205700459621 38568.455722220235 11.241072962481441 0.23691576806993403
0.6139343423089273 13.025083317089889 33117.811261119685 11.785225448036961 0.2402706503023759
0.6346811292899442 13.012910385786855 28485.72003420822 12.352651621908942 0.2436697681353223
0.6557938149842931 13.003392161108723 24345.699959189194 12.944300748517819 0.24711404465927295
0.677272307159891 12.99628249857739 21179.053995762628 13.560974319913456 0.2506024240090618
0.6991016476820722 12.991270167294193 18306.07691751746 14.20410846216884 0.2541403631072793
0.7212774669157015 12.988105467058146 15848.268015237465 14.874882346405201 0.2577298264833591
0.743804808485108 12.986690760041572 13740.385356904142 15.574535809416346 0.26137288367680034
0.7666628574869205 12.986722636038168 11929.86915929208 16.30403878131482 0.26506848902303
0.7898504872684905 12.988041050022769 10372.699183851311 17.06492608678203 0.26882072138797336
0.8133537134634579 12.990477734635705 9031.84918617396 17.858771246523176 0.272633298146733
0.837176441426825 12.993897753202045 7873.272365212826 18.687092561416733 0.27650875911663103
0.8612972257153537 12.998125678668773 6873.2643864866 19.551201339071667 0.28044728910296984
0.8857049424635158 13.00301450281483 6007.991214410614 20.452730602823237 0.28445145276099154
0.9104006482451271 13.008456067831334 5258.088902938098 21.393742642459628 0.28852676877169414
0.9353599636792617 13.014323255507563 4607.20661348947 22.37611259265833 0.2926763887301686
0.9605704853734004 13.020490517568282 4041.7733185241977 23.40122957853141 0.29689905181688475
0.9860310636302434 13.026861351641116 3549.9068118781724 24.471531128012113 0.3012012291701105
1.0117129947279389 13.033308188266604 3121.648058255794 25.589394500459157 0.3055879852361195
1.0376036485341271 13.039745205188407 2748.3528534657753 26.756608370525313 0.3100593232329154
1.063700277898016 13.046092475446212 2421.982479715442 27.975704502619987 0.31462009819901254
1.089965824708273 13.052219589837794 2136.929789610413 29.24969520645886 0.31927763776641144
1.1164012775732879 13.05807878000317 1887.5608472571564 30.58037386806966 0.3240300983563343
1.1429735101462235 13.063559516805732 1669.0730520129646 31.971336019538924 0.3288871371899518
1.1696705351653758 13.068592511277952 1477.5139358464842 33.425322947139215 0.3338517350156196
1.1964767950761983 13.073096995813547 1309.2557410945017 34.94531794508266 0.3389276912214891
1.223356868784869 13.076999379160005 1161.3828295063586 36.535130001493066 0.3441230575945232
1.2503015466354472 13.080231441631057 1031.3449282911797 38.1977446642844 0.34943988259083403
1.2772915470353454 13.082743292615957 916.7658472291581 39.9374602460245 0.3548871761468522
1.3042837709868986 13.08440237653301 815.8226046121213 41.7580560930951 0.36046977976234906
1.331279718869858 13.085232747928332 726.6604908205811 43.663577803525726 0.3661931400549878
1.3582278915384136 13.085077844350034 647.9329375888875 45.65923265177717 0.3720679805765277
1.3851230028558423 13.083941028153257 578.3510844393938 47.748956614228504 0.3780969557860527
1.4119385774757705 13.081776610794739 516.7845688075879 49.93826471102772 0.38429009752590326
1.4386339268948622 13.078467009097377 462.2140629686866 52.232855712243655 0.39065698144945726
1.4651820031087572 13.07397810012544 413.83291266164446 54.63843572733533 0.3972058747863844
1.4915684528866784 13.06827412665318 370.9234465568817 57.16107479073757 0.4039455409402736
1.517757628416997 13.061283299801618 332.7713154412449 59.807032161508786 0.41088432072439246
1.5437120453819333 13.052962178455166 298.8991399282798 62.58380411573069 0.41803495172469946
1.569411163480162 13.043258644771731 268.6979591647527 65.49891823263717 0.42540863311106564
1.5948210626232773 13.032116303726784 241.83119905152063 68.5604602802764 0.43301745029223093
1.6199118896258182 13.019502840531171 217.8861048313912 71.7767220038766 0.44087269659871786
1.6446566406367027 13.005372569518444 196.5022329490325 75.15706437589 0.44898855660110903
1.6690127368095442 12.989667618358864 177.4025013326261 78.71169280959275 0.4573808263091784
1.692946846239619 12.972338015033348 160.3434007247395 82.45146710435594 0.4660659059460998
1.7164401986411102 12.953381199172476 145.08091093002378 86.38699918571058 0.4750570122174358
1.7394634332387633 12.932720122671743 131.4182732194476 90.53119436473904 0.48437443477568365
1.761964247410566 12.910329226187388 119.16364201019195 94.89713910896961 0.4940365975360765
1.7839155335985017 12.886157855855153 108.18122132474721 99.49926038759102 0.5040645328853623
1.8052974816989393 12.860197005437362 98.3094708305263 104.35222202263998 0.5144773746311571
1.8260534879232613 12.832364894099467 89.4583702764435 109.47343229036616 0.5253016889305899
1.8461857407955073 12.802719229343404 81.49066915603144 114.8805635054616 0.5365616482642658
1.865620243523137 12.771104009706681 74.32483590853175 120.59283744070342 0.5482836718186942
1.8843575741983543 12.737591287120738 67.86347885124066 126.63118120476213 0.5604966131025912
1.9023645740260815 12.702151419942945 62.037979720048966 133.01840006816013 0.573231969129412
1.919588236289884 12.664696149363083 56.787052264212825 139.7793693870554 0.5865241138371116
1.9360087078715427 12.62523553837075 52.046567746803284 146.94087245250185 0.6004092606857375
1.951588916024154 12.583722666870495 47.76246571439316 154.5312106239941 0.6149236737253064
1.9663111567035154 12.54018933513316 43.88650843214071 162.58327929603732 0.63011366953029
1.980147466737785 12.494618202794793 40.37989769274458 171.13103871491242 0.646022830022821
1.9930439466558632 12.446915832010658 37.2063010315524 180.21187645079596 0.6626994608689056
2.0050150109418583 12.397196245234708 34.32774729816375 189.86757388948757 0.6801989808409454
2.0159885125318726 12.345323801441348 31.717526391601037 200.14321146063944 0.6985793640306182
2.025977236393588 12.291399058143424 29.349152490441764 211.0877308927434 0.7179020849708944
2.0349303600508306 12.235356017106016 27.198975203475545 222.75546229207393 0.7382360513108442
2.042827671097617 12.177198417432155 25.241818543214542 235.20651262115948 0.7596575989363217
2.049667594824568 12.116989151775254 23.465711095509583 248.50577482942623 0.7822458780501803
2.055407453198477 12.054682365653933 21.848859091077728 262.7253256295109 0.8060890892127782
2.0600218189162525 11.990304738340239 20.38011302279852 277.94840819396916 0.8437132019091543
2.0634487963546846 11.924022937497472 19.044560972963225 294.28498645318984 0.8974425605498818
2.065665101533433 11.855748215704704 17.835295747807006 311.8425920302317 0.9557525386306264
2.066592574968302 11.785457413734408 16.74004639777257 330.73908776177706 1.0191357111032253
