M[M_sun], R[km], Lambda[1], P_c[MeV/fm^3], rho_c[fm^-3]
0.24162668629717493 15.618656898711224 2160425.4255784233 3.5677272577965504 0.1711233750220791
0.2536440187823906 15.27727403165562 1723136.0758573648 3.7848203447967 0.173888182261832
0.2660399687328913 14.981258060896916 1383045.0173354915 4.011403039379695 0.17666667991213578
0.2788150518819301 14.72352486298946 1116427.1059600145 4.247731410812794 0.17945755128971116
0.2919689845028449 14.49844006223407 905878.5090139216 4.494430620186589 0.18226736221325332
0.30550458167053157 14.301235884979635 738664.4123960673 4.751655789335986 0.1850918094847243
0.31942173023711157 14.128132526495945 605114.9953380917 5.020090021944375 0.18793752986077217
0.33371950943893836 13.975943912818073 497681.7637652469 5.299956214757726 0.1908011237041948
0.3484003092128037 13.842032437201949 411008.9867142159 5.591984354139198 0.19368891537860172
0.3634621405245745 13.72401018767126 340666.34934959013 5.896339994982475 0.19659593602300338
0.37891616430962927 13.620004444533787 283305.59662190476 6.213887936872007 0.19952988149008016
0.39474920186427376 13.528446292679183 233303.3100144648 6.544886474896305 0.2024869457698503
0.41097318934684296 13.447875770012335 197865.62542186846 6.890036269661663 0.20547081068181328
0.4275812924749015 13.377058470597795 166084.10854766905 7.250043200531633 0.20848456408744695
0.4445762222634568 13.314936583504194 139802.51815239454 7.625167584996001 0.21152377417048054
0.4619572830159969 13.260575927053258 117982.21974796147 8.016355744600995 0.2145945614063736
0.4797222945472847 13.213152242038605 99810.73261657263 8.424313915765293 0.21769859311056272
0.49787964216187597 13.171983164273874 83766.67889337547 8.849484886185289 0.22083336503170095
0.5164172041789566 13.136403529388158 71939.82618277095 9.292738117903731 0.2240022307967948
0.5353357093653338 13.105846725862447 61276.37534970243 9.754960223529812 0.22720813610418583
0.5546424929052867 13.07982362899591 52302.23148617205 10.236960772159739 0.23045243185954553
0.5743246821224658 13.057840099165103 44731.633877618275 10.739213381862944 0.23373184597702007
0.5943804008659365 13.039530323555931 37995.37402591037 11.262957871939221 0.23705250538026212
0.6148180821373942 13.024503413878676 32901.836744701155 11.809134141820598 0.24041605505135522
0.635621615634351 13.012436752153683 28292.975329506786 12.378721176936535 0.24382412790507904
0.6567920813511849 13.003014392020937 24371.269992875383 12.972411465832018 0.24727471399209874
0.6783241380845433 12.995972456613519 21028.734958788267 13.591524837263151 0.25077252110469156
0.700212002248752 12.991066819506154 18173.327840341553 14.23726226467981 0.25432022410397315
0.7224447270299821 12.987995423212627 15730.336246141838 14.910813410038271 0.25791980756110405
0.7450334763871012 12.986650480764721 13634.500936165967 15.613211477751241 0.2615712037277124
0.7679535002545586 12.986746095375642 11836.772732014106 16.345715587074285 0.26527623744683704
0.7911973851674202 12.98814763719607 10289.302196370192 17.109945108554584 0.2690396336461334
0.814770862544754 12.990661935650591 8956.641220441637 17.90735505326716 0.27286382483582455
0.8386537357215775 12.994126273925794 7807.768605282388 18.739312426306707 0.27674990755424556
0.8628351298326897 12.998401651741052 6814.75777368687 19.607158267013567 0.28069833254845744
0.8873149489676961 13.00334920086745 5955.538242006743 20.51297995377363 0.2847154747586657
0.9120700448188418 13.008843020622987 5211.328249759798 21.458571560765602 0.2888043474262691
0.9370907509539206 13.014748677830598 4565.527164772921 22.44541922936901 0.2929648887617124
0.9623687036144277 13.02093793581754 4004.5786980149765 23.475544242251434 0.2972008657472898
0.9878930805021231 13.027343069912785 3516.721492030433 24.55137079887077 0.3015183942807606
1.0136352978029683 13.03378866471673 3091.949766085187 25.674843304456992 0.3059191219704955
1.0395989537116879 13.040241349167443 2721.5486587293854 26.847918650909417 0.31040427703000584
1.0657496808758764 13.046567604988784 2398.404203450865 28.073695558211174 0.314982609723421
1.0920819038831469 13.05269998749464 2115.8762443645924 29.35423049358505 0.3196545762510734
1.1185791648391468 13.058534954264259 1868.6714135565535 30.692275984811097 0.32442484032421604
1.1452094886746806 13.063992906143376 1652.1778461067456 32.091235363103024 0.32930148356247696
1.171972334997104 13.069006993298395 1462.103905922326 33.553044364671734 0.3342821693613334
1.1988275492959366 13.073459812095404 1295.5374289737442 35.082247678844205 0.3393804807293038
1.2257735332171409 13.077333702664705 1149.1037849946033 36.68087132034448 0.34459319652886655
1.252769652026027 13.080489737282052 1020.2393559060521 38.35396542209905 0.34993474083357623
1.279810956072306 13.082938270943671 906.7385106954381 40.10376489795712 0.3554016671811372
1.3068542015001035 13.084517572460188 806.752799655304 41.93575056588552 0.3610085917033764
1.3338930817784935 13.085235317450714 718.6325933694603 43.85339213711783 0.36675736641916806
1.360898807493672 13.085031887067734 640.6414990275243 45.86139528429014 0.37265584205015756
1.3878298363496435 13.08377528291838 571.8325272965208 47.96508411029495 0.37871392680531824
1.414686414343967 13.081486152540828 510.8338109492357 50.16920338172254 0.38493721313115775
1.441409811265868 13.078033647360213 456.8913157939832 52.47899461980764 0.39133278666934873
1.4680041187897301 13.073436222706627 409.04319864427146 54.90086227386798 0.3979122798532651
1.4944125453614867 13.067572710483576 366.5458994268289 57.44099528442698 0.40468475215092004
1.5206245721868228 13.060429565952724 328.8487576353602 60.10602061808025 0.4116599729899964
1.5466078367526066 13.05194311211237 295.3058856876436 62.90304269843907 0.4188484802119462
1.5723243112864949 13.042063826741275 265.4767270455024 65.83968661221114 0.42626164329815647
1.5977478242137289 13.03073740800485 238.93583512419073 68.92414547364511 0.43391173192675014
1.622834731781972 13.017919283137779 215.24784646868304 72.1652323782026 0.4418119904869855
1.6475867651324219 13.003580252513885 194.10556215520123 75.57243743034046 0.449976719254005
1.6719357267750419 12.98764701399265 175.24260618567217 79.15570246715097 0.45842016064630464
1.695872167729438 12.970101903974028 158.3696580508567 82.92520691848047 0.4671555381791774
1.7193533243349786 12.95089075944017 143.28405935898388 86.8936917364667 0.4762044215474203
1.7423388977732779 12.929950699249021 129.7810897024634 91.07274661001703 0.48558120407032357
1.764820145610636 12.90730644436205 117.68441946638156 95.47643237971423 0.495307696321992
1.786746091024114 12.882872286295147 106.82389227995267 100.11844438649972 0.505401532099525
1.8080845021912844 12.856620327540053 97.08916071983488 105.01529168468083 0.5158883528911496
1.8287952510716237 12.828488772634634 88.33643035493436 110.18351297739295 0.5267906926448434
1.8488752381019207 12.798525409630495 80.46865271323685 115.64072572878156 0.538131881105828
1.8682616521091346 12.766621177975068 73.38328464769594 121.40715923190493 0.5499413325699358
1.8869314284008813 12.732773440244355 67.01133693710699 127.50422162388142 0.562248798257652
1.9048551514342371 12.696961516865722 61.25853928905615 133.95436057637693 0.5750836077093092
1.9219986364608932 12.659147723367855 56.07766281688053 140.78322610119977 0.5884819486028393
1.9383134846872865 12.619275397752931 51.394928615738245 148.0185119018309 0.6024821537824278
1.953810897817241 12.577422826586124 47.164824330448766 155.68874148719075 0.6171200812900847
1.9684289801816934 12.533498318000204 43.34103408857828 163.82752747608953 0.6324432229999225
1.9821445040205614 12.487502636264413 39.88203129563428 172.46861561814177 0.6484930593082189
1.9949354638807029 12.439430808671553 36.746667342636805 181.65133559875974 0.6653229054982506
2.006772344451424 12.389274785808007 33.90519010175186 191.41766098407373 0.6829870948722602
2.017620750550824 12.337006160238515 31.328798625387808 201.81361788223637 0.7015448503469857
2.027460540297592 12.282623482357895 28.99297534120089 212.8891692338758 0.7210589093404945
2.036271326195376 12.22616411525051 26.87198093679284 224.69974575395048 0.7415994383022834
2.044017461257259 12.167574245114126 24.943143755807775 237.30654621086885 0.7632437070942565
2.0506783110860227 12.106874333173767 23.18868097264179 250.77640140612013 0.7860742203083336
2.056254202089978 12.044132932188141 21.595218350517012 265.18239595453565 0.8101791148119755
2.060701935110772 11.979289006886615 20.14286056507593 280.60627986948174 0.8356581438907743
2.0640104647469744 11.912396144821573 18.82255733285281 297.1377338465133 0.8626181492614279
2.0661730802723164 11.84350306076124 17.619709565654677 314.8771443204274 0.8911796832663482
2.0671680043964624 11.772617976401573 16.524562272688986 333.9339071985319 0.9214686151060177
