M[M_sun], R[km], Lambda[1], P_c[MeV/fm^3], rho_c[fm^-3]
0.24162668629717493 15.618656898711224 2160425.4255784233 3.5677272577965504 0.1711233750220791
0.2536444498185666 15.277258511640918 1723126.712224584 3.7848291236537555 0.17388829168605013
0.2660402070255426 14.981260792902852 1382988.885760893 4.011421494345207 0.1766669029295026
0.2788169419712872 14.723472185573565 1116395.9773969718 4.247760166304554 0.17945788481008196
0.291971201618822 14.498392048287041 905823.1568230642 4.494470430830037 0.1822678055140077
0.30550760784695985 14.301190855418643 738609.7351830064 4.751708006955067 0.1850923735346692
0.3194243968589113 14.12809155254151 605074.0680048919 5.020155031248647 0.18793820435739528
0.3337225302475256 13.975959137212177 497655.2458228424 5.300035727341971 0.19080192426398293
0.34840503269569256 13.841993629507293 410985.7441289174 5.592078568589447 0.19368982692932538
0.363469093440385 13.723933450629785 340644.3623888601 5.896451028047369 0.19659697886904595
0.3789228257549984 13.619963257975852 283286.82821346226 6.214017132294697 0.19953105959677367
0.3947552309525293 13.528429271757112 236396.48617223263 6.545033698601388 0.20248823672285438
0.410981014116406 13.447835837361918 197851.12796664488 6.890204363907589 0.2054722422429496
0.4275911827912409 13.377006056592052 166060.4949210683 7.250233742793346 0.20848614039474628
0.4445857157600137 13.314900808374801 139793.96254997994 7.625380048692166 0.2115254655181157
0.46196804138304703 13.260566178003435 117973.43204910924 8.016593835751959 0.2145964032339147
0.47973361111588264 13.21312875144839 99802.8055605956 8.424579491086378 0.21770058986570978
0.497890688884124 13.17196587754022 84630.37975643884 8.849776966506765 0.22083547981802476
0.5164302726996404 13.136391365487025 71931.34475122966 9.293061430184904 0.2240045069354104
0.5353493854138024 13.105831695324934 60679.424159866605 9.755316960050203 0.22721057851123605
0.5546578961477961 13.079805471729824 52301.35189493366 10.2373532584172 0.23045504566491085
0.5743412072177149 13.057824069116343 44725.225974038316 10.739639912529558 0.23373458443602238
0.5943996046898654 13.03950302623488 38321.9213069878 11.263424861687803 0.23705542314066205
0.6148375866855932 13.024483842088623 32897.591712921596 11.809644349579697 0.24041915796579338
0.6356418292500009 13.012439580416972 28287.86172365013 12.379277533764927 0.2438274221351433
0.6568133726298568 13.00300758158589 24368.128703529568 12.973011416839398 0.24727814306603546
0.6783458770344512 12.99597736168594 21025.390758603753 13.592176902265125 0.2507761516279239
0.7002350567288567 12.99105398513216 18170.32021541945 14.237969940170643 0.254324063278049
0.7224705400491858 12.987996768816172 15727.812082390288 14.911580417178069 0.25792386301697773
0.7450594517001954 12.98664657971095 13632.45724615126 15.614034292826787 0.2615754094125838
0.7679803145903563 12.986757906060124 11834.667077659944 16.34660535323934 0.2652806727080088
0.7912254939384539 12.988150250445964 10287.349247870208 17.110906291659116 0.26904430755408687
0.8148009839944556 12.990676728708891 8954.988244317808 17.908392415253914 0.27286874704427677
0.8386854561103148 12.994139415051832 7806.588427870694 18.740421365954344 0.27675500255814567
0.8628672631674216 12.998402271400188 6813.316664613448 19.608353203932644 0.280703693476806
0.8873499437470114 13.003361366512472 5954.442520780017 20.514266639554084 0.28472111321525945
0.912105607430072 13.008851446473074 5179.592838164948 21.459956140868815 0.28881027579731466
0.9371269368331067 13.014747258364375 4564.466962740543 22.446895935966424 0.2929710221602088
0.9624116163190042 13.02095137348422 3981.485928049191 23.47713160789645 0.29720731251082655
0.9879331978628122 13.027338183512844 3515.984739158544 24.553076295647465 0.3015251694098171
1.0136765962119025 13.033795170276486 3091.607623248315 25.676660330390963 0.3059261342235141
1.0396417477712816 13.040258243778663 2720.99346450274 26.849869420663886 0.310411646686864
1.0657936118324285 13.04657920225757 2397.735687702868 28.07578920388019 0.31499035502913764
1.0921261506743083 13.05271170106588 2115.3457273505333 29.356459594635737 0.3196625996461809
1.11862522958226 13.058545507524485 1868.2986556625067 30.694667155859506 0.32443327533503336
1.1452574990669462 13.063998107408384 1651.7962980503664 32.09378079955063 0.32931022943139554
1.172021704930887 13.069012249927352 1461.8259230992387 33.555773925781395 0.33429136826370254
1.1988784173641882 13.073467130058821 1295.1716206023477 35.08517424837697 0.33939015810135387
1.225824759845855 13.07733458869235 1148.8423858150338 36.68398640525558 0.344603245310585
1.2528217537951332 13.08049462502203 1019.9872587571833 38.357281664873824 0.34994518336415725
1.2798655811631148 13.082940684867069 906.5348639423146 40.10731999326581 0.3554126654583417
1.3069094858010453 13.084522641640996 806.6114055693855 41.939536009672274 0.361020035673436
1.333948655800467 13.085233562267574 718.4568114522497 43.85745037287923 0.36676942959461595
1.3609562957234875 13.08502998940441 640.4897992789276 45.86571780826268 0.37266841136269924
1.387887510676193 13.083774795495442 571.6817122951348 47.96968938627053 0.37872703490736015
1.4147443425681676 13.081477979454528 510.71209988956065 50.174141910982485 0.3849510514343813
1.4414685563064797 13.078026594185605 456.7817359638165 52.484258562172876 0.39134723948285494
1.4680631224134868 13.073424855336622 408.92979540471794 54.90647493883033 0.39792738813792794
1.4944731675375236 13.067558061806235 366.4548364894498 57.44698186964381 0.4047005600342109
1.5206856622315281 13.060409631709236 328.7708528708922 60.112408378433585 0.4116765280260413
1.5466692990216593 13.051919778731394 295.22557346410514 62.909861131964526 0.41886583366735797
1.5723854323659672 13.042038752800819 265.40653849927656 65.84696766477532 0.42627985046640676
1.5978100959502726 13.030708829180679 238.87489782478744 68.93192376447846 0.4339308524741711
1.6228966370052924 13.017881390641248 215.18278680107701 72.1735454486545 0.44183208883386166
1.6476483922195029 13.003541144429441 194.05354014119087 75.58132601851567 0.4499978649946293
1.6719978767350105 12.987604687478463 175.19906680029212 79.16516439518068 0.45844223521614647
1.6959350676593634 12.970050686367323 158.33046491811746 82.93533450809049 0.4671788113506049
1.7194158524872978 12.95083642509261 143.2508245079345 86.90453712504238 0.47622898101651157
1.7423944328548346 12.92988660478901 129.76199179655762 91.08431431174829 0.4856069379487577
1.7648809347497783 12.90724355032044 117.65391846340181 95.48883383769284 0.4953349078899081
1.7868065740176546 12.882803095138183 106.80445425642125 100.1316903992531 0.5054301164203847
1.8081429305192334 12.856545118256692 97.06405270989747 105.02945094361853 0.5159184201071828
1.8288534466890018 12.828404627864222 88.31067868168907 110.19866040846128 0.526822361893873
1.8489332953790882 12.798434558125596 80.44878494558434 115.65700501695191 0.5381655084976374
1.8683085957868502 12.766492736252516 73.37077128381196 121.4245999976625 0.5499768355776906
1.8869862639631576 12.732670048144486 66.99554001730378 127.5228842475215 0.5622861952182299
1.9049093544025322 12.696853366906645 61.24446880879026 133.97435855742427 0.5751230899332147
1.9220494703605098 12.659029789096486 56.062259121497675 140.8047054783564 0.5885237985977347
1.93836258946848 12.619137711466655 51.381172769910734 148.04160131240755 0.6025265674124417
1.9538577650796807 12.577290415037423 47.154745468230026 155.7135061618656 0.6171670128275724
1.9684734771361703 12.533355340654863 43.33078218984214 163.85411749746382 0.6324928933808281
1.9821865112440826 12.487349922787928 39.87128962249166 172.49727583234147 0.6485459772600957
1.9949743920183904 12.439271093865745 36.7364497344291 181.6821699072284 0.6653790706186682
2.0068102159345034 12.389106776398815 33.89583157564544 191.45086963403298 0.6830467944605698
2.0176552091428093 12.336827567959494 31.32105830813365 201.84942177057778 0.7016083987170293
2.0274910617953465 12.28243813526286 28.984963385018382 212.92772200454135 0.7211263551062349
2.036299334517096 12.225971250261512 26.864381501804182 224.74140427364648 0.7416714460453265
2.044041889506163 12.167371190135666 24.937293868576102 237.3909826147458 0.763348763294567
2.046845189019064 12.115412080801924 23.65778012946778 252.65164414916003 1.7431596581937192
