M[M_sun], R[km], Lambda[1], P_c[MeV/fm^3], rho_c[fm^-3]
0.24162668629717493 15.618656898711224 2160425.4255784233 3.5677272577965504 0.1711233750220791
0.25364337545021143 15.277289182331293 1723231.601493403 3.7848084547904888 0.1738880340586405
0.2660379818152802 14.98132532597207 1382978.7502133627 4.011378044234717 0.17666637786055983
0.27881244067319527 14.72357077635849 1116461.5010562225 4.2476924649261205 0.17945709957611594
0.2919664279370685 14.498491189223595 905989.4225646438 4.494376701611048 0.18226676181740084
0.30550099039813405 14.30128965386826 738667.5301019679 4.751585067313345 0.18509104555190478
0.319417585818043 14.128174689477337 605136.9756659436 5.0200019755436935 0.1879366163453823
0.33371437315773356 13.976006694222884 497717.0047982973 5.299848525993937 0.19080003945703142
0.34839371616560855 13.842083779621502 411033.3630433547 5.591856754166559 0.1936876808137649
0.36345429365148185 13.724072113850724 340694.2402205247 5.896189617136042 0.19659452364244634
0.37890800902467936 13.620055249414152 283332.96139282687 6.2137129614129405 0.19952828592457764
0.39473832620735655 13.528519552183138 236433.71775266444 6.54468708352024 0.20248519737684675
0.4109631998199755 13.447920879933283 195400.06860495827 6.889808613197701 0.20546887186383386
0.427569614427694 13.377099002704924 166102.65860140746 7.2497851427410005 0.20848242924147958
0.44456290463362363 13.314979639555919 139824.57169084734 7.6248798391476615 0.21152148352850778
0.46194371828299574 13.260606981590803 117994.83524726877 8.016033291815669 0.2145920669733872
0.47970688521453675 13.213204272118775 99827.15632779329 8.423954241682654 0.21769588886427643
0.497877443627774 13.171944433920364 84519.45832814234 8.849089316998809 0.22083050094177714
0.5163986636471241 13.13644962116299 71948.31128732415 9.292300252201667 0.2239991481949545
0.5353151485862337 13.105888167142432 61287.52157917713 9.754477092564843 0.22720482833386352
0.5546221986798787 13.079831596889935 52309.49919511139 10.236429226795378 0.23044889197477542
0.5743018730467014 13.0578782990842 44739.39521907938 10.738635731671945 0.23372813728386022
0.5943570848893035 13.039548468834736 38336.512997127174 11.262325430092337 0.23704855387215795
0.6147920018461606 13.024521916825284 32908.10663129712 11.80844317227962 0.24041185280368885
0.6355924801813436 13.0124681973508 28300.607359217793 12.377967710586807 0.24381966657491286
0.6567634442990185 13.003049568150121 24376.86605759139 12.971598962701893 0.24727007005738955
0.6782936995405523 12.995983936123293 21032.624420719803 13.59064175990957 0.2507676043665774
0.7001797788510999 12.991055285543212 18040.40306380882 14.236303878349936 0.2543150248113595
0.7224112366070622 12.988003673310402 15733.608856409306 14.909774675769308 0.2579143153814702
0.7449980065023166 12.986643000697427 13637.533225893867 15.612097167482547 0.2615655081127701
0.767915352304458 12.986764260279395 11838.60219717377 16.344510611131074 0.26527023094397856
0.7911590575779764 12.988128848999404 10291.79685256029 17.10864341962681 0.26903330397366654
0.8147317047156153 12.99065335576023 8958.808550050337 17.905950203124476 0.27285715892234913
0.8386116371000083 12.994122186756739 7809.6692693576 18.73781064592358 0.27674300765042714
0.8627895587465662 12.998392290559 6816.452232142047 19.605540030202594 0.2806910725404551
0.8872631992165844 13.003332608297738 5956.766790413763 20.511237472292702 0.2847078389346403
0.912022074830968 13.008840011266708 5212.686074779249 21.456696513064475 0.2887963190150023
0.937039947376538 13.014724373264253 4566.620090480237 22.443419426048575 0.2929565827172346
0.9623169212143735 13.020925604699586 4005.4741376843103 23.473394588086414 0.2971921353630012
0.9878406320598511 13.027312503838703 3517.687935911239 24.549061176053034 0.3015092192457352
1.0135793179700079 13.033777101014113 3093.131907345854 25.672382653001367 0.3059096258426335
1.0395413045066808 13.040233543959781 2722.3138755257373 26.84527689001595 0.310394296933051
1.0656909025479584 13.04655518393606 2399.0975544521375 28.070860322434815 0.3149721209534293
1.092019812481624 13.052685098156932 2116.369152923145 29.351211831209405 0.3196437109199892
1.1185160976018709 13.058519758848535 1869.197196046851 30.689037857603928 0.32441341762066733
1.1451452364837362 13.06398207835973 1652.5144503592803 32.08778833929666 0.3292896399281965
1.1719061995985354 13.068993442442723 1455.8508408297066 33.549348012933265 0.33426971227486496
1.1987597575739724 13.073449042735735 1295.8728205185464 35.078284554102275 0.33936737575018777
1.225703318763828 13.077319286348851 1149.43576086303 36.67665292285926 0.3445795886315732
1.2526979072048703 13.080483323035349 1020.5363429177313 38.34944873048854 0.3499204478157309
1.2797371814221432 13.082927416280986 907.0085626425362 40.09895067806996 0.3553867735931333
1.3067799520709678 13.084517573443655 807.0405018750812 41.93062442980254 0.3609930946173914
1.3338143312780002 13.085239588464027 718.7984682309093 43.84789661544376 0.3667410308866782
1.3608224824064539 13.085034481872734 640.8595964273898 45.85554189146156 0.3726388211789354
1.3877525351650488 13.083778168534344 572.0216511938859 47.95884784610876 0.37869617638433445
1.4146074551465488 13.08149702356805 511.0115117486164 50.16251586748352 0.3849184739792807
1.441329147636844 13.078044789659696 457.0466663025745 52.47186647124128 0.391313215444072
1.467922465936803 13.073452193565561 409.169378655667 54.893261930128425 0.39789182109481025
1.494330885079298 13.067591255115575 366.6691280408572 57.43288862828682 0.4046633461123352
1.5205413253778082 13.060453968863929 328.96120339354235 60.097370747059934 0.4116375552851039
1.5465240096413946 13.05197246306728 295.40240763256577 62.89380967309936 0.4188249814283986
1.5722403027901617 13.042097764045232 265.5702404767372 65.82982717906674 0.42623698857186104
1.5976634162036054 13.03077861192985 239.01836587276745 68.91361275984697 0.433885840473478
1.6227523860183835 13.017962981292184 215.32433395597042 72.15397555478447 0.4417847750864796
1.647501803422799 13.003633443035454 194.17495666704778 75.56040134043278 0.4499480856813497
1.6718516200795261 12.987704566183918 175.29822292260556 79.14289005851684 0.45839026944354466
1.6957888836704806 12.970165380042909 158.4263580582638 82.91149319482885 0.4671240240821668
1.7192533189205346 12.950928383437947 143.34000098786188 86.87900610828792 0.4761711658250619
1.7422569752008292 12.93003466745529 129.83105883229976 91.05708296433747 0.4855463582242673
1.7647369754848707 12.907394940690343 117.72845286720818 95.45963983438722 0.4952708497279514
1.7866646476562047 12.882970396230357 106.86508911805255 100.10050832013047 0.5053628268464343
1.8080042970401153 12.856724825987309 97.1252865273855 104.99611909625416 0.5158476398594384
1.8287164373872986 12.828601886449515 88.36808944487682 110.1630024256851 0.5267478105371881
1.848797493079239 12.798646035891595 80.49656829361092 115.6186826848842 0.5380863477836056
1.868186442071815 12.766753161729067 73.41285455773341 121.3835435921532 0.5498932597815678
1.886859012303852 12.73291392065956 67.03557251553586 127.47890081115192 0.5621979795885421
1.9047839352938227 12.697110824048709 61.28190745381121 133.92728258747243 0.5750301473515708
1.9219293196402134 12.65930941469065 56.09724560991084 140.75414239532086 0.5884252824838129
1.938245824864979 12.61943298052261 51.413535826432174 147.9872483265214 0.6024220167398601
1.9537569848484522 12.577641624998673 47.18154028275678 155.6552097282677 0.6170565352503491
1.9683671922602075 12.53369200661204 43.35730050349171 163.7915243491054 0.6323759688595094
1.982086649500352 12.487708076408246 39.895867855592286 172.42980965448407 0.6484214083392813
1.9948817672206227 12.439647887625572 36.762191414219025 181.60958613385844 0.6652468582690438
2.0067151401479184 12.389490316452344 33.91617163350281 191.37269692687804 0.6829062624473767
2.0175748610761106 12.337246824843929 31.340842481906677 201.76514018925204 0.7014588072238686
2.027416323597219 12.282878001243285 29.00327149112438 212.83696990176162 0.7209675897319476
2.0362318926491567 12.226429298451851 26.880457769739593 224.64334168052736 0.7415019425185809
2.043983157590528 12.167853204615895 24.951980337090724 237.24566263188728 0.7631398949992321
2.0506496285549702 12.107166760169413 23.19698459574481 250.71053068918454 0.7859632782620629
2.0562231565666953 12.044416482915906 21.6020858597938 265.11105032308416 0.8100603915361464
2.060683233795637 11.979607498071651 20.14972203747787 280.529120348994 0.8355315843184533
2.063996287340036 11.91272908198403 18.82840638703753 297.0540218064686 0.8624825207569388
2.0661651407203148 11.843847594772672 17.62489391890283 314.7862076218861 0.8910341114978556
2.067164986449364 11.772975002270343 16.528971462902213 333.83514612515347 0.9213126298795953
