M[M_sun], R[km], Lambda[1], P_c[MeV/fm^3], rho_c[fm^-3]
0.24162668629717493 15.618656898711224 2160425.4255784233 3.5677272577965504 0.1711233750220791
0.25364532980616133 15.277234809764684 1723078.0879073737 3.7848473801672133 0.17388851924468315
0.26604266155964723 14.981217287015655 1382899.4816676143 4.011459873490935 0.1766673667188289
0.278819568662726 14.723429877108053 1116381.5818953486 4.247819966828672 0.17945857840604426
0.2919762325986427 14.498289853136843 905747.953703737 4.494553222274567 0.18226872741595743
0.30551280019762855 14.301140285734464 738561.6159897522 4.751816600854886 0.18509354655604182
0.31943127960176726 14.128016327796459 594779.8719773365 5.02029022787938 0.18793960707462024
0.3337335645190001 13.97575674340782 497592.7554381063 5.3002010865056075 0.19080358915638027
0.34841485490897234 13.841910671337697 410933.82513270405 5.592274503501445 0.1936917226534988
0.363480481873426 13.723847993824474 340607.1093799574 5.896681941182111 0.19659914765407388
0.3789351158493579 13.619914758552927 283247.04174944526 6.2142858185327325 0.19953350969174527
0.39476970991677096 13.528353484070582 236354.08340628774 6.545339879330464 0.20249092151421846
0.4109973292433624 13.447760302118688 197819.89089484082 6.890553950609887 0.20547521947000474
0.4276083076932548 13.376950949103419 166041.19878375658 7.250630016547124 0.20848941866595502
0.44460591007049066 13.31482398782977 139765.82886769556 7.625821914563145 0.21152898305456752
0.46198741909394286 13.26048018371543 117944.47803997819 8.017089001829314 0.21460023374384762
0.47975662740178304 13.213084532278877 99780.51761421992 8.425131819315817 0.21770474260185446
0.4979175039196347 13.171903708068548 84615.82995567175 8.85038442063607 0.22083987804546612
0.5164592836265756 13.136323162225365 71915.28378425693 9.293733841886395 0.22400924075570888
0.535380280894553 13.105774996027431 61254.49964951927 9.756058889306592 0.22721565815165135
0.5546895415323011 13.079770912061107 52284.230068577446 10.2381649549388 0.23046042281274748
0.5743758920414798 13.057788594206444 44712.11461812869 10.740527004487022 0.233740279841176
0.594436002596121 13.039479011568547 38314.32064256148 11.264396103945597 0.23706149147986463
0.6148760166957904 13.024466941615128 32888.99158067479 11.81070548087282 0.24042561141451402
0.6356834063534139 13.012430190737449 28280.868861622148 12.38043465090018 0.24383427351156264
0.6568572120216473 13.002990775304028 24360.903806803744 12.974259206079342 0.2472852749176509
0.6783918171815059 12.995977577442256 21018.249061910283 13.593533084874872 0.2507837024893519
0.7002844350208388 12.9910504562467 18164.256201231405 14.239441789204312 0.2543320481308903
0.7225224097920141 12.987997383723581 15721.736522742221 14.913175673056719 0.2579322977361444
0.7451135065937932 12.986638700628381 13627.585422153998 15.615745626537493 0.2615841566153404
0.7680373075491636 12.986759009036946 11830.81540597388 16.348455943137726 0.26528989743450826
0.7912860293823988 12.988153595146503 10285.11232786784 17.112905427334038 0.2690540286739099
0.8148651957050831 12.990676655495205 8951.940455885642 17.910550002260024 0.2728789846403459
0.8387522309327113 12.99413435561658 7803.986688422579 18.742727833824457 0.27676559958461033
0.8629354060278965 12.998428267126997 6810.481763524814 19.610838546935955 0.2807148436434381
0.8874207376370458 13.003370694575208 5952.217555958148 20.516942822033695 0.28473284066183374
0.9121795236528694 13.008866050493506 5208.390108165445 21.462835946560805 0.2888226062913335
0.9372042901084485 13.014767028640103 4563.212102314193 22.44996736749185 0.2929837791381575
0.9624912108564492 13.020978027024075 4002.2880170502144 23.480433215805007 0.2972207213215465
0.9880156239001041 13.027360579054582 3514.8788423584997 24.556623623541817 0.3015392612595457
1.013761620865069 13.03381514069002 3090.399734070756 25.680439645506777 0.30594071932840106
1.039728172564314 13.04028053209479 2719.805358151528 26.853926933765933 0.310426975240729
1.0658839959511566 13.046607018554994 2396.7524870859124 28.08014391206481 0.3150064649882848
1.0922218060839826 13.05273247511981 2114.5336495801 29.36109606210253 0.31967928808225576
1.1187219171633596 13.058568142428053 1867.1867980436905 30.69964074718205 0.3244508200007043
1.145356572003929 13.064021552333008 1650.8303400478012 32.09907527977053 0.3293284207439458
1.1721235365243405 13.069031403448573 1461.1570444090041 33.561451409894616 0.3343105019705372
1.1989821065716064 13.07348709791097 1294.5439066309698 35.09126153865918 0.339410287120049
1.225932388614576 13.077353863732666 1148.2940975879567 36.69046583425611 0.34462414694554666
1.2529312920251217 13.080509338785017 1015.0422505608902 38.36417953269928 0.3499669040886649
1.2799761253401585 13.082950781480264 906.0855100027429 40.1147147166885 0.35543554226219404
1.3070299115589825 13.084546535368714 806.2410877351687 41.94740989792971 0.36104383963052705
1.3340613082160073 13.085242111962538 718.0465095259138 43.865891723022294 0.366794521652786
1.3610736118498379 13.085028782231616 640.175023762021 45.87470892986607 0.3726945563229703
1.3880146018127353 13.083781428965208 571.3755474092804 47.97926869069 0.3787543007000047
1.4148600438718217 13.08145187438225 510.4696540327915 50.18441446046429 0.38497983625008764
1.4415925926427189 13.078008666691385 456.55070804521756 52.4952080463647 0.3913773026640285
1.4681878072644716 13.07340489351673 408.71006446745304 54.9181498508909 0.39795881490150786
1.4945993629786567 13.067525559323636 366.2630766897783 57.45943463123585 0.40473344218568225
1.5208124069493127 13.060373194926752 328.6054527270216 60.12569569150393 0.41171096450058825
1.5467976897217042 13.051876456922278 295.08111393546056 62.924044365629555 0.4189019311246525
1.5725149072903482 13.041983292686146 265.26670604782754 65.86211328122232 0.4263177239447911
1.597928592147625 13.030640809120055 238.7354893445161 68.94810378826907 0.4339706261106665
1.6230370238968528 13.017823614863188 215.06321566333196 72.19083798435429 0.4418738966572014
1.647779054806045 13.003460300554504 193.94043045536628 75.5998158221876 0.4500418517993876
1.672127663223403 12.987514657721347 175.1069970405192 79.18484693386517 0.4584881543537145
1.6960644003333023 12.969952059171476 158.2374162655271 82.95640186135152 0.46722722406704065
1.7195434992241918 12.950726634138686 143.1703931807187 86.92709776784115 0.4762800697724033
1.742525922556069 12.929774715073329 129.68093643538197 91.10837763381632 0.4856604699829686
1.7650058286283126 12.907108278022523 117.58320609771148 95.51463170741435 0.4953915141764615
1.7869173631305086 12.88262729374703 106.74032894049755 100.15924528135632 0.5054895786605288
1.8082677609398843 12.85638477483263 97.01126858147838 105.05890575714224 0.5159809674654402
1.8289711288405763 12.828226293049914 88.26306268564655 110.23017104540928 0.5268882422536572
1.849051528912892 12.7982479695705 80.40603384540879 115.6908704388423 0.5382354627732042
1.8684235562909972 12.766292966063586 73.32640868563143 121.4608818315166 0.5500506920956088
1.8870996750341142 12.732453841913467 66.95746288327938 127.56164826487728 0.5623637783298748
1.9050185014624903 12.69661931612762 61.20951125665123 134.01596062853514 0.5752052253389159
1.9221556765369598 12.65878213821373 56.029045156152655 140.8493896131153 0.5886108602847627
1.938464464237346 12.618874683324924 51.35240401867316 148.08963517125335 0.6026189629297651
1.9539553604261761 12.577010150716918 47.127333876927636 155.76502546619864 0.6172646470664385
1.9685654892371354 12.533054989570411 43.306727407685415 163.90943453212523 0.6325962260612923
1.9822752877740029 12.487038459877756 39.84884816075456 172.55690007845317 0.6486560669113607
1.9950577373207317 12.438935070000015 36.71757866176597 181.74631755607786 0.665495916450505
2.006888739147626 12.388753044387922 33.87638947695866 191.5199573650011 0.6831709943031139
2.0177268016295473 12.336458353682152 31.3028452005702 201.9239092368275 0.70174060662204
2.0275567441789373 12.282053722964491 28.969563816996434 213.00792890623975 0.7212666722821298
2.0363578253476096 12.225560651820235 26.850036092528175 224.82807322303395 0.7418212553876379
2.044093814969336 12.166942606760614 24.92389391657594 237.44506677368065 0.7634798973785663
2.0507439631550275 12.106210378108491 23.1701303392069 250.92611605621468 0.7863261330395568
2.0563077499713467 12.04343795737728 21.578485965107905 265.3445840922173 0.8104487830377645
2.060744891470954 11.978563507055574 20.127746119232928 280.78183745825305 0.8359460991970301
2.064041556529209 11.911640598758169 18.807696835104963 297.32820262174056 0.8629267428057035
2.0661878875266777 11.842712227835772 17.60756032256708 315.08405411495903 0.8915109051513689
2.0671720774412146 11.771797274286657 16.511913855124956 334.1586229852091 0.9218235357409039
