M[M_sun], R[km], Lambda[1], P_c[MeV/fm^3], rho_c[fm^-3]
0.24162668629717493 15.618656898711224 2160425.4255784233 3.5677272577965504 0.1711233750220791
0.25364570458137947 15.277231539932375 1723085.419518715 3.784850443351387 0.17388855742579615
0.26604280486600657 14.98120493256542 1382995.0536552765 4.011466312993282 0.17666744453641445
0.2788198893019722 14.723429515536026 1116338.9989069947 4.247830000587747 0.179458694782529
0.29197745779949447 14.49827455524605 889329.4135045791 4.4945671136667595 0.18226888209983352
0.30551369650879345 14.301133832963947 738558.747493999 4.751834821653126 0.18509374337543774
0.3194325669946635 14.128015389726677 605046.428029154 5.020312912389464 0.18793984243516776
0.33373363591738314 13.975843267084816 497586.78126109805 5.300228832060688 0.19080386850808173
0.3484165053307639 13.841896714623923 410925.5665981688 5.59230737946443 0.19369204073748453
0.3634823834872464 13.723834187914061 340599.3635246783 5.896720686289759 0.19659951155632427
0.37893822568923735 13.619861964256785 283242.5515204553 6.214330901783532 0.19953392079670879
0.39477276919892695 13.528332562529199 236348.0976186982 6.545391254005131 0.20249137200071152
0.4110001600385612 13.447757688435525 197804.89373008287 6.890612608666707 0.20547571902663153
0.4276110046970707 13.376964742866262 166031.34875980002 7.250696508578779 0.20848996873749245
0.4446097008619754 13.314812607050381 139759.1293023412 7.625896056874274 0.21152957327503746
0.46199218298979405 13.260451767426424 117934.12875994924 8.01717208786672 0.21460087648151915
0.4797613113797719 13.213086444263135 99777.36718337644 8.425224497154524 0.2177054394096403
0.4979216753865503 13.171898791253053 84611.92084253751 8.850486348625738 0.22084061604766178
0.5164629364760105 13.136325032328092 71911.6245244005 9.293846669838977 0.22401003507152908
0.5353854202579708 13.105769749246285 61250.90038600882 9.756183382443966 0.22721651049756786
0.5546951676926252 13.079762794496654 52283.037027348844 10.238300592869154 0.23046131785171842
0.5743812370662695 13.057786997789533 44711.11670853194 10.74067585635247 0.23374123551626072
0.5944425708508565 13.039466002743008 38309.623231780286 11.264559076571334 0.23706250973577944
0.6148828858073588 13.024460510439498 32887.916808031776 11.810883537304745 0.24042669429470073
0.6356905098091713 13.012401092401523 28279.231855240632 12.38062881427819 0.24383542316733134
0.6568644398004031 13.003003415251154 24359.637942188117 12.974468584756016 0.247286471640307
0.6783994813970365 12.995960915404359 21017.52175839876 13.593760652684328 0.25078496952594587
0.7002922977890896 12.991052473289455 18163.194529468376 14.239688766692757 0.25433338799581884
0.7225304825515428 12.988005591548204 15720.427090753696 14.913443359207925 0.25793371309373087
0.7451226953432485 12.98665163172767 13626.852009411861 15.616032791501718 0.2615856244121535
0.7680471476898723 12.986751675950934 11829.541754553085 16.34876647658271 0.26529144536584703
0.7912967394492771 12.988151867940166 10284.418059653704 17.113240888239563 0.2690556599066969
0.8148738568720736 12.99068605678037 8951.149073519795 17.910912052984088 0.2728807025451437
0.8387606682182999 12.994154629765369 7803.103709124782 18.743114868344687 0.2767673778079737
0.8629466097240296 12.99841739669668 6809.968647795628 19.611255598824044 0.2807167146922391
0.8874319647236985 13.003374948562845 5951.721740675223 20.51739189917823 0.2847348085875116
0.9121919470731839 13.008868883379389 5208.042141408265 21.463319194372215 0.2888246754185197
0.9372164147293471 13.014771476557083 4562.788820025715 22.450482772635862 0.29298591983769856
0.9625046055477874 13.020974672183538 4001.9373531630413 23.48098724787352 0.2972229714103957
0.9880285992967651 13.027360157931525 3514.3252598974013 24.557218891146942 0.3015416259751541
1.013776311456237 13.033824492464456 3090.1244918659386 25.681073844049077 0.3059431668227155
1.0397440398882876 13.040282285419293 2719.6088214401257 26.854607818496344 0.31042954750063384
1.0658991378802671 13.046608047248645 2396.687808394793 28.08087467121971 0.3150091683841572
1.0922355708038423 13.052741070545869 2114.3343349624083 29.361874105236424 0.3196820885598169
1.1187382205364647 13.058572308036842 1867.1050284174512 30.700475365910343 0.3244537641723503
1.145373281363491 13.064025670597047 1650.9492142476229 32.099963749500134 0.32933147343842595
1.1721405159227518 13.069033444340969 1461.0973337039998 33.56240415524387 0.3343137128205963
1.1989997607323937 13.073486236785278 1294.4635271646412 35.092283057888054 0.33941366500720443
1.225949578671448 13.07735244869041 1148.1982196656584 36.691553162313674 0.3446276544975456
1.2529487676547346 13.080515573756701 1019.4547535897872 38.36533708353421 0.34997054910527364
1.279995490974076 13.082949872384608 906.0382738229761 40.11595565108709 0.3554393812986539
1.3070492968426 13.084546614130328 806.1760954928523 41.94873124687512 0.3610478342685725
1.3340828815648824 13.085237273631495 718.0136331448415 43.867308305682876 0.3667987324690558
1.3610933393118108 13.085027163159252 640.1331688152248 45.87621777724549 0.37269894384618824
1.388035741766739 13.083780284695873 571.3360004293369 47.98087624952904 0.3787588763313919
1.4148799888128096 13.08145076518095 510.4222161316557 50.18613836398168 0.3849846668177215
1.4416129814706662 13.078004710011811 456.5053531038344 52.49704555713228 0.39138234778014047
1.4682086141697748 13.073400281710938 408.6839542897583 54.920109107852404 0.39796408886888357
1.4946207558395341 13.067519961234469 366.2365541361258 57.46152443273076 0.4047389604130082
1.5208335540665656 13.060367635329017 328.5821320072951 60.127925554318104 0.41171674359329397
1.5468186917500986 13.051868754846486 295.0451194256613 62.926424589938875 0.418907988984756
1.5725371024565267 13.041975185674726 265.244801108558 65.8646550220867 0.42632407988071636
1.5979504968208345 13.030628825702523 238.71194637635492 68.9508191344127 0.43397730095811254
1.6230583857790932 13.017812387318243 215.0490599322768 72.19374004505902 0.44188091291227066
1.6478015801309909 13.003446282304004 193.92469117480408 75.6029188232284 0.4500492337653278
1.672149678378167 12.987500198422438 175.0939223985325 79.18815011416463 0.4584958606355623
1.6960857431511873 12.969935511996868 158.21580798394743 82.95993746068979 0.4672353488640227
1.7195662725668834 12.950707123425795 143.15461687383328 86.9308839934027 0.47628864371044183
1.7425477015573074 12.929754406783006 129.6745925427812 91.11241606133265 0.48566945399770073
1.765026371261625 12.907088201155455 117.5713492947991 95.5189612558455 0.4954010141724606
1.7869384566995672 12.882602788347317 106.7310526078748 100.16386972103857 0.5054995580007374
1.808287906868094 12.856358110308145 97.00156795369136 105.06384907691402 0.5159914646153372
1.8289915715581506 12.828196859473953 88.26037791356434 110.23545941179665 0.5268992988210267
1.849072479729096 12.798216141279294 80.39616671076013 115.69655403376309 0.5382472031190528
1.8684427545080988 12.766257854226998 73.31976479730531 121.46697099885095 0.5500630874088706
1.8871191985833025 12.732416250278387 66.95007424840986 127.56815404382183 0.5623767991313454
1.9050375861638482 12.696579708971065 61.20357366079824 134.02294275429853 0.5752190102231037
1.9221739267878146 12.658740757732675 56.02636065145274 140.85688904441187 0.5886254720288181
1.938482206193967 12.618838412171732 51.34816091807031 148.0976968370708 0.6026344699450579
1.953971997841577 12.576961789265571 47.123734904943326 155.7736721476208 0.6172810333932786
1.9685809395893905 12.533007565749996 43.302966979932435 163.91871864902606 0.6326135688688195
1.982290700635516 12.486984914954695 39.84569482986867 172.56690715412947 0.6486745438824459
1.9950713236211153 12.43887903082935 36.713634961458254 181.75708387996002 0.6655155274587399
2.0069008404649558 12.388695311051231 33.874230253098965 191.5315528824423 0.6831918397038852
2.017739423931622 12.336394942674765 31.30144095064939 201.93641110763963 0.7017627962095235
2.0275677314794005 12.281987766166466 28.969114498082348 213.02139079569693 0.7212902230523358
2.0363680176779444 12.22549209234196 26.848113360504797 224.84261979344546 0.7418463994808989
2.044102701538274 12.166870735372804 24.922053562936068 237.46076892039994 0.7635066709811464
2.0507517187792232 12.106135442063875 23.169239440350182 250.94308727548076 0.7863546891374057
2.0563144904940938 12.043359123155998 21.57673219112833 265.36295029706514 0.8104792897435568
2.0607495057709992 11.978481280285003 20.125914619947142 280.80173854409435 0.8359787416097471
2.0640436852926602 11.91155599734798 18.806759088959822 297.3497942513198 0.8629617251144341
2.0661898291468295 11.842622764791596 17.60605438838006 315.1075097568649 0.8915484530206905
2.0671758889474954 11.771710778640205 16.511785096860983 334.1840974125937 0.921863770564075
