M[M_sun], R[km], Lambda[1], P_c[MeV/fm^3], rho_c[fm^-3]
0.24162668629717493 15.618656898711224 2160425.4255784233 3.5677272577965504 0.1711233750220791
0.2536422257447063 15.277363682929371 1723258.0796542175 3.7848067357382 0.173888012631483
0.2660376666349483 14.981330065209473 1383108.3908432645 4.011374430455996 0.1766663341901767
0.2788120077637325 14.723607090266873 1116489.3727307408 4.247686834173836 0.1794570342678748
0.29196607359198884 14.498474760037675 905988.319270683 4.494368906143057 0.18226667501305552
0.3055008228206565 14.30127782666186 738742.6914045474 4.751574842452678 0.18509093510389513
0.31941600213174437 14.128202716687623 605156.1210092467 5.019989245985459 0.18793648427130247
0.33371299973095114 13.976061265855073 497730.485062271 5.29983295662226 0.1907998826992929
0.34839280260453215 13.842093481505517 411053.39980598463 5.5918383061230275 0.19368750232386883
0.36345518964401147 13.724035220624529 340680.7595095511 5.89616787598231 0.19659431944492956
0.3789071174268969 13.620056640240412 283337.8249612548 6.213687664072366 0.19952805524329156
0.3947376183445997 13.528523325576883 236429.63020322248 6.544658256272294 0.20248494460082597
0.4109617657360764 13.447919201625215 197902.07281041887 6.889775699564988 0.205468591557526
0.42756781622982604 13.377108517322126 166105.1030898894 7.24974783389354 0.20848212059494597
0.44456183051761866 13.314976112794072 139827.50764941165 7.624838238216471 0.2115211523583462
0.4619419880293687 13.260611953969418 117997.31162581273 8.01598667322285 0.21459170634088223
0.47970384186601794 13.213210164365144 99831.09699323491 8.423902241937142 0.21769549789888448
0.4978599937168067 13.17202693184695 84659.75326995041 8.849032127842563 0.22083008686785086
0.5163962708819888 13.13644931176582 71950.39248290253 9.292236948191519 0.22399870253077653
0.5353134713079429 13.105894901031382 61289.180915022436 9.754407244524051 0.22720435011720352
0.55461818380027 13.079858155445159 52310.32396973705 10.236352379470375 0.23044838020156913
0.5742984164800738 13.057869016505444 44739.357490990296 10.738552218969533 0.23372760110644172
0.5943534017334732 13.039549670118696 38336.88209615167 11.262233996183385 0.2370479825914402
0.6147873835992042 13.024531432043112 32909.84964751164 11.808343277069243 0.24041124527413826
0.6355889534941603 13.012441242036557 28301.412164043206 12.377858780287232 0.24381902159052612
0.6567591355954268 13.003040926744983 24183.225798430685 12.971481497534791 0.24726939867466324
0.6782893955929837 12.995996727411262 21032.986924909314 13.590514091959777 0.25076689354563725
0.7001751192141654 12.99105613978734 18040.94570295857 14.236165323151448 0.25431427314264554
0.722407189634502 12.98800667059746 15734.429681425523 14.90962450488075 0.2579135213713751
0.7449918068515929 12.986643407544438 13541.247735886776 15.611936070776897 0.26156468469327043
0.7679100398979202 12.98676371320905 11838.906041201693 16.344336407188585 0.2652693625810171
0.7911527216383116 12.988131008499783 10291.897456106688 17.108455234243845 0.2690323888918741
0.814725607842352 12.990661954824049 8959.144428340978 17.905747104142474 0.2728561952322018
0.8386055531742331 12.994112231890938 7809.958513559492 18.737593534130653 0.2767420101340753
0.8627840870617266 12.998391812198665 6816.663726961504 19.605306082853616 0.2806900229662431
0.8872563784915981 13.003331158366485 5956.9511254347935 20.510985563524788 0.2847067350313602
0.9120148310648515 13.008828211189595 5212.899410845099 21.45642543992349 0.2887951583583118
0.9370328123862728 13.01471653600263 4566.66064343893 22.443130317664693 0.29295538192560133
0.962308187970912 13.02092047514592 4005.901154514811 23.473083816687605 0.29719087322801147
0.987832321598857 13.027314551973195 3517.749161237603 24.54872727903122 0.30150789283137586
1.013571361290913 13.033774641254425 3093.231816982375 25.67202692274407 0.3059082530110608
1.039532811159821 13.040231226688377 2722.448659837052 26.844894978076184 0.31039285413851325
1.0656815954949357 13.046556699675543 2399.200514766489 28.070450441305216 0.3149706046249009
1.0920104848038814 13.052681393167848 2116.4933026323406 29.350775433474514 0.3196421401560932
1.1185074347204753 13.058520772166604 1869.2717333750004 30.68856973366716 0.3244117662831467
1.1451353557970574 13.063977594714713 1652.7226985059353 32.087290016894926 0.32928792774150695
1.1718959698135212 13.06899240385398 1462.708395261911 33.548813647452455 0.33426791140809925
1.1987504772500845 13.073445801268784 1295.9733527918488 35.07771162377702 0.33936548122492394
1.2256935013355088 13.077318460023825 1149.5054288289502 36.676043090140666 0.34457762140562304
1.2526876611025286 13.080482744976921 1020.5864249194992 38.34879497976168 0.3499183768767446
1.2797272678204643 13.082931477041628 907.0815953576836 40.0982547133716 0.35538462051086334
1.3067686758739074 13.084520386162474 807.0802895745695 41.92988337464417 0.36099085429537825
1.333804390392314 13.08523348036452 718.808859199362 43.84710216241789 0.36673866936142446
1.3608110129663618 13.085035669437096 640.8876889812109 45.8546957050366 0.3726363605837573
1.3877409533872365 13.08378411304818 572.0454194766287 47.95794631243106 0.37869361032846627
1.4145954824366387 13.081494855721827 511.0303530994498 50.161549102272744 0.3849157649966204
1.441317985980845 13.0780477970665 457.0687135140348 52.47083600903464 0.3913103861809334
1.467910093419056 13.073456138692508 409.1920154084682 54.89216320875891 0.3978888635344842
1.4943193938716481 13.067594624473267 366.6936071865085 57.43171671607558 0.4046602516184306
1.5205297313377382 13.060455420465592 328.97835998602 60.09612030973623 0.4116343145506648
1.5465119543224841 13.051976741013737 295.4177793193193 62.89247493741901 0.41882158441997586
1.5722285550026296 13.042102706279481 265.57966070051043 65.82840189276348 0.42623342446800383
1.5976511730539609 13.030784688576318 239.0291273124761 68.91209014750305 0.43388209759703517
1.6227319887091385 13.017943427339256 215.34304806540663 72.15234826915875 0.4417808408300383
1.6474902389641983 13.003639893063882 194.18593507807532 75.55866140872385 0.44994394642504765
1.6718390545803232 12.987715522300357 175.3077902062775 79.14103790672792 0.4583859483946111
1.6957767872832847 12.970174832917746 158.43571909312607 82.90951075518075 0.46711946844162927
1.7192411208546199 12.950939993152076 143.34186047639267 86.87688317734799 0.47616635843098487
1.7422443004485169 12.930045531725593 129.8370694047216 91.05481865839018 0.4855413209769956
1.7647251002082696 12.907407479614315 117.73451546351319 95.45721234422452 0.4952655232725022
1.7866514998556777 12.882985573955084 106.86854423388256 100.09791553218062 0.5053572317225234
1.8079926034852982 12.856738883416236 97.1310606383219 104.99334756770577 0.5158417545127565
1.8287050006947998 12.828617736762594 88.37059692938786 110.16003575112772 0.5267416051674582
1.848786357179239 12.798664559474332 80.50019142156934 115.61549623206702 0.5380797656716457
1.8681748710618806 12.766771281123198 73.41488959206721 121.38012982156421 0.549886310595656
1.8868483219309495 12.732933589501569 67.03949681060955 127.47524055982892 0.5621906334933425
1.9047737566215999 12.697132391111344 61.28699664119089 133.92336833849168 0.5750224194087193
1.9219192043205662 12.659332824891422 56.10010627479217 140.74993822462162 0.5884170911605254
1.9382360632656908 12.619458471265611 51.415113664138104 147.98272906213802 0.6024133237099712
1.9537477153138898 12.57766758260038 47.18422043506826 155.6503626049754 0.6170473494665063
1.968357431780601 12.533721407248471 43.35849579049277 163.78631999877254 0.6323662470898365
1.982080016996723 12.48773794046427 39.89860269156026 172.4242001676744 0.6484110510352158
1.9948737214621726 12.439679928998551 36.76288943850862 181.60355117892414 0.6652358655149515
2.0067075262955867 12.38952139311092 33.9199228079761 191.36619732119593 0.6828945780282909
2.0165439525067406 12.338949913587564 31.494195758671374 202.04756136791775 0.985419344913242
2.02019817815868 12.289286018946012 29.869843776414967 214.76875929570554 1.4489886482313499
