M[M_sun], R[km], Lambda[1], P_c[MeV/fm^3], rho_c[fm^-3]
0.24162668629717493 15.618656898711224 2160425.4255784233 3.5677272577965504 0.1711233750220791
0.2536452937702536 15.277242217917014 1723053.1745864449 3.784843842861097 0.17388847515386888
0.26604225350712496 14.981223428826022 1382969.250087268 4.011452437286767 0.1766672768566901
0.2788192599205128 14.723434724338532 1116339.1818176867 4.247808380064985 0.17945844401704636
0.29197483648556677 14.498335070551686 905783.9213842169 4.494537180819937 0.18226854879063709
0.30551183333617554 14.301141058144044 738554.4758325731 4.751795559928319 0.1850933192738777
0.3194298342394293 14.128052731780793 605035.4672624036 5.020264032398164 0.1879393352863921
0.3337302696534949 13.975852710181407 497627.47715002054 5.300169046698385 0.19080326656868518
0.3484129628097224 13.841926510323653 410944.89149091445 5.59223653928042 0.19369135533921678
0.3634782395291032 13.723868357624243 340630.29543668655 5.896637199491166 0.1965987274306442
0.3789319323618452 13.619921098471215 283243.91605269664 6.214233757801878 0.19953303496056507
0.3947671295833769 13.52834695280368 236359.85883695804 6.545280553520182 0.20249040130700754
0.41099424914552846 13.44780300408193 197826.8276739327 6.89048621425994 0.20547464259882414
0.42760432545917076 13.376970268331144 166043.85589127627 7.250553233870255 0.208488783462547
0.44460147498177643 13.314848572776482 139771.59839769223 7.62573629769404 0.21152830148923799
0.4619822016153823 13.260497981397066 117942.18027900327 8.016993057170072 0.21459949153434046
0.47975331300326385 13.213074146901839 99788.4646954181 8.425024798515954 0.21770393795505183
0.49791262371297074 13.171913389049255 84620.12045297399 8.850266718228221 0.2208390258297429
0.5164537360069044 13.136335913570504 71920.7053762572 9.293603552769811 0.22400832351220556
0.535374265987403 13.105790049865366 61257.21269106921 9.75591512986121 0.22721467389839195
0.5546834352953055 13.079775317801518 52289.39414810653 10.23800832609636 0.23045938926027737
0.5743683451895883 13.05781509099157 44715.77111559262 10.740355116939606 0.23373917626987747
0.5944286897548966 13.039499644753038 38314.85370072186 11.264207910564018 0.23706031564421093
0.6148683171864745 13.024470861622255 32890.995886317265 11.81049986961008 0.24042436095498176
0.6356741762408553 13.012414009931321 28281.867168673652 12.38021044031909 0.24383294594407492
0.6568486797861797 13.002994847184272 24361.35536177449 12.974017425809553 0.24728389300077547
0.6783840094167489 12.99595937652285 21020.34563409961 13.59327030095329 0.25078223937888056
0.700274835595534 12.9910410625214 18165.527545304667 14.239156592250254 0.25433050092349546
0.7225131374084341 12.987987852180625 15724.092471971791 14.912866563118452 0.2579306633553809
0.745102747998628 12.98664006398401 13628.576496978467 15.615414023769851 0.26158246168195304
0.7680263591017429 12.986757981260537 11831.473426181932 16.348097356066155 0.26528810996789326
0.7912746799494649 12.98814608718136 10285.54250131805 17.11251805579258 0.2690521450172788
0.8148513256811766 12.990675405574958 8952.155311905755 17.91013192671351 0.2728770009017715
0.8387383210970603 12.994145791342529 7804.122006168066 18.742280908793038 0.27676354619533616
0.862920884278125 12.998428676047924 6811.022610614165 19.610356960090655 0.28071268306698416
0.8874080555547863 13.003379327651542 5952.684650007675 20.51642425486122 0.28473056822007886
0.9121661369714639 13.00886131972464 5208.713214081485 21.462277921754353 0.28882021699070903
0.9371882048951476 13.01476741754766 4562.957865096457 22.449372209888104 0.29298130719230286
0.9624752296042263 13.020972602533528 4002.5612488134766 23.479793454928668 0.2972181230625362
0.9879998503585535 13.027356967125662 3514.8166711944928 24.555936247238076 0.30153653063980385
1.0137440774994557 13.033815073698557 3090.625211562834 25.67970731492665 0.30593789312365344
1.0397118890182127 13.040274391244106 2720.0897003205796 26.85314069391689 0.31042400496815714
1.0658662848775362 13.046596265942718 2397.002428791874 28.07930008151638 0.3150033432921605
1.0922039848143366 13.052727837352677 2114.744160790929 29.360197632059407 0.31967605428573936
1.1187033286460473 13.05856300561764 1867.4210280107723 30.698676988661006 0.3244474202800713
1.1453380533002306 13.064010126345982 1651.2053528117026 32.09804933886576 0.32932489571204815
1.1721037397779916 13.0690258790309 1461.2819938881125 33.560351249387956 0.3343067943161984
1.198961856878521 13.073489260752586 1294.6829719554075 35.09008196448227 0.33940638658802924
1.2259113587999955 13.077345064751844 1148.4024358506495 36.68921027014111 0.3446200966900688
1.2529100803490498 13.080511609976291 1019.5888671450347 38.36284288191946 0.3499626951034993
1.2799547236631332 13.08294901178472 906.1713161295772 40.11328178269511 0.3554311092431308
1.3070070143669912 13.084547233234233 806.2890155233586 41.94588410901548 0.3610392269394833
1.3340409264425026 13.085238468461545 718.1203479188257 43.86425596778962 0.36678965934228414
1.3610508711824496 13.085032264501397 640.2376911571872 45.87296663657078 0.37268948997074025
1.3879903869547796 13.083782036072957 571.436992502709 47.97741241542525 0.37874901714138254
1.4148346990421334 13.081457295067604 510.5021162015722 50.182423842610156 0.3849742583194897
1.4415687300879765 13.078013252208178 456.5913514205938 52.493086246771114 0.39137147699731406
1.4681638640520382 13.073405372120995 408.7514840558974 54.915887471748434 0.39795272498373635
1.4945750009011167 13.06753285257825 366.2980818747558 57.457021513366804 0.40472707022499693
1.5207877929704876 13.060380735721388 328.64803682344876 60.12312084618093 0.41170429132332825
1.5467720477946503 13.051883373937045 295.104375442813 62.92129589959076 0.41889493606007105
1.5724903390080922 13.041994985521447 265.2991672554749 65.85917831412321 0.42631038469825894
1.5979024867487035 13.030653035287155 238.75768091052132 68.94496836172232 0.4339629186241175
1.62301189387235 13.017839792011673 215.0869349288951 72.18748696160246 0.44186579495542394
1.647754344687088 13.003476702120887 193.96088229964215 75.59623277733478 0.4500333278205949
1.6721020289318695 12.987531929043065 175.122752891849 79.18103274560617 0.4584792558961434
1.69603938514859 12.969969414307451 158.25323606023045 82.95231930393966 0.46721784236199854
1.7195188843521547 12.950747424812153 143.18532548688725 86.92272581833863 0.4762701694578202
1.7425005581617445 12.929800194881832 129.69271015911673 91.10371447269449 0.4856500961659204
1.7649814081524964 12.90713423850514 117.5927717936059 95.5096323970751 0.4953805445732854
1.7868936176634886 12.88265477647181 106.75468319006129 100.15390546827143 0.5054780555755528
1.8082436261352854 12.856415389417107 97.02244087201248 105.05319774269951 0.5159688464848066
1.8289477072164608 12.828260293965947 88.2708083079905 110.22406461660417 0.5268754753353831
1.84902834403202 12.79828360993533 80.41174026640955 115.68430765386148 0.5382219063240768
1.8684002276446998 12.766332077357086 73.33481965053294 121.45385074678319 0.5500363793836966
1.8870757561801401 12.732498421119692 66.96027305194013 127.55413613385019 0.5623487433943877
1.9049970780988155 12.696664081595548 61.215803230206916 134.00789847916553 0.5751893081527852
1.922135283656316 12.658830180551714 56.036284028200434 140.84073015325913 0.5885939883639368
1.9384447300328256 12.6189237536498 51.35824255196193 148.08032652470357 0.6026010572849926
1.9539369754814635 12.57706251801287 47.132660009941205 155.75504132900068 0.6172457261270221
1.9685470940081484 12.533116910241464 43.31100999545647 163.8987143790087 0.6325762007261799
1.9822588587010581 12.487099102974915 39.85254659631411 172.54534516291642 0.6486347320232104
1.9950408982801282 12.4389975636264 36.72094950596613 181.7338859773631 0.6654732721575024
2.006873302121427 12.388821796586923 33.881704652474326 191.50656836316807 0.6831469247339417
2.017712851831339 12.336529168987266 31.30702892795952 201.90947372227257 0.7017149850076511
2.0275444241102254 12.282129664666016 28.972998927295155 212.9923849159623 0.7212394790011067
2.0363464480117366 12.225642017372778 26.852573083621685 224.8112768217494 0.7417922224081519
2.044083779021012 12.167025495806188 24.926373459032774 237.42693610481533 0.7634489829226392
2.050735496120851 12.106297038319424 23.17309983426014 250.90652007697372 0.7862931604704163
2.056300683597284 12.0435284924616 21.579767278102686 265.3233774238431 0.8104135582540769
2.060739861905571 11.978657984367391 20.129773447249278 280.75885857852035 0.8359084084859811
2.064021148589416 11.911963766128098 18.81435097912358 297.29203792963716 1.0444335346628137
