M[M_sun], R[km], Lambda[1], P_c[MeV/fm^3], rho_c[fm^-3]
0.24162668629717493 15.618656898711224 2160425.4255784233 3.5677272577965504 0.1711233750220791
0.2536342232050038 15.277522060334903 1723593.5662310368 3.78464220605832 0.17388596184839505
0.26601871190058524 14.9817470388126 1383428.7467579485 4.011028568184114 0.17666215464873494
0.27878330099143517 14.724112899277507 1117015.4644675103 4.247147950552878 0.179450784029952
0.291927053596878 14.499076913657097 906529.5636285379 4.493622873181966 0.18225836776288856
0.3054499281101847 14.30196580396756 739251.8245763795 4.750596343638656 0.18508036544921064
0.3193537310293658 14.128903112164249 605631.4218225823 5.01877108685721 0.18792384540018064
0.3336371832997169 13.9767694671205 498213.4546113588 5.298343083843537 0.19078488215255715
0.34830358501811026 13.842859324732022 411514.6963639227 5.590073013635816 0.19367042263343984
0.3633530313935165 13.72477874873778 341103.89710476366 5.89408752486268 0.19657478034696477
0.3787904805439928 13.620786085686479 283723.0731743093 6.211267099298757 0.19950598260710597
0.3946059477061867 13.529228760289126 236795.34949819307 6.541900004724855 0.20246075846097025
0.41081485185698613 13.448603844879571 198210.20152760335 6.886626540968938 0.20544177200142894
0.4274088065112138 13.377709824050957 166390.89034285618 7.246178241344214 0.2084525902705936
0.44438203266108206 13.315597911394068 140071.25975696952 7.620858090319559 0.21148946782186007
0.4617446054145259 13.261200167368163 118216.53825379531 8.011526583311715 0.2145572039395918
0.47949102755729034 13.213745456010482 100034.29443537684 8.41892746032006 0.21765809449574117
0.4976276812430587 13.172541630037042 84836.41346035905 8.8435610076653 0.22079047362013768
0.5161441989322182 13.136879122611225 72116.05279231493 9.286180998041047 0.22395606826417272
0.5350425455024399 13.106280144800165 61430.937818640676 9.747725438885494 0.22715860293891615
0.5543280842639229 13.080215126638693 52438.512316512344 10.229001201519466 0.2303994242241199
0.5739861853453782 13.058173699439884 44848.557155321316 10.73056361471489 0.23367631179256704
0.5940264863763121 13.039820981207985 38432.908557026014 11.25348789833826 0.23699333681383183
0.6144362714149051 13.024751620523928 32993.61079438042 11.798788063491486 0.24035313363306365
0.6352127687698419 13.012655878019535 28376.470694564792 12.367439610201972 0.24375732891131796
0.6563577483679823 13.003185155058363 24448.001301553573 12.960246214397223 0.2472051824034936
0.6778685611518329 12.996109335852614 21094.317066829568 13.578303251611127 0.25069890685805585
0.699732155642534 12.991138995516632 18230.780857030542 14.222913512173184 0.2542423814213336
0.7219401750711774 12.988054888209467 15780.923662607283 14.895262109382672 0.2578375819724308
0.7445020742108001 12.986667387041676 13679.740240028392 15.596529057368326 0.26148593426060174
0.7673947632563213 12.986744745327547 11876.648633116298 16.327676272715607 0.2651863159891753
0.7906121693851124 12.988095764513115 10325.184028192076 17.090458442217045 0.26894487658647287
0.8141604981107556 12.990583192513574 8989.352243271605 17.88632458292008 0.2727640367577783
0.8380154873529014 12.994033181199704 7836.505209100423 18.716801406540085 0.27664635294746537
0.8621730456153097 12.998285789280393 6839.642709032246 19.582934572898083 0.28058965611004566
0.8866155751266542 13.003208818029362 5978.427413462543 20.486897106528186 0.2846011756778268
0.9113482286388046 13.008673053319328 5231.493684788316 21.430505102679106 0.2886841749804238
0.9363447442596977 13.01456709495012 4583.574875177354 22.415486024691656 0.29284056327086494
0.9615903633422808 13.020748795528892 4020.5149442523757 23.44336892259092 0.29707019221392955
0.9870887172846005 13.027132905477458 3530.9403016647734 24.51680205573272 0.30138106907482604
1.0128032891065308 13.033590078461849 3104.930908739484 25.638008716138184 0.3057769486649909
1.0387335357317256 13.040020254098826 2733.1662821268033 26.80838065844965 0.31025490961408114
1.0648654750442486 13.0463712857132 2396.3342220596573 28.031263093108777 0.3148256335839573
1.0911665381731144 13.052494232605575 2124.8598298244688 29.309053858275302 0.31949196810255376
1.1176374344840148 13.058336996833718 1876.7065501269494 30.64381625335097 0.3242538954813782
1.1442468189797275 13.063810270672988 1659.3804561083823 32.03936912668481 0.3291224221399924
1.1709791021319143 13.068833510619115 1468.7096088240137 33.49772999773047 0.33409575424159144
1.197808223603121 13.07329877484345 1301.3817287637605 35.02294289248939 0.33918437587839234
1.2247314375618554 13.07719096852207 1154.2926734846053 36.61774809573052 0.3443895707775271
1.2517075133587294 13.080399372574739 1024.9945985981385 38.28630364990915 0.34972041804323334
1.2787220100741161 13.082856654651595 911.0440302741151 40.031729824111494 0.35517881472802215
1.3057436829474371 13.08447591079542 810.7432131179432 41.85905020459038 0.36077671489112745
1.332766424698503 13.08524913458315 722.0755191657455 43.77116735780458 0.36651295185152466
1.3597476842380365 13.08506181928934 643.8347918266782 45.773818239524715 0.372401179900422
1.3866599369364017 13.08385359289936 574.6659111940128 47.87178108255776 0.3784483562695055
1.4134902272304621 13.08159251380941 513.3952939316613 50.06915228695466 0.3846568589377596
1.4402144719840246 13.078233412385098 459.18212133469495 52.37235415086831 0.3910399918963723
1.4667814923615612 13.073662287723966 411.1066433112738 54.78716070041781 0.3976062156663193
1.4931821155766472 13.067877120829516 368.4271665787365 57.31972268804947 0.40436452568115766
1.5193839414888133 13.060801984672423 330.5296540193473 59.97662547546378 0.4113246220795738
1.5453572775849969 13.052384920296628 296.83604827149105 62.76492812385047 0.4184969676390226
1.5710662306871264 13.042581422506432 266.86435437242966 65.6922062213446 0.4258928504256347
1.5964844794233515 13.031337782174168 240.16306126144423 68.76659882631765 0.4335244517123969
1.6215792649082281 13.018611584811072 216.3751824177434 71.99685995214354 0.44140491978514274
1.6463114479050873 13.004348943389413 195.1277366156501 75.39241507240622 0.4495484503307061
1.6706753387229711 12.98852309163786 176.16200725238096 78.96342318593078 0.4579703741847464
1.6946077891055258 12.971075745075611 159.2216022597338 82.72010506225887 0.4666842147109337
1.7180988217223916 12.951974428251319 144.05839959553612 86.67406178750375 0.4757070677730101
1.7411009940820892 12.931165159248422 130.48992512466046 90.83849710282664 0.48506008514096904
1.7635886856198897 12.908626226538535 118.32809088132628 95.22530942354999 0.4947566764831363
1.7855245921546734 12.884302430870854 107.41264860290045 99.85022940489849 0.504822735805407
1.8068718477616084 12.85814476947161 97.61717387375128 104.72834865441571 0.5152786199663498
1.8276211713583468 12.830193611408294 88.82024306897591 109.87569987626459 0.5261453077900965
1.8477041901845517 12.800310541405807 80.91182396787525 115.31113106437633 0.5374510522635416
1.8671256759773094 12.768575262485632 73.7870221898825 121.05406359659636 0.5492225592515624
1.8858151969719186 12.73484426471519 67.37648962404916 127.1256450128778 0.5614889980200835
1.9037686761909152 12.69917675862779 61.5962316723293 133.5489242835586 0.5742822136852725
1.9209415574318596 12.661491293917388 56.38244898674429 140.34842229561917 0.5876347854420377
1.937318765949378 12.621855083330885 51.67630324785734 147.55113843778167 0.6015831376710493
1.9528608428543663 12.58018257876275 47.421573845232764 155.18747926741673 0.6161701392065573
1.9675145071445477 12.536401877081989 43.57950256670242 163.28791467812067 0.6314330527982707
1.9812823680111085 12.490577118927966 40.09737362207552 171.88856001363658 0.6474220500564678
1.9941322167011633 12.442709341427845 36.94289571076707 181.0273087491477 0.66418623193906
2.00600658206071 12.392681545829122 34.086533337626484 190.74561600187494 0.681778951547794
2.016913338103835 12.34059184653639 31.4980263841653 201.08909092584162 0.700258886468076
2.02681484205963 12.286407387673478 29.145535528303288 212.10795734184364 0.7196905475784627
2.035687969600386 12.230124146659175 27.01144022334664 223.85683420093446 0.740142445616017
2.043509707907274 12.171752227618008 25.07174338101602 236.39580446592555 0.761689359607746
2.0502486960354864 12.111265417657199 23.308230099618697 249.79122192795057 0.784413531490165
2.0558805460803278 12.048667205144081 21.704399327441184 264.11636003300794 0.8084051691031717
2.060410680843137 11.984043605535055 20.24444400228156 279.4516568842867 0.8337614036977448
2.0638121709709685 11.917380817338257 18.91507719919861 295.88639520355036 0.8605896622751039
2.0660523940960074 11.848675551581726 17.70477783814089 313.51860784771185 0.8890049335770898
2.0671336185293594 11.77799609871449 16.602511354473894 332.45841197603573 0.9191379221035293
