M[M_sun], R[km], Lambda[1], P_c[MeV/fm^3], rho_c[fm^-3]
0.24162668629717493 15.618656898711224 2160425.4255784233 3.5677272577965504 0.1711233750220791
0.2536329301039309 15.27758119437997 1723542.7043381813 3.7846170768198557 0.17388564862456035
0.26601580257287494 14.981789436476655 1383466.2306046102 4.01097574521294 0.1766615163143023
0.2787786431134166 14.724204334243746 1117029.047660709 4.247065650577313 0.17944982947425883
0.29192037010864397 14.499181100343213 906528.0508808919 4.493508940530405 0.18225709909637103
0.30544235151305166 14.302068694686056 739375.7377687158 4.750446914340882 0.1850787513276046
0.3193430529495443 14.12903831143807 605708.0216486582 5.018585064329376 0.18792191534465627
0.3336256297602039 13.976889644570187 498319.1434953369 5.298115576019611 0.19078259152627397
0.3482909852720928 13.84295717782092 411585.1536182427 5.589803456750749 0.19366781459642426
0.36333684489639345 13.724901633776105 341165.9340161852 5.893769869377367 0.19657179685942364
0.378772306949102 13.620904866055428 283787.7374676594 6.21089750735745 0.19950261237361894
0.39458515053603216 13.52935271011845 236844.97724682643 6.541478864301617 0.20245706562839128
0.4107920950169302 13.448707740929338 198249.58000383698 6.886145730481755 0.2054376772175558
0.42737958229162054 13.377869157967355 166436.31708733182 7.2456332564467285 0.20844808175020435
0.44435514456010644 13.315698793160106 140112.5739726083 7.6202504411985 0.21148463054413935
0.4617145105379666 13.261306091586023 118256.98273527052 8.010845682387808 0.21455193662046063
0.47945793755477795 13.213806040725322 100060.30395008205 8.418168007082999 0.21765238446909463
0.4975928806521519 13.17258230030782 84864.19247058217 8.842725805540386 0.2207844263998989
0.5161049648690412 13.136947879666476 72139.16134769401 9.28525654573211 0.22394956006228492
0.5350010231964203 13.106346623706946 61451.104771561186 9.746705479253576 0.22715161975537995
0.5542835852118136 13.080255829398045 52453.577926389524 10.227879097699075 0.23039195145041022
0.5739380914590994 13.058238713245762 44865.30257296528 10.729344243839261 0.23366848305383167
0.5939748857492194 13.039896930241126 38449.06372040936 11.25215294427941 0.23698499599671444
0.6143816465274723 13.024793549786686 33008.64063794068 11.797329654004274 0.24034426407007892
0.6351562392889082 13.012685494845552 28390.88026963142 12.365849382508276 0.24374791305514396
0.6562972373522483 13.003193108805247 24457.123066143242 12.958531470142262 0.24719538162849622
0.677804489666631 12.996133142652072 21101.926179701844 13.576439671573233 0.2506885309436878
0.6996635257025355 12.991167514884738 18238.099740120382 14.220891122309515 0.25423140985762044
0.7218686646611563 12.988058253044493 15787.867990282415 14.893070295556349 0.25782599302652054
0.7444260874412806 12.986677594760048 13686.037126698053 15.594177884317784 0.26147391662356206
0.7673168561410009 12.986736470370136 11883.012159018805 16.325133943617185 0.26517364311625785
0.7905325640373202 12.988080435286946 10261.619148945658 17.087712221394884 0.2689315226445631
0.8140682789284454 12.990574544120395 8992.88959748812 17.88336089132568 0.272749974253077
0.8379251234120401 12.99400712067269 7840.472564464325 18.713605758940748 0.2766315525944606
0.8620785054512797 12.998269040498093 6843.486167721964 19.579521079288035 0.28057434191699515
0.8865167660715472 13.00318280693789 5981.288760096149 20.483221748183766 0.2845850696876882
0.9112464256990533 13.008648526386782 5234.352430889101 21.426550360386972 0.2886672419191708
0.9362379888415823 13.014542597657432 4586.037315041449 22.411268357101193 0.2928230454808699
0.9614815054309757 13.020712135075211 4023.187277529253 23.43883548390124 0.29705178057239484
0.9869750816284486 13.027096299556558 3532.949642231612 24.511931549538645 0.30136172086585483
1.0126859811067028 13.033554583145193 3106.660362594765 25.632778340992036 0.3057566181997536
1.038612159788485 13.03999311507462 2734.7414312074684 26.802810354098774 0.3102338660072857
1.0647389840420853 13.04633375421176 2409.8852126185016 28.02528520385242 0.3148035187722126
1.0910372205076295 13.05246425249591 2126.237208739613 29.30268954470581 0.31946906048141205
1.117504183765458 13.058312384758134 1877.8432901176413 30.636989665000332 0.3242298142486194
1.1441082805423541 13.063776343758324 1660.4350037226689 32.03204830141869 0.329097103878351
1.1708395097212556 13.068802079264737 1469.6550159310464 33.48993828005509 0.33406949534966573
1.1976650414054768 13.07327868997815 1302.2465226220406 35.0145893721973 0.3391567530514309
1.224583865617729 13.077173482657079 1155.1526095963209 36.60885697859921 0.34436088940997683
1.2515565467051128 13.08037828194572 1025.6229872290082 38.27677283486471 0.34969022651053494
1.2785678939368599 13.082845488171287 911.633384670664 40.021584117469516 0.35514742730113347
1.3055868526228445 13.084462650328858 811.213311737023 41.84822659113424 0.3607439389047529
1.3326073350659193 13.085252049994134 722.5670892513905 43.759587284802436 0.36647852988578955
1.35958480630911 13.085066787769419 644.2716182439652 45.76148477198224 0.3723653158521834
1.386495966630663 13.083861098100206 575.036192023332 47.858580093293554 0.37841063520383145
1.4133237002736818 13.081606488988813 513.7766949782697 50.0550631116296 0.3846173795158396
1.440043397365305 13.078260372812895 459.5063096253706 52.3573375612257 0.3909987619674436
1.4666102909669703 13.073697547244656 411.40556865427146 54.771150344572725 0.39756311866778404
1.4930091390238382 13.067920087462296 368.71164776375326 57.302646846400634 0.4043194360512432
1.5192093858117657 13.060855079759696 330.7817741606945 59.95840658079284 0.41127740451953837
1.5451811339036405 13.052445180588405 297.05589437001714 62.74548223360493 0.4184474763023309
1.570889172796533 13.042654975838765 267.05957686595195 65.67144243678719 0.42584092802628143
1.5963055991678028 13.031423230499158 240.33677989254807 68.74441865257657 0.43346992854363037
1.6214004268026019 13.018709359100523 216.5238668422336 71.97315659247141 0.4413476126388148
1.64613352655923 13.00446232454186 195.29166971060968 75.36707264911932 0.4494881613062793
1.6704897641340148 12.988633969965855 176.30849206587098 78.93631587956497 0.45790688937567087
1.6944286986909074 12.971211928223566 159.3447669037352 82.691234285618 0.4666178697502983
1.7179210791753365 12.95212958461644 144.16696163255008 86.64314731196832 0.4756370616961337
1.7409256307054428 12.93133639700767 130.5894598430132 90.80552604642652 0.48498673667668835
1.763405125956486 12.90878309368142 118.4164581783676 95.1899649857987 0.4946791228946805
1.7853531405492895 12.884498856355032 107.4896541954258 99.81248083547679 0.5047412760302703
1.8067009163588437 12.858362640823296 97.68871219331962 104.68783564425087 0.5151923169564939
1.8274533154517218 12.830430692368044 88.8860843305628 109.83236932442246 0.526054436757957
1.8475389271354363 12.800568363372456 80.96995835104602 115.26475009107814 0.537355245177551
1.866966456942315 12.768848955553494 73.84313075513104 121.00437777332566 0.5491214171232061
1.885658256658744 12.735140098886458 67.4323922115891 127.07237611205244 0.5613820877611669
1.9036174528630496 12.699497841944705 61.64562479538076 133.49176776406918 0.5741690646118026
1.9208008526288096 12.661859777044894 56.42768934436641 140.28724736727256 0.587515593417969
1.9371769194938842 12.622215552668393 51.71589754201575 147.4853844749024 0.6014566566519873
1.9527245179859496 12.58056664991466 47.45918945743307 155.11692773656574 0.6160363864970578
1.9673850014802368 12.536809248345106 43.610935090781936 163.21198483345233 0.6312908791732399
1.981169157726228 12.491042148812792 40.125978893352396 171.80696547010797 0.647271394653205
1.9940178308403285 12.443163104565766 36.97339804630042 180.93953356102824 0.6640263482168286
2.005898657528354 12.393159504308022 34.11246724194359 190.65109181341006 0.6816090242805436
2.01681388866421 12.341099289192782 31.521770461936498 200.98719087888222 0.7000780239363338
2.0267233788981573 12.286941370558441 29.167979843389592 211.9979891924333 0.7194977728043748
2.0356051262306805 12.230686159124431 27.030216294602546 223.73829784245916 0.7399375526984421
2.0434373811127275 12.172340760498686 25.090222289485293 236.26759732919342 0.7614703332860281
2.0501868185984438 12.111881161079449 23.32538455259434 249.65268709567303 0.7841799930772064
2.0558106140530508 12.049419692399463 21.722830591962147 263.978631799433 0.8342354958930477
2.0601750791476414 11.985001603016737 20.27697526733458 279.36590428914184 0.9010887936305569
2.0632114370734813 11.91862652939096 18.973855353959273 295.92673152215826 0.9766826555965953
2.064854430335831 11.850254793991946 17.80135140419659 313.7862583044096 1.0620638872200847
2.0650359883769265 11.779825936239686 16.747498459207705 333.08720899504 1.158395793276187
