M[M_sun], R[km], Lambda[1], P_c[MeV/fm^3], rho_c[fm^-3]
0.24162668629717493 15.618656898711224 2160425.4255784233 3.5677272577965504 0.1711233750220791
0.2536453448371382 15.277241162392336 1723266.529401854 3.7848473496572597 0.1738885188643913
0.2660426168934536 14.981217238144236 1382929.462427313 4.011459809352165 0.17666736594374974
0.27881961507291997 14.723435002173193 1116377.3176688123 4.247819866890429 0.17945857724691125
0.29197624843063674 14.498310192861963 905749.6564421961 4.4945530839135985 0.18226872587527593
0.30551273758744674 14.301148508398459 738589.9319496196 4.751816419372299 0.18509354459568353
0.31943117779764924 14.128030737511518 605010.0872276409 5.020290001937494 0.18793960473038596
0.3337330378275142 13.97577723015919 497588.09908421995 5.300200810154934 0.19080358637398753
0.34841484248034044 13.841910645973442 410936.39414387883 5.59227417605116 0.1936917194853272
0.36348046283152 13.723848132692265 340607.17743625 5.896681555274337 0.1965991440295464
0.3789350974971956 13.61989507544521 283241.49370826985 6.214285369496235 0.19953350559707309
0.3947694365155289 13.528348667605933 236355.78243712705 6.545339367630593 0.20249091702730188
0.4109974105972391 13.447768637809666 197822.6466566178 6.8905533663666665 0.2054752144943443
0.42760863503962177 13.376944038369142 166032.74434208163 7.250629354276678 0.20848941318716135
0.44460593126012893 13.314828033887466 139758.98653579302 7.625821176095119 0.2115289771758872
0.4619871417058 13.260496219608545 117952.5735761139 8.017088174280909 0.2146002273420917
0.47975662183522527 13.213102071633186 99779.94328612178 8.425130896232206 0.21770473566155615
0.49791749300407595 13.171903041935748 84615.16843821647 8.850383405420168 0.2208398706948692
0.5164592540794645 13.136328587908297 71917.07998536005 9.293732718106003 0.22400923284422486
0.5353800138052787 13.105782181104038 61253.14658452833 9.75605764934013 0.22721564966218458
0.5546901538080601 13.07976342396644 52285.669523107674 10.238163603969435 0.23046041389805652
0.5743758283779418 13.057788657229517 44712.281356643296 10.740525521906076 0.23374027032254707
0.5944357784979358 13.039478612517565 38314.384968054466 11.264394480721128 0.2370614813379288
0.6148762798276703 13.024463608410818 32889.6579399937 11.810703707412895 0.24042560062891874
0.6356831484136918 13.0124213120605 28280.642042042247 12.380432717014415 0.24383426206088152
0.6568571371161892 13.00299082901738 24360.42115687296 12.974257120648607 0.247285262998184
0.6783918157353189 12.995962995324483 21018.504069580064 13.593530818279797 0.25078368986955774
0.7002843645499517 12.991052759815432 18163.94905612303 14.239439329288356 0.2543320347857262
0.7225219445653086 12.988009812791153 15722.172571272315 14.913173006882104 0.25793228363907417
0.7451133989546606 12.986637975432322 13627.531445841954 15.615742766353554 0.26158414199597735
0.7680370913428304 12.986753839045782 11830.149461729825 16.348452850203483 0.2652898820170068
0.791286562694231 12.988139072391485 10216.371013183649 17.112902086122215 0.2690540124267282
0.8148651006304528 12.99067858174476 8952.010109211107 17.91054639621368 0.2728789675299138
0.8387529844351168 12.99414029474347 7803.817453834004 18.742723978939598 0.27676558187340894
0.8629352949921341 12.998428219627947 6810.4869649161365 19.610834393078488 0.28071482500769934
0.8874206217492402 13.003370824211018 5952.1255960967665 20.516938349205287 0.2847328210612062
0.9121793996426378 13.008866023938873 5208.394131670555 21.462831133393387 0.28882258568274444
0.9372041267220966 13.014767403826799 4563.090021691131 22.44996223403817 0.2929837578167135
0.9624911419660941 13.02097738645004 4002.2736895151916 23.48042769762861 0.29722069891059255
0.9880154752725925 13.027359566273098 3514.971367152417 24.5566176946612 0.3015392377069176
1.0137619711295727 13.033819254376589 3090.4049863872347 25.68043332887554 0.3059406949513046
1.0397296012464317 13.040274083024762 2719.812871674016 26.85392015214273 0.31042694962097767
1.0658835551796764 13.046604539273275 2396.7059792596633 28.080136633695243 0.3150064380624309
1.0922199210114631 13.05273672516254 2114.4860462245597 29.36108831278723 0.3196792601894788
1.1187212411340295 13.05856714044649 1867.2511118743332 30.699632434377826 0.3244507906767487
1.1453567820334418 13.064028495007696 1650.8805824475521 32.09906643061395 0.32932839033911543
1.1721232092837706 13.06902698052534 1461.1173622384172 33.561441920558046 0.3343104699904946
1.19898186735349 13.073485171343865 1294.567413924411 35.091251364340955 0.3394102534763369
1.2259319794900858 13.077347377642631 1148.3128461272725 36.69045500448749 0.3446241120103895
1.2529304840942064 13.080511415728068 1019.5031975291827 38.36416800351822 0.34996686778437897
1.279975938891118 13.082950767849164 906.0862487963041 40.11470235701592 0.3554355040254962
1.307029672718866 13.084545969384225 806.2114483134221 41.9473967373366 0.36104379984406026
1.3340615790030996 13.085245391426648 718.0287048752659 43.865877613912495 0.36679447971321494
1.361073043404156 13.08503216691862 640.1687616133768 45.87469390181038 0.3726945126234258
1.3880145423895607 13.083783035624576 571.3783014456849 47.97925267948029 0.37875425512693334
1.4148603716421002 13.081449457579922 510.4754824775054 50.1843972904774 0.3849797881378922
1.4415923124946048 13.078007725166177 456.5479990988115 52.49518974486506 0.3913772524149674
1.4681875694665776 13.07340262770436 408.7038737268979 54.918130336816276 0.3979587623731285
1.494599216380813 13.067525568287978 366.2582651047651 57.459413816956946 0.4047333872245183
1.520812160973754 13.060371532347018 328.61662267953835 60.12567348223603 0.41171090694125445
1.546797473024088 13.051876541196652 295.0815177342776 62.924020658785466 0.41890187078884955
1.572514925545679 13.0419848625043 265.26640040099636 65.86208796570044 0.42631766064021226
1.597928356584243 13.030639946037322 238.73458682731228 68.94807674366912 0.4339705596297947
1.6230367127980319 13.017825279972312 215.06162480817585 72.19080908011139 0.441873826775982
1.6477793071595663 13.00345980557222 193.9346033491684 75.59978491661707 0.45004177827576775
1.672127406332498 12.987515353684135 175.1050389452349 79.18481403454687 0.4584880775999813
1.6960657277350368 12.969952482022999 158.24143352958117 82.9563666471871 0.46722714314499336
1.7195432484635929 12.95072637370162 143.16969127284193 86.92706005749274 0.476279984377018
1.742524885458235 12.92977535838503 129.67948991639778 91.10833741159003 0.4856603805033204
1.765005613713414 12.90710855164104 117.58393488423951 95.51458858568994 0.4953914195577695
1.7869171251021518 12.882627498562698 106.74180805409367 100.15919922258216 0.5054894792676924
1.8082676842568306 12.856385483668138 97.01234109632519 105.05885652239768 0.5159808629153568
1.8289708364444146 12.828225840309427 88.26054176096771 110.23011837408465 0.5268881321319284
1.8490517033255904 12.798248225674014 80.40574475496756 115.69081383114457 0.5382353458412346
1.8684233338448983 12.766292959767519 73.32567820706808 121.46082118442378 0.5500505686403524
1.8870992645729707 12.73245366991479 66.9564614772439 127.56158346844218 0.5623636486449402
1.905018203611471 12.696620310682093 61.20800649050628 134.015891087819 0.5752050880439501
1.9221554316676397 12.65878334511745 56.030700413939364 140.84931492018572 0.5886107147545316
1.9384667941895801 12.618873682477357 51.35382354377058 148.0895548786361 0.602618808482921
1.9539549467066064 12.577010728930249 47.12698503876459 155.76493934700187 0.61726448386194
1.9685652310485797 12.533056067188673 43.307326983888 163.90934206426962 0.6325960533305696
1.9822758583162718 12.487037837491437 39.849078789352575 172.55680041016535 0.6486558828847647
1.9950575642913269 12.438935296837206 36.717458145903784 181.74621032593035 0.6654957211293044
2.0068883264855253 12.388754015488116 33.877654219260805 191.51984187637052 0.6831707866878176
2.017726680345142 12.336458687944853 31.302400164546846 201.9237847212381 0.7017403856191512
2.027556639071375 12.282054660009432 28.969526866200944 213.00779482920942 0.7212664377223867
2.0363578455125535 12.225560800052113 26.849170856685372 224.82792834299025 0.7418210049590332
2.0440937605619864 12.16694386507134 24.92378964503706 237.44491038453907 0.7634796307207137
2.0507445077036768 12.106210548115227 23.171058305549217 250.9259470276117 0.7863258486287994
2.0563076283405404 12.0434381367506 21.578642627747694 265.34440117012656 0.810448479199794
2.0607448843026828 11.978564247168059 20.127144308457112 280.78163924939247 0.8359457740883661
2.0640420353800932 11.911640955474075 18.809648723381272 297.3279875757975 0.8629263943927437
2.0661878274146503 11.84271270686002 17.607613973945455 315.08382050428776 0.8915105311866319
2.067172084266537 11.771798199167705 16.511851141215843 334.1583692683563 0.9218231350154017
