M[M_sun], R[km], Lambda[1], P_c[MeV/fm^3], rho_c[fm^-3]
0.24162668629717493 15.618656898711224 2160425.4255784233 3.5677272577965504 0.1711233750220791
0.25363864903986644 15.277432110120062 1723487.9054623223 3.7847359354169847 0.17388713013963428
0.26603096290879835 14.981439141154418 1383243.665092849 4.01122559657886 0.17666453562060724
0.278800119585696 14.723805532134946 1116656.573557981 4.247454934061608 0.17945434457603895
0.29194898002082526 14.498749166354342 906125.7016125693 4.49404785725278 0.18226310005915072
0.305478051919994 14.30158727538942 738959.8808297788 4.751153746813952 0.18508638646732378
0.31938907233607866 14.128514932640206 605322.0085554287 5.019465004543502 0.18793104506400354
0.3336812445319002 13.976317972102676 497939.73593408614 5.299191771243941 0.19079342702645216
0.34835531044372214 13.842405651244862 411241.1373859719 5.591078578850644 0.19368015175351475
0.3634095115409834 13.724393566029061 340855.2408447298 5.895272542921309 0.19658591028734798
0.3788566333589985 13.620382438824388 283503.5591169911 6.212645894725926 0.199518555561224
0.39468283880975424 13.528790244825792 236595.04224095782 6.543471135172365 0.20247453515250163
0.41089868051614237 13.448229038664525 198034.46230097263 6.888420315310418 0.20545704853644917
0.42749825036187433 13.377377370844748 166226.47218821954 7.248211472948344 0.20846941067458194
0.44448492322799404 13.315234059218923 139929.0664505226 7.623125149599767 0.21150751507144486
0.4618569481064732 13.260855951157271 118096.34273398813 8.01406698442294 0.2145768559960132
0.4796117768635628 13.213439444037455 99919.68182873706 8.42176098981661 0.21767939867635364
0.4977600445924454 13.172237109205302 84735.49900341188 8.846677209725291 0.22081303625450271
0.5162887342201493 13.136627323452533 72022.96157902967 9.289630264538394 0.22398035131535074
0.5351980547599181 13.106030566687986 61351.27569719664 9.751531128939217 0.22718465870749308
0.5544928542141387 13.080019354889178 52366.86161741303 10.233188092411387 0.23042730728414867
0.5741620649906489 13.058018331801287 44383.38539107996 10.735113510349828 0.2337055235319246
0.5942140537004349 13.039672977593197 38377.17925174223 11.258469167785613 0.23702445987548146
0.6146354527251924 13.02465928364027 32947.54230260646 11.80423009788512 0.24038623028201084
0.6354281789959205 13.012548142062828 28334.713275081533 12.373373632789507 0.24379246469938085
0.6565840335184757 13.003086972546035 24408.054909013514 12.966644977583112 0.2472417551099278
0.6781076945469555 12.996048496470184 21059.678601277923 13.585257541258022 0.25073762647964404
0.6999843634163236 12.991105091069395 18200.513360911133 14.230460569631473 0.2542833245763791
0.7222055789595199 12.988018764593589 15753.766605076718 14.903441566895514 0.25788082984757105
0.7447813394923571 12.98664940738579 13656.035248153124 15.60530334979194 0.2615307826232531
0.7676890330446052 12.986752076404004 11854.99480868853 16.337164112458947 0.26523361049066346
0.7909209781767144 12.98810813601436 10306.390218130759 17.10070738611085 0.26899471373004485
0.8144797583824734 12.990629494624246 8972.07016961087 17.897385338231334 0.2728165192508483
0.8383501463110301 12.994088121089433 7820.43724635219 18.72865493164146 0.2767009418805946
0.8625194366218799 12.998342574467644 6826.68545647995 19.595674462417108 0.28064681195968966
0.8869806878147564 13.003276902168713 5966.304355076802 20.50061459038243 0.28466128781900557
0.9117277788821312 13.008764911861274 5220.661502107553 21.44526560734879 0.2887473751869693
0.9367362402706799 13.014644891496301 4574.360619214723 22.431228102602255 0.29290594690032556
0.9619993698463909 13.020847780601647 4012.3289984854987 23.460289913402463 0.29713891338533144
0.9875113629590666 13.027234370347696 3523.489753429331 24.534981497389506 0.30145328736634225
1.0132419610870695 13.033693038312421 3098.0272574932205 25.657382456326598 0.30585173719479075
1.039190530216075 13.040144869214352 2726.897505599543 26.829172869771554 0.31033345884441127
1.065331498909703 13.046480142571282 2403.0414291310803 28.053577133677805 0.3149081829229106
1.0916473831599098 13.052603766680953 2120.127666568951 29.3328107100082 0.3195774781820109
1.1181326984645712 13.058442805014629 1872.5313387219303 30.66929920831245 0.3243437882562591
1.144750426998742 13.063904304718204 1655.492608813737 32.06669757439833 0.32921693454321355
1.1715018270934348 13.068921336168808 1465.242517303297 33.52681675620762 0.33419377961662977
1.1983511234419173 13.073395814506487 1298.2899923413454 35.05412752957975 0.33928749501907596
1.2252807081627581 13.077267473646838 1151.6134767692404 36.65094020694566 0.34449664339027875
1.2522638587398522 13.080440526993582 1018.0075079483345 38.32188462567405 0.34983313077433115
1.2792949901011021 13.082892226513948 908.8032662232503 40.06960701083839 0.35529599408980467
1.3063279612187544 13.08449407609213 808.5957094983769 41.899379963649615 0.3608986378626952
1.3333546298101229 13.085230509349302 720.2289225753101 43.81440122450982 0.366641465262282
1.3603534322492534 13.085049430621217 642.203695734984 45.81986573013938 0.37253507974805067
1.387275927159664 13.083811029291331 573.1691916020321 47.92083860749921 0.37858798982160247
1.414115904093763 13.081530284042596 512.0581797281122 50.121756989689246 0.38480426311197996
1.4408461695792003 13.078134174457636 457.96584769827956 52.428422628280615 0.39119393492830334
1.467426960378418 13.073551664352408 410.017096340426 54.846940858495245 0.39776713310063677
1.493830552911163 13.067712501990231 367.4373599097384 57.38348249584632 0.4045328867023067
1.5200372180883885 13.060608515583192 329.6460264573162 60.04465475964105 0.4115009322711539
1.5460155834489284 13.052151991400109 296.03202128671074 62.83754054210196 0.4186817720164159
1.57172900257042 13.042307367102568 266.1344714982811 65.76974143461021 0.4260867367711604
1.5971445734564462 13.031016567768022 239.5164468945514 68.8494248921048 0.4337280542457178
1.6222362737536375 13.018238667991817 215.78201951673967 72.08537596402016 0.4416189232055502
1.646986680772699 13.003947768165624 194.59220091217034 75.48705407383214 0.44977359427231345
1.6713414800192723 12.988064146332123 175.68326685226805 79.06465539011778 0.4582074581306162
1.69527796980227 12.970567243340621 158.7891567167193 82.82792514367902 0.46693198494401417
1.718741272267226 12.951369290699482 143.65450142027805 86.7895170982916 0.47596851724685085
1.7417579661796203 12.930541914862768 130.12662964823667 90.96163573629018 0.48533402327472375
1.7642400604786728 12.907942651354906 117.99390773384141 95.35731550790914 0.4950463273077466
1.7861686754437363 12.883552894509732 107.10815576132599 99.9912178169186 0.5051269826819373
1.8075140342209253 12.85735472439814 97.33688366729562 104.87929603209892 0.515599565837834
1.8282439647295943 12.829306856756107 88.56926378473666 110.03754508603137 0.526484722836365
1.8483256164687893 12.799385337575599 80.67540422951997 115.48437440319726 0.5378089132198653
1.8677246499585052 12.767548561193946 73.58333216252096 121.23965617206179 0.5496003577231185
1.8864082852148178 12.733774101148507 67.18431153251413 127.32462694290996 0.5618883531659533
1.9043469872820897 12.698029111476993 61.41983852065484 133.76230553224332 0.5747044314196276
1.921495520249961 12.660257145087431 56.22280822753772 140.57694883551673 0.5880800420460092
1.9378457216660658 12.620507181025104 51.52966156626456 147.79677788398283 0.6020556373671417
1.9533565945108002 12.578720740982444 47.287364712444365 155.45092459569932 0.6166693944749019
1.9679947394604336 12.534869519369154 43.45465758874964 163.57158542344962 0.63196420755507
1.9817365778530378 12.488958913020793 39.982748263513564 172.1934029171824 0.6479849091470317
1.9945474743225446 12.440966101671668 36.840986052626384 181.35525311878 0.6647835871555515
2.006408523496311 12.39088162159917 33.994072753284854 191.09878723354433 0.682413851706618
2.017294781035732 12.338733798147564 31.410418335503326 201.4698333100861 0.7009346666429707
2.027153282120641 12.284413448501065 29.067035480375335 212.5188598331417 0.7204108619181776
2.0359856006074764 12.228013539318066 26.937093089669155 224.29976694791338 0.7409080654139033
2.0437768103318597 12.169555529592412 25.004171308265416 236.87481093043266 0.7625075587812343
2.050479947204287 12.10896718083584 23.245792750395932 250.30892045834523 0.7852862541924033
2.0560762080007424 12.046275614382996 21.6453410285577 264.6764960371992 0.8093372679573619
2.060568578132026 11.981547503707256 20.191792371550722 280.05848056376743 0.8347585098387296
2.0639192554231283 11.914770303185675 18.865745439189574 296.66215664741594 0.8618289239524939
2.065385385824475 11.84844137828963 17.740957560730532 314.7455328783422 1.199355696107439
