M[M_sun], R[km], Lambda[1], P_c[MeV/fm^3], rho_c[fm^-3]
0.24162668629717493 15.618656898711224 2160425.4255784233 3.5677272577965504 0.1711233750220791
0.25364472462030113 15.277253746690665 1723190.8299881658 3.7848331790981753 0.1738883422352084
0.2660404149287539 14.981273144933363 1382954.0157661973 4.011430019745119 0.1766670059539292
0.27881679123746095 14.723483215771358 1116399.584345651 4.247773450135193 0.17945803888249906
0.2919723041003321 14.498357459570084 905835.2757207912 4.494488821718549 0.18226801030081957
0.30550882645468713 14.301192313979309 738627.439748345 4.751732129414119 0.18509263410326537
0.319426028945528 14.128093161623868 605056.4038473575 5.0201850630216915 0.1879385159486318
0.33372611933824997 13.975904043505507 497675.29767459916 5.300072459149145 0.19080229409233207
0.34840721312286504 13.841975228965271 410974.29089713533 5.592122092193621 0.1936902480321687
0.3634705874151977 13.723975737541002 340628.13167139725 5.896502321343929 0.19659746062654207
0.37892549754641 13.619946624766344 283273.95794684 6.214076816079236 0.1995316038410247
0.39475860382868755 13.528406458607503 236384.2492008723 6.5451017109592105 0.20248883309935228
0.4109847791551437 13.447821180799549 197838.5132360985 6.89028201791264 0.20547290357704287
0.4275931590557658 13.377022561297311 166066.1373456817 7.250321767228561 0.2084868685983401
0.44458964901453735 13.314888807834905 139780.94390779117 7.625478200315449 0.21152624686814833
0.4619729325046805 13.260527121255366 117966.9973328285 8.016703826691657 0.21459725410275712
0.47973841755383123 13.213121997281801 99811.37874753347 8.424702179138915 0.2177015123083501
0.49789687459121923 13.171981660367774 84631.91418967427 8.849911899342041 0.22083645678940453
0.5164374271298822 13.136365369364476 71930.4629215362 9.29321079160623 0.22400555844912814
0.5353568458011032 13.105816763096122 61268.25801492756 9.755481762890698 0.2272117068387173
0.5546647645388187 13.079798462598541 52297.7054305819 10.237534577059511 0.230456253176336
0.5743488220685538 13.057814918020688 44722.82634012689 10.739836959164533 0.23373584953645632
0.594407756143542 13.0394988366391 38321.67213068238 11.263640599853982 0.2370567710766284
0.614845311325653 13.024485398633868 32895.08974027246 11.809880053913876 0.24042059144140918
0.6356514139306612 13.012417904262628 28055.422218403324 12.37953455843193 0.2438289439972686
0.6568231777468271 13.003016637223293 24366.22984637616 12.973288581530841 0.247279727225755
0.6783563725205276 12.995974004268955 21023.273724060306 13.592478143123937 0.2507778288563185
0.7002457590625596 12.991062584956747 18168.807109697733 14.238296872606673 0.2543258369024704
0.7224820347961816 12.987995331629856 15726.038412131846 14.911934760402932 0.25792573656317824
0.7450711180183541 12.986639215016163 13631.13986340594 15.614414418924733 0.26157735236504887
0.7679927047690505 12.986757889968462 11833.856227906073 16.347016410387994 0.26528272172479817
0.7912404659484025 12.988144445404503 10286.678582342754 17.111350343137744 0.269046466826059
0.8148149198708079 12.990666598241868 8954.169442812232 17.908871661145852 0.27287102103176625
0.838700619858568 12.994143404042848 7806.020991488717 18.74093368051219 0.2767573563784603
0.8628825385683246 12.998414387242951 6812.540774663292 19.608905249143735 0.2807061701555115
0.8873653970696176 13.003358310400717 5953.809421465733 20.514861072750648 0.2847237181136951
0.9121234796507038 13.008849943759513 5209.906640564115 21.460595801365816 0.2888130146383255
0.9371434441716475 13.014751769191317 4564.063007005092 22.4475781590075 0.2929738557263225
0.9624293433188625 13.020963616343803 4003.533282757758 23.477864955783517 0.2972102908544948
0.9879515633225439 13.027344357697979 3515.6973525852095 24.553864220644442 0.3015282994617845
1.01369519433544 13.033805650229146 3091.28455355962 25.67749978232935 0.3059293738302137
1.039660481175133 13.040261777695374 2720.6674286746024 26.850770663123612 0.3104150514185905
1.0658132600587045 13.046588719169133 2397.5578191100017 28.07675645611727 0.3149939333157561
1.092147605237468 13.052711625215489 2115.0910342281018 29.357489428263587 0.31966630641492005
1.118646570687951 13.058552306131167 1867.8611498137818 30.695771867428434 0.32443717227667623
1.1452781570398778 13.064004931037497 1651.6177031752184 32.09495678320486 0.32931426999540175
1.1720435559766096 13.069020946165944 1461.6368479879002 33.55703497725566 0.33429561813719066
1.1989016815648263 13.073478355340649 1295.032108070862 35.0865263203705 0.33939462903688894
1.2258484124835944 13.077342577625647 1148.7424323442342 36.685425573796415 0.3446078878455192
1.252845504121052 13.080497627903112 1019.8615931768873 38.35881377115905 0.3499500078199717
1.2798891720187375 13.082937463147246 906.4383250221277 40.108962453408125 0.35541774668131154
1.3069358774143605 13.084521688571469 806.5726902508585 41.94128489456964 0.36102532281743566
1.333972654961899 13.08523934961679 718.3997933988676 43.8593252928793 0.3667750028264934
1.360981288667314 13.08503320243096 640.4258562016116 45.86771483436994 0.37267421844334364
1.3879146177176933 13.083766997441407 571.6247594833117 47.97181704942301 0.3787330909235167
1.4147646763101465 13.081462725446293 510.66623783857693 50.176423544736075 0.38495744482360006
1.4414955429329208 13.078023176448646 456.73792744039184 52.48669054408721 0.3913539167940068
1.4680914538967738 13.073418861572446 408.88129980261823 54.909068038837006 0.3979343682967871
1.4945007873672964 13.067551580813252 366.4175559168801 57.44974773012089 0.4047078634297255
1.5207139588423153 13.060401454189323 328.7385516679487 60.11535959232544 0.4116841766305057
1.546697920236856 13.051911746023908 295.1923497614157 62.91301132869678 0.4188738511684933
1.572414039985355 13.0420258029809 265.378077155655 65.85033160483347 0.42628826241263057
1.597827801767607 13.0306873252557 238.83738294202112 68.93551744362412 0.4339396864344836
1.6229259771270161 13.01786716388665 215.1676104771153 72.17738621287276 0.4418413745739471
1.6476782217194859 13.003522149062638 194.03033074857746 75.58543269092314 0.45000763467096544
1.6720275954437311 12.987586713094007 175.1741896924464 79.16953596929076 0.4584524340485312
1.6959639939764266 12.970026905804483 158.31448831259414 82.9400136416674 0.4671895639859368
1.7194440538663518 12.950812322614013 143.23168469027638 86.90954790853252 0.4762403279757643
1.7424199259843693 12.929835511299107 129.74368739721672 91.08965883072128 0.48561882753622587
1.7649078167695287 12.907212890300537 117.63941700715179 95.49456358567247 0.49534748023636593
1.7868348829503335 12.882771189520396 106.79070793851365 100.13781036553686 0.5054433230421179
1.8081722984480262 12.856507853552914 97.0548332305184 105.03599286781387 0.515932311896924
1.8288804638247755 12.82836709531876 88.30137703549187 110.20565891105902 0.5268369939011488
1.8489590775804596 12.79839211733374 80.43396352218313 115.66452649032506 0.5381810452661654
1.8683339419676905 12.766448505204895 73.3631212814943 121.43265812814644 0.5499932389783805
1.8870121327883493 12.732621983589123 66.98521795545936 127.53149364216783 0.5623034262399764
1.9049333906808021 12.696798367436145 61.23551062903493 133.9835982458914 0.5751413319471466
1.9220725656548356 12.658974235444948 56.053749069429884 140.81462964896906 0.5885431346560596
1.938384569944579 12.619078901313642 51.37467669425905 148.05226940534442 0.6025470880199766
1.9538797226715994 12.57722890504825 47.1486781029695 155.72494831795424 0.6171886968587363
1.9684941906945905 12.533288530286406 43.328461131758154 163.86640306648337 0.6325158429258569
1.9822074663539648 12.487281132279383 39.865569528310516 172.5105179539224 0.6485704273897313
1.9949924400163148 12.439194175820068 36.73249690662585 181.6964165916725 0.6654050211519246
2.0068274380698234 12.389028260571473 33.89267164184842 191.46621341256855 0.6830743781552641
2.017670763496622 12.336746165844302 31.31739287010222 201.86596471690902 0.7016377608149402
2.0275050888555985 12.282354867963488 28.982428529027274 212.94553511459384 0.7211575180765473
2.0363117231305994 12.225876585625274 26.860397076746462 224.76065245386258 0.7417047169830643
2.0440531163942857 12.16727481618841 24.933740083136275 237.3722904788686 0.7633558071105674
2.050710027651333 12.106558637440664 23.18065514261085 250.8474582767319 0.7861937819566872
2.056279975800142 12.04380239101556 21.58740604646002 265.25943874066445 0.8103073184841854
2.06072281264251 11.978944620086105 20.136178658473785 280.6896014329315 0.835794810647756
2.064024837848696 11.912043673717395 18.81620638713467 297.2281319843964 0.8627646104424376
2.066181323050727 11.843129847614374 17.61339141439188 314.9753450137952 0.8913368832618402
2.067170126235568 11.772228159838864 16.518529469632064 334.04055819793507 0.9216370618403532
