M[M_sun], R[km], Lambda[1], P_c[MeV/fm^3], rho_c[fm^-3]
0.24162668629717493 15.618656898711224 2160425.4255784233 3.5677272577965504 0.1711233750220791
0.2536414122589441 15.277352842940298 1723148.5361858245 3.784795106412364 0.17388786767754666
0.2660373027524021 14.981320231315301 1383102.8193981226 4.011349983436269 0.17666603876237094
0.27881087518907355 14.723591199838113 1116481.517391444 4.247648742527887 0.17945659246218468
0.2919633184785998 14.498537211019746 906033.3549290951 4.494316170470679 0.18226608778910428
0.30549674006733857 14.301330817642217 738758.8885215765 4.75150567231254 0.18509018793436846
0.31941131968068576 14.128263729173645 605166.6158686412 5.01990313201595 0.18793559080563185
0.33370735047949973 13.976092700964244 497750.3375644797 5.29972763189298 0.19079882225403438
0.34838674529504154 13.842093288706478 411072.82975114975 5.591713507832265 0.1936862948660749
0.3634473981691694 13.724101412530663 340711.0732807754 5.896020800621788 0.19659293808201908
0.37889921656162195 13.620098299920262 283366.5558957986 6.213516532074079 0.19952649472552353
0.39472835595273953 13.528568356650052 236456.7750225398 6.5444632454822935 0.20248323461964435
0.41095087095727606 13.448000503980227 197918.90687499737 6.889553045660542 0.20546669534344267
0.42755689341572944 13.377146378220507 166124.93893739264 7.24949544782772 0.20848003266970447
0.4445492204573684 13.315035407119414 139843.12153275817 7.624556817711926 0.21151891207017723
0.4619272805168992 13.26066389859914 118013.52499940395 8.015671310101476 0.21458926675217826
0.4796894591419084 13.213273376106134 99838.69789987194 8.423550477421545 0.21769285312148495
0.4978432096404014 13.172076268195134 83796.1811852972 8.848645259068926 0.2208272857726334
0.5163786741298505 13.136475125610382 71963.31219556049 9.291808715038659 0.22399568774268316
0.5352947601888027 13.105897801000769 61298.565669265336 9.753934743915044 0.22720111512792512
0.554597256013801 13.079886797095577 52319.50180439266 10.235832531945443 0.23044491821984625
0.5742754559913685 13.057900995932163 44746.534959904326 10.737987283327557 0.23372397404462508
0.5943313656571043 13.039577592860457 38344.69324294936 11.261615477510537 0.23704411807557935
0.6147654946518876 13.02454505909952 32915.863468041964 11.807667522041452 0.2404071355560969
0.6355622007209404 13.012453006777621 28306.06808802919 12.37712190768383 0.24381465851316325
0.6567310130899144 13.003038536622094 24381.60193916582 12.970686891152587 0.24726485703042625
0.6782594786700187 12.995992842245963 21037.62398345942 13.589650469499622 0.2507620851271574
0.7001434325860109 12.99108572979918 18181.329229326122 14.23522805477385 0.2543091884159537
0.7223729531790051 12.987999460204486 15736.478277251346 14.9086086633022 0.2579081502340249
0.744957631956675 12.986643551541068 13641.055573636026 15.610846322617947 0.2615591146235404
0.767873736822885 12.986761920567242 11841.258001673034 16.34315799681165 0.26526348850084364
0.7911144774929494 12.988125832816282 10294.313663796413 17.10718224844958 0.26902619879302575
0.8146848140312845 12.990652830198052 8961.181885012307 17.904373237735243 0.2728496763343356
0.8385636686052308 12.994117303849068 7811.1994112496295 18.736124880353483 0.27673526242987107
0.8627405030747922 12.998377171414628 6818.445882905955 19.603723548216195 0.2806829231313774
0.8872114005153425 13.003323004697373 5958.737867993288 20.509281532654242 0.28469926770387133
0.911967898798371 13.008816898396885 5214.1217109490435 21.454591776020145 0.28878730714048295
0.9369834489661175 13.014711428083816 4567.888359549718 22.44117465843564 0.2929472592305474
0.9622578623863915 13.020914216786931 4007.0045363513336 23.470981623608587 0.2971823355972952
0.9877790277382164 13.027301394210237 3518.7067107998673 24.54646865907489 0.3014989204065066
1.0135179864974995 13.033758508047544 3094.001295773926 25.66962061782843 0.3058989666169632
1.0394754874939307 13.040220386169079 2723.1595086824454 26.84231157524731 0.3103830945078179
1.0656257998187226 13.046550282172955 2399.5458900606473 28.067677850025163 0.31496034760414093
1.0919514869835083 13.052678486765508 2117.1276293170404 29.347823479148477 0.31963151493302866
1.1184461007747535 13.058508535282666 1869.823622832937 30.685403178848414 0.324400596055836
1.1450727188243628 13.063970536941492 1653.1036032994575 32.08391919524878 0.32927634593034333
1.171831698375794 13.068978015835764 1463.1519492223051 33.545199026558834 0.33425572976300477
1.1986829206582403 13.073438579383863 1296.3003035073248 35.07383614687724 0.33935266607346054
1.2256259444430628 13.07731378803135 1149.8194419118022 36.671918001986725 0.34456431450978836
1.252618807005929 13.080473460497817 1020.8917897870506 38.34437282786667 0.34990436846897327
1.2796558625616237 13.082922821752366 907.3657446475808 40.09354702368359 0.35537005649170617
1.30669674772527 13.084517682148881 807.3572282210916 41.92487069115468 0.3609757001937713
1.3337298564304503 13.085231959355987 719.108060061864 43.841728295731706 0.366722695450474
1.3607354214710075 13.085042073843658 641.066465971465 45.848971913336705 0.37261971657501236
1.3876641406349315 13.083784515159048 572.2364723199228 47.95184815254435 0.3786762529968999
1.4145171317455245 13.08150371518908 511.18765068003705 50.155009719901464 0.3848974409265612
1.4412387301849061 13.078062733578312 457.19842834895434 52.46386578340742 0.3912912485528789
1.467832828819991 13.073471063080746 409.3330594934207 54.88473128286888 0.397868858126591
1.4942379710712042 13.067613881602322 366.8120783586314 57.423789733771976 0.40463932001776587
1.5204485251548 13.06048016804142 329.08769120425444 60.087662191999634 0.4116123938090815
1.5464309151831281 13.052004602795998 295.52799181068775 62.88344663631729 0.4187986066758902
1.5721457261706924 13.0421377920209 265.66520657599955 65.81876112060183 0.42620931653041344
1.597568538161274 13.030822925992215 239.10478674706098 68.90179107838057 0.4338567804876897
1.6226557469857201 13.018021904509524 215.4040771549741 72.14134120980148 0.44175422927918845
1.6474066104316767 13.003692615793629 194.24751632611506 75.54689243507602 0.4499159483156443
1.6717568452565084 12.987773248929315 175.36433932472573 79.12850989947232 0.4583567206970135
1.6956949069593885 12.970241764632176 158.49162144615923 82.89610151387288 0.46708865404415784
1.7191574939258065 12.951008708675149 143.39875689635028 86.86252369186028 0.4761338412613565
1.7421638346417563 12.930125989291767 129.8916764335984 91.03950295105221 0.48550724916567783
1.7646441916455728 12.907493853578538 117.7666759037871 95.44079291150776 0.49522949537084043
1.7865740190247363 12.883077204821861 106.90834881569657 100.0803780783975 0.5053193866581004
1.807914482760335 12.85684060265254 97.16185041422081 104.97460117420596 0.5158019465068656
1.8286290421075009 12.828725634315502 88.40476499519433 110.13990195238435 0.5266993814016644
1.8487106625631131 12.798781351015023 80.5303167264008 115.59394345503813 0.5380352450715956
1.8681014175497825 12.766898917012712 73.44229587688562 121.35703956320526 0.5498393072912728
1.8867760343268754 12.733072822198436 67.06239376393566 127.4504832164647 0.5621409457027529
1.9047032387368696 12.697279813666444 61.308009698993175 133.89689306953218 0.5749701490072952
1.9218504554559195 12.65949077505737 56.12002465247682 140.72150207056205 0.5883616867186945
1.938171215812971 12.619624190057264 51.43319094934861 147.95216178148897 0.6023545260248258
1.953676045241209 12.577816904079894 47.20352630069267 155.61757786271116 0.6169852190981165
1.968298156285709 12.53390946466008 43.374661279562034 163.75104049005355 0.6323002253285906
1.982023337010549 12.487941893294995 39.91178333937075 172.38625925053995 0.6483409972801011
1.994819514907059 12.439890545897782 36.77308056407031 181.56273266267536 0.6651615140216236
2.006660272907616 12.389746448791145 33.932987938772904 191.32223621382948 0.6828155486183441
2.017522183438437 12.337517796475975 31.353924205836773 201.71073669969513 0.7013622463963668
2.0273686165963642 12.283166004190425 29.01474105837516 212.77839024384875 0.7208651081251386
2.0361899186017576 12.226728142943957 26.89151265411749 224.58004381892118 0.7413925306578862
2.0439453081941865 12.168166275404758 24.96144047489587 237.17733827407352 0.7630233956927771
2.050616487775062 12.107493657351718 23.204613294392235 250.63653807030624 0.7858385434318444
2.056195772457348 12.044758835985968 21.609755922993493 265.03098660491514 0.8099271608575092
2.060662263516279 11.979964449704307 20.156830384612224 280.4425329838303 0.8353895608865521
2.063987425458454 11.913114862014421 18.835651043904072 296.96008210276324 0.8623303216047152
2.066156245479102 11.84423471963091 17.631615352688907 314.6841614887643 0.8908707557096572
2.0671642287914938 11.773377375026344 16.534969636391317 333.7243207177819 0.921137590001323
