M[M_sun], R[km], Lambda[1], P_c[MeV/fm^3], rho_c[fm^-3]
0.24162668629717493 15.618656898711224 2160425.4255784233 3.5677272577965504 0.1711233750220791
0.2536446080187116 15.277263104834523 1723197.9948013881 3.784831433807396 0.1738883204810008
0.2660405081941457 14.981268441560555 1382981.9414006684 4.011426350774039 0.17666696161657897
0.27881690448585134 14.723482048124822 1116380.6563501388 4.247767733334659 0.17945797257622792
0.2919719733018813 14.498377866469676 905857.2154218626 4.494480907052432 0.18226792216917548
0.3055080326827056 14.301204629752235 738629.3364255467 4.751721748116442 0.18509252196543746
0.3194255214594276 14.128096244002997 605067.7401676102 5.020172138597326 0.18793838185274064
0.3337239459585482 13.975943048997667 497659.4129396504 5.300056651302762 0.19080213493354894
0.34840627474027364 13.841983148285406 410979.2190635771 5.592103361432456 0.19369006680690176
0.36346934607334797 13.723951946606283 340643.2179390735 5.896480246819451 0.1965972532979367
0.3789245712213664 13.619964185039425 279369.63649469527 6.214051130623894 0.1995313696205993
0.3947560404268906 13.528429698437662 236385.66109783834 6.545072441216736 0.20248857644325227
0.41098321516639735 13.447853080310137 197849.8918762995 6.890248598785981 0.20547261896573643
0.42759161867244083 13.377025302686807 166067.4085161273 7.2502838850759606 0.208486555209
0.44458833671731557 13.314894150460377 139785.3935394341 7.625435959816766 0.21152591060661827
0.46197079056817714 13.260532135467006 117967.5937207998 8.016656491011133 0.21459688792299902
0.47973634017990335 13.213126725622432 99804.2546348239 8.424649379111552 0.21770111532595743
0.49789478001103915 13.171962477278477 84631.96733830584 8.84985382963125 0.22083603633988713
0.5164339551165024 13.136380888932164 71930.29212796714 9.293146512383805 0.22400510591939493
0.5353539050691168 13.105819736851913 61268.162599807525 9.755410838268832 0.22721122125121343
0.5546608807435783 13.079809316778782 52298.62401934238 10.23745654466147 0.2304557335110056
0.5743456384210032 13.057820639607254 44321.63606083755 10.739752158031648 0.2337353050869151
0.5944033008833403 13.03952992343548 38322.46240332906 11.2635477545865 0.23705619097771702
0.6148413594190543 13.024503218641177 32896.65084349333 11.809778615952043 0.24041997452935573
0.6356472193345913 13.012433906720354 28287.21189868868 12.379423944989464 0.2438282890468679
0.6568188479833706 13.00300561117862 24366.23309375757 12.97316930056714 0.24727904546467996
0.6783520110662152 12.995981827502236 21024.860840947942 13.592348500662247 0.2507771070418251
0.7002410399579246 12.991062742493103 18169.625029015682 14.238156173429081 0.2543250736025652
0.7224761327515963 12.987995760426555 15726.04432860912 14.911782264618411 0.25792493026048174
0.7450659516811191 12.986639235185041 13631.686509124285 15.61425082712793 0.2615765161922984
0.7679881017152181 12.986748692800985 11834.109758174334 16.346839506980984 0.2652818399056831
0.7912345241983327 12.988144353384437 10286.765684166696 17.111159240153263 0.26904553755695837
0.8148086856335409 12.990674672084051 8954.662856262767 17.908665411740234 0.27287004239308416
0.8386924832886751 12.994142971303487 7806.02064651978 18.74071319953109 0.27675634338243205
0.8628770434643631 12.99841145076545 6812.859897762875 19.608667669492014 0.28070510428544787
0.8873587283051458 13.00335649445533 5954.122714431916 20.51460525079832 0.2847225970622342
0.9121164286673576 13.008852138021307 5210.279192403653 21.460320515162845 0.28881183594252363
0.9371365944906713 13.014754157503791 4564.26693863911 22.44728455537282 0.2929726362639766
0.9624216330590303 13.0209595909637 4003.739277488082 23.477549349782997 0.297209009084751
0.9879421821183343 13.02734323282443 3515.734903673638 24.55352512653244 0.30152695240185307
1.0136868183692958 13.033804286795242 3091.4138921421213 25.67713851279567 0.3059279796215066
1.0396525959828227 13.04025850161406 2720.801201756152 26.85038280105252 0.31041358614552805
1.0658053334466668 13.0465866320746 2397.638476246038 28.076340185671544 0.3149923933503691
1.092137823183736 13.052710663824248 2115.1356985413217 29.3570462249082 0.3196647111549689
1.1186372369571185 13.05854827870814 1867.9319844817321 30.69529643911377 0.32443549517248926
1.1452715782616845 13.063996762993863 1651.7542381790909 32.09445068177477 0.32931253108073694
1.1720343755973965 13.069013726679346 1461.7235153971394 33.5564922654521 0.3342937891424567
1.1988922723515756 13.073470537892879 1295.108233533542 35.085944436329704 0.33939270490411516
1.2258385768636146 13.077339878757329 1148.76763721178 36.684806206272405 0.3446058898617628
1.2528355370872575 13.080496101943229 1019.9312049085977 38.35815440627731 0.3499479315431701
1.2798787816011261 13.082937613402082 906.505457096017 40.108255595794525 0.35541555990000095
1.306923751720339 13.084518506748958 806.5952153372235 41.9405322351894 0.3610230474141018
1.3339616959966147 13.085241568257961 718.4047509814875 43.85851839201529 0.36677260429982717
1.3609711900796266 13.08503366803603 640.4497899614346 45.86685538294375 0.3726717192753439
1.3879027588563704 13.083770276900777 571.6503444459588 47.970901375966825 0.37873048462127457
1.4147532148991184 13.08146147111564 510.70593251760806 50.17544160715512 0.3849546933262865
1.4414838726435835 13.078023105948036 456.75669664910777 52.485643901374075 0.39135104310525964
1.4680792503297677 13.073425609605218 408.8990137995786 54.907952055918294 0.3979313642714751
1.494489622412299 13.067552689187107 366.43140630402837 57.448557396443846 0.4047047202930019
1.5207021775470708 13.060404214767805 328.74790551799737 60.114089488237234 0.41168088492609006
1.5466855593522773 13.05191610685752 295.20829234942795 62.91165558846811 0.4188704007018252
1.5724017543436972 13.042032207125263 265.3953427737577 65.84888387595419 0.4262846421883493
1.5978161732654725 13.030692801578484 238.8468626316883 68.93397084195054 0.43393588458761584
1.622913341790703 13.01787329452117 215.16967931176296 72.17573327315651 0.4418373782941159
1.64766587479163 13.003529835947976 194.04244315437245 75.58366531219247 0.4500034301188491
1.6720141054765956 12.987595990703799 175.1836935594767 79.16765458472632 0.45844804479986684
1.6959518244077978 12.970037590868586 158.32055502441622 82.93799989246871 0.46718493639614317
1.7194317888233286 12.950822883071128 143.23923759951631 86.90739142678768 0.4762354446056215
1.742409912355256 12.929869163230055 129.75145836668875 91.08735871887336 0.485613710634005
1.7648949705841546 12.907226134619384 117.64306059336239 95.4920976821898 0.49534206949351545
1.7868220217739759 12.882786132269645 106.79673688064803 100.13517652317192 0.5054376393245603
1.8081600171805252 12.856523168982683 97.05906265940197 105.03317742663121 0.5159263333016713
1.8288688459072322 12.82838386179285 88.30383129074319 110.20264697125116 0.52683069673621
1.8489475028919466 12.79841000539177 80.44298211711178 115.66128947817907 0.5381743587160788
1.8683231727335108 12.766467621852279 73.36461936602487 121.42919015341506 0.5499861794526983
1.8870008738796198 12.732642931577976 66.9885619043596 127.52778841837114 0.5622960105279038
1.90492297508421 12.696821021073502 61.24038482565963 133.9796217604694 0.5751334811302358
1.9220629411389858 12.658998409169248 56.0592602143416 140.81035858050333 0.588534812990483
1.938375602034738 12.619104915999447 51.376793174129205 148.04767817211552 0.6025382565544327
1.9538704714542894 12.577254417082814 47.15179299795412 155.7200239480797 0.6171793646848877
1.9684845858337399 12.533318148951697 43.3276459611647 163.8611157133545 0.6325059661062712
1.9821978151767872 12.487311469017177 39.867998594953434 172.5048189246119 0.6485599047552284
1.9949841787229898 12.439226096117139 36.732388216586706 181.6902852236261 0.6653938527800118
2.0068193424986305 12.389062513581779 33.892334740347664 191.45960988227912 0.6830625069096654
2.0176650654173374 12.336780947208785 31.319777289890684 201.8588450939413 0.7016251241864654
2.0274983897683185 12.282391312697657 28.982898635314555 212.93786884383337 0.7211441063945102
2.0363068039381256 12.225915382342176 26.862118768494852 224.7523685627346 0.7416903980800381
2.0440485157531967 12.167315567783973 24.9352741467562 237.3633486036015 0.7633405603918223
2.0507052816309663 12.10660110173301 23.181397505056957 250.8377938021216 0.7861775203270245
2.0562762861773347 12.043847288601132 21.58866934000149 265.2489600800132 0.8102898813840643
2.0607195498641495 11.978991122799583 20.13679566292668 280.6782687513836 0.8357762224123588
2.0640227663505653 11.912089591619358 18.816598876362058 297.2158367615538 0.8627446899783608
2.066180794887096 11.843180282987205 17.614283358654696 314.9619884979396 0.8913155021069799
2.0671699403321115 11.772280283435025 16.51964844319235 334.0260522790602 0.921614150900215
