M[M_sun], R[km], Lambda[1], P_c[MeV/fm^3], rho_c[fm^-3]
0.24162668629717493 15.618656898711224 2160425.4255784233 3.5677272577965504 0.1711233750220791
0.2536434695602439 15.277318049913239 1723180.7948745005 3.7848091999082074 0.17388804334617342
0.2660382169511685 14.981297824583267 1383078.183213212 4.011379610616286 0.1766663967893567
0.2788132834679134 14.723559260020476 1116486.0814703 4.247694905559936 0.17945712788379023
0.2919665902942053 14.498479018239443 905978.9373316703 4.494380080536297 0.1822667994425177
0.30550121693658683 14.301280954258232 738697.2529703138 4.751589499254463 0.18509109342532734
0.31941727328071073 14.128186440688543 605133.5801941289 5.020007493142205 0.18793667359259644
0.3337150605222608 13.976025644089434 497739.71710245084 5.299855274506125 0.19080010740335135
0.3483943370243021 13.842082873438976 411037.22362480493 5.591864750436354 0.19368775817987485
0.36345625569226314 13.724026015991782 340687.41599207773 5.896199040802238 0.1965946121515135
0.3789093025298955 13.620043338588289 283333.2154025325 6.2137239265068525 0.19952838591303126
0.3947397192331657 13.528509276612102 236432.6450876881 6.5446995786518976 0.2024853069422713
0.4109632896626807 13.447921465045383 197889.31090381744 6.889822879573147 0.2054689933622738
0.4275705101029151 13.377101186026474 166101.82307380636 7.249801314223696 0.20848256302401152
0.4445634531749184 13.315002449577843 139823.23791786202 7.624897871036334 0.21152162707393607
0.4619448110536584 13.260605456825319 117999.77979760224 8.016053498613594 0.21459222328930566
0.4797064979025881 13.21320650029793 99826.15541490172 8.4239767809466 0.217696058328032
0.4978637451592206 13.172015377707936 84653.49406433804 8.849114105618966 0.22083068042197843
0.5163999875863571 13.136441995257787 71947.93394455149 9.29232769131389 0.2239993413680152
0.5353176759578561 13.105885221323268 61286.729226608186 9.754507368197876 0.22720503561687308
0.5546231254230881 13.079826088668684 52308.91894122592 10.236462536281113 0.23044911380295635
0.5743031400337676 13.057864169719686 44737.39572308064 10.738671930278775 0.23372836969012897
0.5943593528969986 13.039534348399812 38335.943586921785 11.262365062163921 0.23704880149405838
0.6147939098511009 13.024520036157408 32907.813815613976 11.808486471923072 0.24041211613776486
0.6355934572171488 13.012448007698065 28298.181989228447 12.378014926513709 0.2438199461439196
0.6567650827735625 13.003047730949664 24182.214647757854 12.971649878090561 0.24727036106887235
0.6782951219583845 12.995988590449084 21032.296403436445 13.590697097725375 0.2507679124727099
0.7001818525426771 12.991070370773535 18040.69545832873 14.236363935279012 0.2543153506231308
0.7224141600165831 12.98800641992302 15733.617952387882 14.909839767559278 0.25791465954630033
0.7449998442328745 12.986646949893933 13541.031782897086 15.612166995106062 0.26156586502526297
0.7679186417932238 12.98676023847147 11838.454936682361 16.344586120136356 0.2652706073374316
0.7911615189465454 12.988129185718776 10291.647978324581 17.10872498894353 0.26903370061763204
0.814733339353115 12.990662223100076 8958.174393020761 17.906038236803585 0.27285757663586174
0.8386142167722019 12.994125241138045 7809.530983986666 18.73790475351472 0.27674344002611584
0.8627925114787264 12.998400536997398 6816.277838080593 19.60564143524258 0.28069152748091675
0.887265382990991 13.00334742198215 5956.839495479219 20.511346662795557 0.28470831742435404
0.9120243041297633 13.00884255740705 5212.643880399019 21.456814010460512 0.2887968221048264
0.9370433758721366 13.014719182485159 4566.430693135985 22.443544740910017 0.2929571032038256
0.9623136617771462 13.020946019805773 4005.4733389663843 23.473529292897656 0.2971926824392644
0.9878440213667246 13.02731285914992 3517.6653261703887 24.549205904794274 0.30150979418431817
1.013583061564599 13.033778361079357 3093.1126002858314 25.672536845479 0.3059102209011005
1.039544586903157 13.040233912862643 2722.258420556931 26.845442431099414 0.3103949223174554
1.0656947402070933 13.046551314353401 2398.9971223472226 28.071037986935657 0.31497277821167236
1.0920234716614272 13.052691082460292 2116.295761937139 29.351400989494454 0.3196443917736716
1.1185200509013646 13.058524059708809 1869.1812385029616 30.689240767818585 0.3244141333995978
1.1451491033590815 13.063985042129818 1652.499748245429 32.08800433923155 0.3292903820826977
1.1719104290899938 13.068997954682995 1462.6434750602557 33.549579635990796 0.3342704928684502
1.1987647873504643 13.073452923793665 1295.8456773412956 35.078532893367836 0.3393681969408141
1.2257083807858236 13.07732133798344 1149.4528364497348 36.67691725772884 0.34458044133494425
1.2527021014135389 13.080490831181384 1020.5070387162058 38.34973210195155 0.3499213454744045
1.279742230669802 13.082934093176968 906.992408158311 40.099252347495856 0.3553877068575558
1.3067852127728794 13.084520460235629 807.029480815794 41.93094564403535 0.36099406569668085
1.333819644178119 13.085239275132487 718.8003525242957 43.84824097542001 0.3667420545026175
1.360826874340227 13.085035091580043 640.8446583062479 45.855908675700555 0.3726398877376785
1.3877569563635885 13.083782874033277 572.0031758087836 47.95923862107593 0.3786972886560359
1.4146117392629043 13.081496851437851 510.9845477880781 50.16293491763655 0.3849196482039898
1.4413343993350385 13.078047120482191 457.0405580065869 52.472313131417934 0.39131444180556796
1.4679270023063435 13.073451906536704 409.16451366861395 54.89373817785489 0.3978931030680386
1.4943356174519238 13.067591572328347 366.6597437986784 57.43339660126033 0.4046646874408537
1.5205465503668243 13.060451930995677 328.9549761817935 60.097912757487386 0.4116389600031376
1.5465292183984345 13.051970730645486 295.39490003070136 62.894388223467864 0.41882645388508316
1.5722452871319275 13.042095466541515 265.56323697414615 65.8304449795038 0.42623853345790647
1.597668688461216 13.030776444197002 239.00567462494882 68.91427274724838 0.4338874628505112
1.6227534813314666 13.017965793603375 215.30710629312443 72.15468091391358 0.4417864804193685
1.6475073340837096 13.00363054574202 194.17170868700313 75.56115552721246 0.4499498798738256
1.6718563390501364 12.9877022374051 175.2981536366629 79.1436928882831 0.4583921424362044
1.695794208626011 12.970162606011437 158.4245260299109 82.91235249932714 0.4671259987614012
1.7192591317673431 12.950923499283554 143.3368634520438 86.87992631034972 0.47617324962998386
1.7422616759865903 12.930029929939568 129.8280906905652 91.05806444701396 0.48554854166195166
1.7647419315727204 12.90738997907191 117.7231201660403 95.4606920512238 0.49527315852663945
1.7866697684176371 12.882964124335826 106.86489935587123 100.10163218727791 0.5053652521029809
1.8080093942240745 12.85671803263688 97.12168172100522 104.99732044071011 0.5158501909169086
1.828721610769491 12.828594864817367 88.36355694598414 110.16428760324655 0.526750497501602
1.8488022999679201 12.798638731375988 80.49199735711329 115.62006388361152 0.5380892008635613
1.868191632542878 12.766744809486658 73.41234224337305 121.38502332477022 0.5498962719749145
1.8868636411670472 12.732904726912945 67.03414882402603 127.48048738417488 0.5622011638279397
1.904788398643005 12.697101466009842 61.27983592581254 133.92897925921955 0.5750334971084116
1.9219336762615455 12.659299596682315 56.09667178349755 140.75596473773547 0.5884288330998383
1.9382516768964628 12.619421531191868 51.4133238001807 147.9892072508555 0.6024257848282792
1.9537504612040486 12.57759616149069 47.17924146703396 155.65731076781822 0.6170605169306143
1.968370260462072 12.533681291663896 43.3553028703591 163.79378023403842 0.6323801828713119
1.9820907751923937 12.487696563131024 39.894876353341324 172.43224115210316 0.6484258978337805
1.9948846632027444 12.43963408057594 36.75892014882068 181.612202057289 0.6652516232098444
2.006719858869574 12.389475697356922 33.91842275608233 191.37551426061452 0.6829113272020236
2.0175778174385663 12.33723202414777 31.339856312368713 201.7681776689837 0.7014641984507696
2.0274190474457736 12.282862350620182 29.00306844616164 212.8402405594883 0.7209733115519632
2.036234589755985 12.22641508885709 26.880016991084705 224.64687578315045 0.7415080512991
2.043985279624093 12.167835886212046 24.95079467525553 237.2494773939461 0.7631463995189723
2.050651325799531 12.107148539431542 23.19603076107659 250.7146619468719 0.7859702426286989
2.056224425995099 12.04439746788797 21.600985282055124 265.1155205705767 0.8100678302876898
2.0606843378552524 11.979587407406552 20.149384852755322 280.5339548562487 0.8355395140355728
2.0639976451307156 11.912707849282373 18.827851725186456 297.0592668484477 0.8624910186647574
2.0661654401487577 11.843826032329156 17.62399358133131 314.79190530783154 0.8910432323724057
2.067165585661725 11.772951838784163 16.528876493175087 333.841334027228 0.9213224031766359
