M[M_sun], R[km], Lambda[1], P_c[MeV/fm^3], rho_c[fm^-3]
0.24162668629717493 15.618656898711224 2160425.4255784233 3.5677272577965504 0.1711233750220791
0.25364377363052554 15.277283970918894 1723267.8010439824 3.7848158399783216 0.1738881261114441
0.26603951476200044 14.981267130700846 1383035.847200245 4.0113935693472715 0.17666656547238277
0.27881421443129356 14.723542980021296 1116447.4653575195 4.2477166551751315 0.17945738014655052
0.2919678148123247 14.498461199487195 905927.7437331596 4.494410191739099 0.18226713473774933
0.3055048106270945 14.301197282296576 738606.3913476948 4.751628994432365 0.18509152004862636
0.3194198542460047 14.128159351064575 605127.3819736491 5.0200566632015065 0.1879371837509396
0.33371619617757226 13.976014628773827 497712.1956772628 5.299915413925657 0.19080071290751668
0.3483978862488192 13.842052946989849 411021.39240218914 5.591936009343281 0.19368844762940202
0.3634590071254878 13.724040088449309 340659.8615880878 5.896283020084305 0.19659540090270258
0.37891324868018644 13.62001830951715 283314.11058715306 6.21382164239011 0.199529276964229
0.39474464583503266 13.528485354744193 236412.57896986202 6.544810929656266 0.20248628334015176
0.4109691030346477 13.447920503665568 197879.6152702744 6.889950015262803 0.20547007610315735
0.42757717558758285 13.377072185727704 166089.9774450211 7.249945427570061 0.2084837552367929
0.4445716233379116 13.314964287322947 139811.83930952055 7.6250585637013115 0.21152290629087434
0.4619523027103986 13.260612182349801 117989.9230975114 8.016233573377894 0.2145936163131917
0.4797156836173551 13.213176205409443 99821.14741901383 8.424177641938632 0.21769756852189354
0.49787260170083597 13.17200174578111 84651.0981859309 8.849335012213809 0.22083227988011123
0.5164107047830463 13.136410218695959 71943.1425710605 9.29257221835651 0.22400106285363972
0.5353277428367328 13.105865934613323 61280.91930806323 9.754777173562788 0.22720688284721757
0.5546325014639156 13.079848117011254 52302.26940882974 10.236759378578604 0.23045109065685906
0.5743157955260472 13.057865579093079 44332.203330902186 10.738994519720244 0.2337304408142689
0.5943719276172448 13.039556214367227 38331.060414796186 11.262718249862914 0.23705100821719308
0.6148083814351326 13.024530717154516 32905.05937490026 11.808872344236297 0.24041446288524304
0.6356107562345996 13.012450038665813 28294.244044579187 12.378435699955782 0.24382243757469277
0.6567800058710549 13.003041093281134 24372.802439686795 12.97210362041035 0.24727295447390646
0.6783128039238894 12.995996692997641 21030.173379572236 13.591190251926546 0.2507706582231781
0.7001992858367411 12.991054361434758 18174.266146998976 14.236899145434343 0.25431825416434445
0.722433068083499 12.987992046392614 15731.34235884712 14.910419847622522 0.2579177266482575
0.745019194659334 12.986655353441433 13538.962077921355 15.612789280204607 0.2615690457339087
0.7679394177431178 12.986747134820753 11837.632219139381 16.345259036965732 0.26527396165905265
0.7911825376785123 12.988133008023178 10289.837487753375 17.109451914551308 0.269037235410705
0.8147549255371327 12.99067182954484 8957.328887491789 17.90682277212372 0.27286129919985885
0.8386381782807378 12.994119464801292 7808.464658005425 18.738743418898572 0.2767472932596175
0.8628181697137928 12.998401131337552 6815.600116269721 19.606545134881085 0.28069558181126114
0.8872922328700694 13.003343755564469 5956.144169894185 20.512319745926863 0.2847125816255143
0.912053960767491 13.008832222649817 5211.902800834115 21.457861124137914 0.28880130554236255
0.9370703434095039 13.014732880313398 4565.880962310185 22.44466152337192 0.2929617416823728
0.9623487358117646 13.020929854156176 4004.9255743506587 23.474729758257432 0.29719755788578345
0.9878726735567399 13.027323184311056 3517.0571388103485 24.550495703188208 0.30151491794104124
1.0136141921801594 13.033784477368126 3092.280707930097 25.67391098445031 0.305915523968035
1.0395767452415698 13.040234790213654 2721.8348363623536 26.846917708849425 0.31040049565114236
1.0657267012835034 13.04656802893618 2398.685591619958 28.07262130874423 0.3149786356075233
1.0920585735591275 13.05270371426721 2116.1237900303936 29.353086744021567 0.31965045945491066
1.1185557395115588 13.058528388398692 1868.9004998057894 30.691049080056587 0.3244205123381931
1.1451852688518915 13.063985567439332 1652.360230477591 32.0899293074937 0.3292969960840446
1.1719484211344233 13.069000120285773 1462.288901072641 33.55164383848769 0.3342774494436929
1.1988029755359115 13.073460681239204 1295.6204253327646 35.08074607197539 0.3393755153224752
1.2257471289499784 13.077325260595051 1149.2485322991763 36.67927299030241 0.344588040563567
1.2527417384472936 13.080494668995678 1020.3456266064321 38.35225749057154 0.3499293453519324
1.2797825846714532 13.08293601333854 906.8700335119046 40.10194080933413 0.35539602406032633
1.3068259365371009 13.084525626698463 806.8710392361933 41.93380829131746 0.36100271991310384
1.333862715377072 13.085238697784156 718.7352416794066 43.85130990079981 0.3667511769359776
1.3608701031413466 13.085036539015336 640.7156562219351 45.859177449150856 0.3726493928868427
1.3878001640562017 13.083777084812768 571.9066920964817 47.96272120345212 0.3787072012096806
1.4146562510362546 13.081486921860273 510.89539955981104 50.16666949356331 0.38493011289729534
1.4413797137311073 13.078037118139154 456.9685662197906 52.47629377275663 0.3913253711552666
1.4679733484335795 13.073442600577582 409.0870699075347 54.89798250906829 0.39790452804433873
1.4943814347759325 13.067580363845964 366.59287934664314 57.43792367434782 0.4046766414080027
1.5205928555714694 13.06043677477712 328.89390213154513 60.102743179790295 0.41165147891601367
1.5465758592395573 13.051954730503839 295.3417845180774 62.89954429822567 0.41883957650526793
1.5722918051068153 13.042076663512793 265.50819124367064 65.83595086058187 0.42625230159132826
1.597715790278439 13.030753061890723 238.96334487379536 68.92015460963174 0.43390192160900126
1.6228027584637439 13.017936430059905 215.27529406792232 72.16096714175269 0.44180167850873686
1.6475543877981924 13.003600747593838 194.12764023020355 75.56787692143234 0.44996586991138904
1.6719040356709565 12.987667745105348 175.26249417258146 79.15084780287683 0.45840883477009403
1.6958410214883641 12.970126076312482 158.3936751398025 82.92001073507245 0.4671435973648395
1.7193217134324468 12.950919011976508 143.30530821887382 86.88812728599953 0.47619182080487393
1.74230806505989 12.929982801788851 129.80267420496347 91.06681157630564 0.48556800080492313
1.764787914838585 12.907339733716249 117.70618292429832 95.47006958988611 0.49529373494036716
1.786715640935985 12.882909200452884 106.84772054328636 100.11164830033752 0.5053868664404267
1.8080547699892295 12.856658819217177 97.10291546179701 105.00802706188024 0.5158729264494054
1.828766805853896 12.828529901078797 88.34750390554534 110.1757413793582 0.526774444300658
1.8488469810340042 12.798570550486183 80.48069486514622 115.63237344311123 0.5381146281657853
1.8682338669078857 12.766668753291158 73.39373834746975 121.39821106244675 0.5499231173760573
1.8869043216281831 12.732825892304621 67.02145728759025 127.49462733347413 0.5622295425933587
1.9048279061980113 12.69701889420557 61.26712973333031 133.9441004599575 0.5750633510537594
1.9219723616513515 12.659208256464078 56.08384673762964 140.77220597900032 0.5884604772140541
1.9382875605633818 12.619328109375482 51.40158769142878 148.0066657821019 0.6024593671817478
1.953786221160255 12.577491793586091 47.1714845091994 155.6760359053966 0.617096002940738
1.9684048873643607 12.533572261671749 43.34771998750975 163.81388543920124 0.632417739561642
1.9821222891120678 12.487581457552675 39.88745663430529 172.45391152106328 0.6484659098006762
1.9949144560383023 12.43951358292838 36.75137853963913 181.63551613935812 0.6652940901336013
2.0067535191346297 12.38936115204082 33.90943030930333 191.4006234363899 0.6829564662684543
2.0176030571238894 12.337097812997506 31.332691036081016 201.79524892777764 0.7015122472647694
2.0274427101512584 12.282720207066134 28.99656206317215 212.86939005324228 0.721024306847327
2.0362554714771552 12.226264705420096 26.87382409520565 224.6783732803214 0.7415624954728091
2.044004786953366 12.167680302280244 24.94663892174805 237.28347632602484 0.7632043708213617
2.050667937951889 12.106985094917023 23.191675278206585 250.75146744215814 0.7860322659440953
2.05624404006546 12.044248994922565 21.596416879103565 265.1553616817586 0.8101341282114164
2.0606945739771816 11.979409767250331 20.145178705301024 280.5770425327236 0.8356101878535604
2.064004608089753 11.912522396757094 18.824604723841066 297.10601354467394 0.862566756688769
2.0661700287909257 11.84363388543065 17.621564483975277 314.8426863489494 0.8911245228313733
2.0671674301259952 11.772753070111252 16.526396902773254 333.8964842978084 0.9214095086236451
