M[M_sun], R[km], Lambda[1], P_c[MeV/fm^3], rho_c[fm^-3]
0.24162668629717493 15.618656898711224 2160425.4255784233 3.5677272577965504 0.1711233750220791
0.25364501059809663 15.277269099746773 1723268.362728959 3.7848388330457072 0.17388841270893685
0.26604183722436187 14.981233466328337 1382995.6994285348 4.011441905557472 0.17666714958695695
0.27881786118369667 14.72345919636457 1116454.5670851367 4.2477919700166815 0.17945825368521548
0.29197378008802854 14.498350977685213 888681.8505470498 4.494514461736746 0.18226829580837295
0.30551092190494533 14.301154863457208 738573.723470348 4.751765760272285 0.18509299738071902
0.319428484584638 14.128050742978475 605025.3944781774 5.020226932549037 0.18793895036113817
0.3337259664164432 13.975936371340731 497672.4771799987 5.300123669778901 0.1908028096983999
0.34841027321859735 13.841949225061049 410958.42827444227 5.59218277188433 0.1936908351248687
0.3634746434272826 13.72390048185074 340620.85633567284 5.896573833494186 0.19659813228379086
0.3789282263183832 13.619953678403919 283258.8250263543 6.2141600262268275 0.1995323626173792
0.39476293210359387 13.528389912478461 236380.24543201752 6.54519653280852 0.20248966455887268
0.41098968733275293 13.447797932465377 197834.8627779096 6.890390282181943 0.2054738256009916
0.4276007776992243 13.376970062799552 166049.76054908457 7.250444490021916 0.20848788385255837
0.444596339790338 13.31488226247967 139777.01395975956 7.625615042529957 0.21152733622016506
0.4619795116573291 13.26050844474329 117958.10672683189 8.016857175428598 0.2145984403792145
0.4797462840371516 13.21309714659254 99792.42901801638 8.424873230385822 0.2177027983746016
0.4979059451631093 13.171925870415139 84625.87942973411 8.850100022480628 0.22083781888130674
0.5164456751213071 13.136351775462572 71923.49773274084 9.29341903137791 0.224007024470103
0.5353664380421796 13.105803391420459 61262.56573090825 9.755711531451269 0.22721327995590657
0.5546739981679603 13.079772059559394 52291.69823385554 10.237786501743848 0.23045792549981092
0.5743594214842569 13.057806177367809 44718.823424090544 10.740111682894522 0.2337376133479016
0.5944182959897475 13.039510235767617 38318.683894020876 11.263941383899509 0.23705865038078794
0.6148579349494724 13.02447336964098 32893.25132274374 11.810208675466203 0.24042259000874028
0.6356638248674261 13.012414244908527 28283.62590192293 12.379892905569667 0.24383106579726158
0.6568366331117783 13.003011103729266 24364.282569227977 12.973675008647273 0.24728193588469063
0.6783703549545688 12.995965317068983 21021.76662252555 13.592898138225229 0.25078016727651903
0.7002613138481164 12.991056159654875 18166.850122697393 14.238752688030194 0.2543283097233891
0.7224982323804423 12.98799041772791 15723.92285931618 14.912428793219378 0.25792834870090586
0.7450878644616139 12.986640774592365 13629.661095396004 15.614944399433321 0.26158006127385885
0.7680111457776876 12.986753021673698 11832.407983113615 16.347589516545376 0.2652855785152527
0.7912584880044922 12.988149204341688 10286.726096702547 17.11196945175755 0.2690494773416294
0.814835834694859 12.990672588033966 8953.214793141318 17.90953983979234 0.2728741914916668
0.838720290756391 12.994137952545259 7805.014348063753 18.741647965352115 0.27676063814771884
0.8629034353787824 12.998409522864154 6811.745216609803 19.609674928873932 0.2807096232230493
0.8873872565383121 13.003380094337853 5953.36363756408 20.515689852494585 0.2847273499550374
0.9121452250699988 13.00885762908454 5209.2279180206215 21.46148763999325 0.2888168332330633
0.9371675896782247 13.014763905944887 4563.549882293475 22.448529341126157 0.29297780639532245
0.9624538341833786 13.020967374160357 4003.0668299241306 23.478887419771464 0.2972144433845535
0.9879763098373969 13.027353535938511 3515.1936694636847 24.554962780035133 0.3015326635167331
1.0137213356360542 13.033804581232387 3090.645489422439 25.678670184326688 0.3059338906369281
1.0396877337312922 13.040267254903108 2720.3752909280306 26.852027218285137 0.31041979845772344
1.0658409826288469 13.046598262158097 2397.2285573511886 28.07810504743687 0.31499892234145976
1.0921758647581963 13.052723765329112 2114.7623340853524 29.358925275562857 0.3196714745835827
1.1186760131398499 13.058554784486319 1867.5715705368632 30.697312115963374 0.3244426056031889
1.1453098263790948 13.064019148677824 1651.272158518842 32.09659640532533 0.3293199035755114
1.172075804170068 13.069017261672332 1461.426807929778 33.55879320864174 0.334301543558243
1.1989332291994055 13.073477186998735 1294.8576258817782 35.088411461074244 0.3394008626861334
1.2258816408860713 13.077346002823727 1148.5647915587542 36.68743215257344 0.3446143607580422
1.2528800834039586 13.080505915638012 1019.7164602832731 38.36094993256342 0.3499567343874477
1.2799240552934845 13.08294258342812 906.3026427375534 40.111252481321756 0.3554248312626274
1.3069698866159571 13.084525526353877 806.4196474761652 41.943723310549785 0.361032694518362
1.3340081145867595 13.085240060042253 718.2692824605932 43.86193944044117 0.36678277342498483
1.3610186455329423 13.085033099014675 640.3228661654572 45.87049923518919 0.3726823151026938
1.3879509540325352 13.083766823043373 571.5468811035755 47.97478359857407 0.37874153468002353
1.4148023940254448 13.081458536899786 510.59293753015146 50.1796047774049 0.3849663589881172
1.441534280673012 13.078014630438172 456.67450450691825 52.490081409346786 0.39136322683956215
1.4681301183356004 13.073413924823907 408.8266971081624 54.912683553802594 0.39794410061283825
1.4945407019939696 13.067541608956466 366.35267878502816 57.45360412844907 0.40471804644600057
1.5207528918138877 13.06039116448058 328.69509849509393 60.11947443314742 0.4116948409845764
1.5467369505773203 13.05189686277453 295.1477495459951 62.917403616423066 0.41888502988995907
1.5724541375452874 13.04200893484374 265.3311908999802 65.85502192104032 0.426299991125694
1.5978681480918595 13.030668730784704 238.79821971051504 68.94052809238002 0.4339520035809107
1.622966951270891 13.017845248253485 215.13229561863332 72.18274138102895 0.4418543216586382
1.6477186668159967 13.003497329641341 193.9900992842365 75.59115862508354 0.450021256532638
1.672066636435408 12.987556674707292 175.14280856622506 79.17563126582021 0.4584666543055997
1.696003278848015 12.969996005230065 158.2851816968053 82.94653778211797 0.46720455644169084
1.7194837939875842 12.950778404533429 143.20783610138255 86.91653448446155 0.4762561491327828
1.7424648117966788 12.929827187790346 129.72000580981836 91.0971107499758 0.4856354053136143
1.764947187187652 12.907170468372037 117.61387445684771 95.50255265095943 0.49536501002947714
1.7868730419927796 12.88272969103401 106.76492181190105 100.14634353364855 0.5054617372487019
1.8082098296232623 12.85645963709733 97.03516991516177 105.04511439651635 0.5159516814822432
1.8289233020994509 12.82832375469695 88.2860137509914 110.21541707538594 0.526857395627009
1.8489954655961065 12.7983348353946 80.41954671102292 115.67501386917012 0.5382027085719431
1.8683690258921701 12.766387201653146 73.34589362970667 121.4438938056237 0.5500161107003078
1.8870450518244597 12.73255733733604 66.97278643215562 127.54349798595646 0.5623274519836404
1.9049671141148277 12.696727317969172 61.22491193350024 133.9964814573537 0.5751667674067749
1.922105818643359 12.65889762997231 56.04499636357746 140.82846728997066 0.5885700956429196
1.938416719490511 12.618997302324185 51.36362875424573 148.06714436140624 0.6025757007380367
1.9539104714269853 12.577138343693086 47.13977254471619 155.74090261780705 0.6172189318540053
1.9685225137297375 12.533199876316857 43.31909957926277 163.8835334142153 0.6325478425577833
1.9822341567556534 12.487185057522941 39.85911819995287 172.52898211779987 0.648604519449501
1.9950175971417874 12.439094273240782 36.72605275306593 181.71628151895092 0.665441205392405
2.0068509029498323 12.388919798550592 33.88520443706711 191.48760813406813 0.683112839702695
2.0176936260016136 12.3366310351798 31.312825911539225 201.88903157062538 0.7016787022049292
2.027525572828566 12.282236436077676 28.976834991589634 212.9703731006316 0.7212009706471108
2.036330285119369 12.225750814191302 26.85637404906417 224.78749153107515 0.741751108966974
2.0440701780311703 12.167142985750631 24.930390156441913 237.4012614290137 0.7634052052418816
2.0507185610725793 12.10642176391611 23.17129091606237 250.8787704603214 0.7862464684351554
2.056290702021621 12.043657412625228 21.58358893498814 265.2933470118577 0.8103636770210811
2.0607316346423445 11.978792414283054 20.132754796445752 280.72631865875996 0.8358550354439741
2.064030998634988 11.911881612340395 18.812832743077365 297.2679678884779 0.8628291517448914
2.066185279012899 11.842965269639791 17.61064220205035 315.0186195676073 0.8914061573110437
2.067171045687391 11.772059615700424 16.515820490660545 334.0875568912458 0.9217112925222084
