M[M_sun], R[km], Lambda[1], P_c[MeV/fm^3], rho_c[fm^-3]
0.24162668629717493 15.618656898711224 2160425.4255784233 3.5677272577965504 0.1711233750220791
0.2536376377091681 15.277437840496018 1723358.205683042 3.784717672440622 0.17388690250044428
0.26602789246954905 14.981529814029212 1383190.3698445312 4.011187205450746 0.17666407168648088
0.2787970955159888 14.723834303888824 1116730.0266455808 4.247395117281112 0.17945365079152717
0.29194473868266374 14.49878799576638 906239.9138818842 4.493965046558884 0.18226217794285485
0.3054732842704298 14.301694584301897 738994.3999662866 4.75104513199725 0.18508521322000893
0.319382914794509 14.128561980223852 605378.096673034 5.019329786970641 0.18792964212949592
0.33367252601644876 13.976406238455121 498021.80496567534 5.299026392895631 0.19079176194089698
0.3483454079722164 13.842493022632539 411296.6312540593 5.590882628309812 0.19367825587812806
0.36339888279448634 13.72445258834471 340919.7058462191 5.895041620140436 0.19658374141172152
0.37884455390951055 13.620436964152482 283545.35202304285 6.2123772073955745 0.19951610545629178
0.39466609471728054 13.528905823639997 236626.5693122153 6.543164963742844 0.20247185044268207
0.4108814817918522 13.448301396749235 198068.18245340235 6.8880707521485505 0.20545407150987421
0.4274788563372942 13.37747272427332 166262.11957887607 7.247815240438789 0.2084661327445761
0.44446446323530636 13.315302085475683 139962.3473353776 7.622683344254031 0.2115039980168129
0.4618356775483106 13.260926861511887 118116.27147680712 8.013571904064383 0.21457302614918447
0.479588820203911 13.213519035299013 99934.08921862142 8.421208777067523 0.2176752468084598
0.49773447678880806 13.172296408540475 84754.20364365196 8.84606990180041 0.22080863908564388
0.5162603613937845 13.136689790893417 72041.33553332639 9.288958038538036 0.2239756188023998
0.5351664743238608 13.106100014544753 61363.31838601462 9.750789430828693 0.22717958064962473
0.5544616298325812 13.080049755787366 52381.333260764644 10.232372091604086 0.230421873037095
0.5741282463508242 13.058030440608222 44798.219019875265 10.734226752925766 0.23369983027457905
0.5941774808194993 13.039712303627448 38388.56981635903 11.257498325748461 0.23701839403686467
0.614597838058719 13.024646197380727 32677.559040928958 11.803169440903392 0.24037977971789484
0.6353861415485044 13.012543975607956 28339.831988365433 12.372217073241224 0.24378561662447532
0.6565402014397588 13.003098928292303 24415.695241273665 12.965397826245791 0.24723462690430215
0.6780621568430134 12.99604730248694 21066.42640837365 13.583902099062502 0.2507300797406441
0.6999342623631981 12.991122271712689 18206.619460614165 14.228989575317986 0.25427534436043653
0.7221535588874157 12.988028591836285 15758.96442811054 14.901847292921511 0.25787240032010433
0.7447264192296147 12.98666234432615 13660.42944466546 15.603593118712677 0.26152204105641697
0.7676317334392334 12.986736872123265 11858.844022562218 16.33531477933034 0.2652243920288461
0.7908613899262531 12.988112913955014 10310.07691044627 17.0987096778795 0.26898499955139654
0.8144189645209642 12.990613525949454 8975.424901692468 17.895229367400034 0.2728062893234131
0.8382856018527265 12.994074098956114 7823.4426171367395 18.726350257508628 0.27669035309542467
0.8624505541070567 12.998331934311189 6829.311938252567 19.593191139778725 0.28063567085716085
0.8869103880154535 13.003270182230539 5968.774816568011 20.49794067813841 0.2846495703209556
0.9116538541787147 13.008746519634425 5192.157586097855 21.442388347167043 0.2887350555920882
0.9366582372203467 13.014630613705444 4576.062033038086 22.42815947466916 0.2928932015669033
0.9619201366678629 13.020831546260368 4013.807377469981 23.456991437947753 0.2971255172964373
0.9874290830242978 13.02721580779232 3524.9162149936815 24.531437663649516 0.3014392093972302
1.0131574276544917 13.033672112503787 3099.353603748459 25.65360697476015 0.3058371668843092
1.0391026574235125 13.04013304461348 2728.2036473731164 26.82511962155253 0.3103181464025064
1.0652415189069706 13.046461849628496 2404.1598079715745 28.049227164336045 0.3148920904948038
1.0915533877961465 13.052586717516903 2121.0256278753054 29.32817942736507 0.3195608084081177
1.1180357641036018 13.058422666369838 1873.338753985344 30.664331366684 0.3243262638730066
1.1446521750093728 13.063883431993457 1656.2403630433769 32.06136988940705 0.3291985093359932
1.1714000282279105 13.068901333041143 1465.947777489346 33.52114622864157 0.3341746693540763
1.1982460070632688 13.073378594376514 1298.97648145719 35.04804793558117 0.3392673914499043
1.225172552589722 13.077255908212337 1152.1365627441214 36.64446917644461 0.34447576884757636
1.2521545123519202 13.08042850900436 1022.959452678027 38.314947775631865 0.3498111563541062
1.279183213306886 13.082886182094215 909.2175698552247 40.06222241055148 0.3552731486035525
1.3062146126463283 13.084490497121761 809.0110410959943 41.89151711694113 0.36087486728587936
1.33323817230861 13.085227623874692 720.5737915611645 43.80597206287599 0.36661640943466484
1.3602353079889493 13.08505040024473 642.499169206002 45.81088790085589 0.3725089734400402
1.387155555604204 13.083821524308881 573.4514054469153 47.911273801316874 0.37856076529562094
1.4139932969857538 13.081540206255895 512.3595763359436 50.111500434675555 0.3847755231145359
1.4407234814984808 13.07815371725104 458.2155492187652 52.41749059183549 0.3911639196521051
1.4672984346137694 13.073562026787073 410.24677971361024 54.8352849845494 0.3977357575842378
1.4937044180654326 13.067745325784221 367.6256996250836 57.37105051387218 0.4045000594204751
1.5199092665503608 13.060646348313174 329.8107475693853 60.031390134425244 0.4114665545962847
1.545887475293744 13.052198958245794 296.19000271776906 62.82338208859528 0.4186457376265944
1.5715990097530548 13.042361811489531 266.2767056328619 65.75462289396994 0.4260489309991638
1.597014145540891 13.031075887764844 239.6445461868019 68.83327446457008 0.4336883533625594
1.6221084665198862 13.018308131850128 215.89470745424967 72.06811579372611 0.4415771936314152
1.6468571640024388 13.004026627527153 194.70306369223874 75.46859968006198 0.4497296917068723
1.6712116544471753 12.98815503369881 175.7821636930003 79.04491503880352 0.4581612265937251
1.6951363651650584 12.97064915234833 158.87354472577218 82.80689987940742 0.4668836689479535
1.7186308844765072 12.951516654550488 143.73019794810105 86.76700258284399 0.4759175329467144
1.7416297641165852 12.930663938997522 130.19734479486004 90.93762259320594 0.4852806028702816
1.7641113965919266 12.908073335310112 118.05424098772419 95.33157270295862 0.49498984184559613
1.7860424784218458 12.883703103136352 107.1670472659096 99.9637229441164 0.5050676499392615
1.8073860955641052 12.857502273217946 97.39315975518896 104.8499066845449 0.5155371574967005
1.8281234362401158 12.82948081440097 88.61787849926861 110.00598177474966 0.526418529571983
1.8482069296014934 12.799571714580827 80.72095346059747 115.45058766462051 0.537739121476873
1.867607713610799 12.767747122323032 73.61546089454879 121.20346042257994 0.5495266764414359
1.8862950384503272 12.733987312644222 67.22205388251865 127.28581922539564 0.5618104663865543
1.904235563381416 12.698257866296768 61.45243815114796 133.72079225218906 0.574622449612572
1.9213881914736535 12.660502086582687 56.253684390001574 140.53237747665412 0.5879932000893137
1.9377364702271749 12.620740514573761 51.55830933113672 147.74886794778658 0.6019634802212003
1.9532562279116399 12.579001388374747 47.31234879065618 155.3995408694788 0.6165720171701305
1.9679060306879994 12.535183359645153 43.477900395775514 163.51625570693568 0.6318606063110127
1.9816495050791891 12.489280762487498 40.00513106838952 172.1339424669702 0.6478751219269859
1.9944786771352014 12.441336124092976 36.85962521905101 181.29128540772902 0.6646670690829095
2.00632955069865 12.391231911553287 34.00982867921933 191.02989745224454 0.6822900077205667
2.0172133193959003 12.339078342327616 31.427576683220412 201.39556391281326 0.7008028457888833
2.0270870509220242 12.284802426958628 29.081928558357742 212.43870550497687 0.7202703509376164
2.035939607460292 12.22845776126397 26.952334350369913 224.2133626987385 0.7407587136122111
2.043724940835962 12.169983054259262 25.01707848340076 236.78143245043222 0.7623481581828555
2.0504281852118735 12.109397576295645 23.25903399458781 250.20792673473696 0.7851160016029102
2.056039277017921 12.046744596103508 21.65699122283657 264.56722092951253 0.8091554278294214
2.0605329010390094 11.982020872756571 20.2025436568439 279.940094386678 0.834563982848147
2.063892785293152 11.915265766645868 18.87575231607244 296.41597238369775 0.861448766365643
2.0661039134055517 11.846484427460007 17.66866851171658 314.0931174178853 0.8899246104016018
2.0671484351334297 11.77571732739993 16.569256918423513 333.0824480728102 0.9201238034310153
