M[M_sun], R[km], Lambda[1], P_c[MeV/fm^3], rho_c[fm^-3]
0.24162668629717493 15.618656898711224 2160425.4255784233 3.5677272577965504 0.1711233750220791
0.2536439404220803 15.277300858415671 1723291.5230270752 3.784818929211997 0.17388816461725157
0.2660398595424018 14.981261798925663 1383045.418325089 4.011400063534793 0.17666664395080633
0.27881470339761055 14.723524026409226 1116452.1303492666 4.2477267740268125 0.17945749750998125
0.2919689651040002 14.498440445352232 905931.0728673594 4.494424200783172 0.18226729073170642
0.3055044691134945 14.301221521596196 738664.1752174566 4.751647369342702 0.18509171853272705
0.3194204719975006 14.12814081155644 605149.347286422 5.020079539333877 0.18793742109964232
0.33371970861056527 13.975917091883474 497673.9118313531 5.29994339354733 0.19080099461588035
0.34839954775405585 13.842038888872755 411012.86908127356 5.591969162313929 0.1936887683935131
0.3634620922364401 13.724035047095361 335718.26195967244 5.896322091232197 0.19659576786719193
0.37891535337346316 13.620007171173626 283305.681033557 6.2138671045316745 0.1995296915242201
0.39474740115324086 13.528462016664799 236407.42729950257 6.544862735591653 0.20248673760821873
0.41097186426927484 13.447905178586085 197870.2793043362 6.890009165101532 0.20547057984800524
0.4275787327834985 13.37708361478156 166059.07332173357 7.250012476365675 0.2084843099142959
0.44457460067928384 13.314931759466237 139807.1066180436 7.625133326139316 0.21152350144795296
0.4619557447311301 13.260579006244203 117981.06881174365 8.016317353490962 0.2145942644200996
0.47972038254285637 13.21315758544122 99816.10904171255 8.424271093028901 0.21769827114345014
0.49787684357920514 13.17199365088972 84647.69833727351 8.849437789713859 0.22083302403312502
0.5164147924412987 13.136414707185855 71942.59407238453 9.29268598552175 0.22400186378157555
0.5353337718516522 13.10584515702578 61279.50542660064 9.7549027017605 0.22720774227970505
0.5546391813840752 13.07983228273752 52302.14866164582 10.236897486047368 0.23045201039872515
0.5743220081077592 13.057843324556382 44731.42360725883 10.739144606384132 0.2337314044171421
0.5943785740105924 13.03952733025644 38330.09953348619 11.262882572799679 0.23705203490987564
0.6148149042240497 13.024506928977802 32902.297869938426 11.809051874181986 0.24041555472685192
0.635619766916323 13.012446138349787 28293.95150253596 12.37863146820793 0.24382359673304033
0.6567886635202209 13.003015759370165 24372.342639484836 12.9723147279705 0.24727416107815156
0.6783204943931305 12.99598081842039 21029.099482177226 13.591419696555269 0.25077193570939893
0.7002073547755837 12.991069951332012 18173.824400481433 14.237148157369264 0.2543196050662444
0.7224419406038862 12.987991540850535 15730.48890660268 14.910689736145937 0.2579191536506161
0.7450285487090992 12.986643821884485 13634.556861598654 15.613078805441353 0.26157052559486926
0.767948935414112 12.98675935154171 11755.469968250336 16.345572119668542 0.26527552229780227
0.7911927358640689 12.988142835102192 10289.517710005433 17.10979012600802 0.269038880018491
0.8147655609579758 12.990675429850333 8956.803195708164 17.907187787796264 0.2728630311731252
0.8386496119691852 12.994128819466303 7807.866496519609 18.739133619803724 0.27674908603088133
0.8628275413728592 12.998401408472033 6814.9227041306085 19.60696559453787 0.2806974681485711
0.8873091481794204 13.003350474439863 5955.540215048571 20.51277248798273 0.2847145656114019
0.9120640237865816 13.008853512992655 5211.540212758747 21.458348310814287 0.28880339153462786
0.9370840299794557 13.014733727870054 4565.57962557295 22.44518112523957 0.29296389981271465
0.9623614987350991 13.020935610255595 4004.6238462399488 23.47528829588192 0.29719982627303415
0.9878866727725276 13.027328792090435 3516.764693470875 24.551095805528767 0.3015173018627583
1.0136281668693607 13.03378687297403 3092.01432411464 25.674550328609932 0.3059179913202777
1.0395930687693398 13.04023725086519 2721.6447191245966 26.847604110842326 0.3104030887542714
1.065742671475203 13.04656742207946 2398.499203915736 28.073357981555244 0.31498136088058115
1.0920753089331579 13.052697771937666 2115.9949407076447 29.353871076777473 0.31965328257124914
1.1185712967804593 13.058537225447788 1868.7547356578737 30.69189043675466 0.32442348027846407
1.1452020476482712 13.06399594400503 1652.162741218914 32.090824942152004 0.3293000733965141
1.171965260537326 13.069000032716783 1462.167949405413 33.55260425661516 0.33428068615180573
1.1988206499116523 13.073456489816522 1295.5147246191796 35.0817758064534 0.3393789203752323
1.2257660153263723 13.077327934756745 1149.1727751363212 36.680369052961915 0.34459157629203974
1.2527610934344617 13.080491016208136 1020.2583515041699 38.35343072138936 0.3499330571123013
1.2798016345675343 13.082931657724632 906.7710116879882 40.103191686467625 0.3553998938562863
1.3068456938342075 13.084522993188157 806.7861321927807 41.935140214722075 0.3610067465193415
1.3338822093091929 13.085232418724528 718.6566192237282 43.8527378032177 0.36675542140042033
1.360889439161147 13.085032951673117 640.6801926440818 45.86069833870388 0.3726538154270656
1.3878204351886392 13.083775602035162 571.8414330133902 47.96434157615956 0.37871181331347364
1.4146775003105259 13.081487889995792 510.86876035928094 50.16840711690327 0.38493498190938397
1.4414001088581674 13.078036016515092 456.92255318924305 52.47814588835515 0.3913304563707724
1.4679946083892395 13.073437234950712 409.05435537903327 54.899957317690195 0.3979098438739873
1.4944026342777041 13.067575250935707 366.5610924207848 57.440030041021174 0.40468220337652633
1.5206145179536386 13.06043152522725 328.86610530592776 60.104990693278495 0.4116573037536329
1.5465978923489847 13.051946565407418 295.3154253738655 62.90194333643359 0.4188456822482391
1.5723135882112524 13.042069069291992 265.4864348717823 65.83851266255826 0.42625870769253366
1.5977376590754522 13.030743204851024 238.92775847503668 68.92289135490606 0.4339086490596608
1.622829985132622 13.017920261119386 215.1558396570803 72.16389203784166 0.44180874997246533
1.647576266956413 13.003586695701541 194.11381127036105 75.5710043004498 0.44997330987195794
1.6719259618172433 12.987654456903137 175.24908392562486 79.15417689879777 0.45841660151279023
1.6958633903927904 12.970109698858392 158.3797660258364 82.92357402740039 0.46715178580023115
1.7193434209876384 12.950900476198008 143.29309610667556 86.89194311700456 0.47620046178467573
1.7423294208082143 12.929961534013554 129.79036466427436 91.07088153432188 0.4855770549634116
1.7648091321522281 12.907317917606377 117.69044607240531 95.47443288091654 0.49530330897516345
1.7867358055553706 12.882885088434563 106.83634806958186 100.11630872358143 0.5053969234316004
1.8080751087197926 12.856632580394106 97.09271650643922 105.01300878319691 0.5158835051450634
1.8287858594708524 12.8285021504373 88.3398847999005 110.18107075780672 0.5267855866133379
1.8488662042448754 12.798540645560733 80.4715159328254 115.63810102649671 0.5381264593766226
1.8682525153859195 12.766636714554132 73.38601307459827 121.40434727146405 0.5499356084489467
1.8869234202029481 12.73278964472074 67.01552110888561 127.5012066179321 0.5622427471647687
1.9048464656020672 12.696979928753228 61.261621473350054 133.95113633252785 0.5750772420508323
1.9219903010865134 12.659165848354716 56.07976722707514 140.77976302275238 0.5884752012090817
1.938305472640229 12.619295809745166 51.396968990309716 148.01478925038109 0.6024749930771506
1.9538026498241559 12.577444479958116 47.16700858777373 155.68474874631357 0.6171125146464433
1.9684202933830248 12.533525244660416 43.342122707356374 163.82324045012479 0.6324352147997927
1.982137633444585 12.487527113824257 39.88367097217975 172.46399483455883 0.648484527536559
1.9949270101077403 12.439458469031665 36.747895030440695 181.64636430696504 0.6653138502213157
2.006766771813246 12.389301619716187 33.907235803187525 191.4123069015052 0.6829774697738141
2.017615851720508 12.337034937673506 31.330627637772622 201.80784539748504 0.7015346047559607
2.027453892365548 12.282654639965992 28.99396193725764 212.88295357728566 0.721048035421161
2.0362668209675365 12.226195651610066 26.872797352426502 224.69302939480576 0.7415878289156078
2.0440144131904443 12.167607465712006 24.944985088538285 237.2992964290316 0.7632313455502476
2.0506753994662157 12.106908336117153 23.190193065121512 250.76856582438734 0.7860610360087759
2.0562512599691796 12.044169392474986 21.595856659491997 265.1739003348719 0.8101649776072699
2.060699968905909 11.979326960394909 20.14256996409266 280.5970919201442 0.8356430735153842
2.064007814084098 11.912434993675378 18.82287142779403 297.1277656050055 0.8626019989240645
2.06617203833753 11.84354422761667 17.62058713047916 314.8663157425654 0.8911623488430085
2.0671690893080705 11.772660291303223 16.525035765966578 333.9221468651488 0.9214500405988478
