M[M_sun], R[km], Lambda[1], P_c[MeV/fm^3], rho_c[fm^-3]
0.24162668629717493 15.618656898711224 2160425.4255784233 3.5677272577965504 0.1711233750220791
0.25364444845481565 15.27725944017596 1723216.5896096372 3.784828436844489 0.17388828312530397
0.2660402285325404 14.98126051530017 1382934.893813378 4.0114200505285 0.1766668854818298
0.2788168299178239 14.723474123985769 1116404.726914988 4.247757916627073 0.17945785871721337
0.2919711970388219 14.498384055488271 905830.6038722016 4.4944673162515505 0.1822677708324534
0.3055090781198685 14.301142159536173 738612.1378150505 4.751703921713184 0.18509232940626008
0.31942399438586333 14.128119688369479 605084.3029643613 5.020149945243172 0.18793815158812543
0.33372335538853193 13.975925802749904 497673.2542734913 5.300029506663045 0.1908018616320681
0.34840466344496523 13.84199674533017 410987.68440001213 5.5920711976981385 0.1936897556139243
0.3634664499604332 13.723981253049788 340659.42235899996 5.896442341335511 0.1965968972816099
0.37892246281800007 13.619997292836873 283294.9339382834 6.214007024630382 0.19953096742704554
0.39475450945634866 13.52842326309193 236386.57897483083 6.545022180471573 0.20248813572441612
0.41098042490927733 13.447847553970043 197853.41555490135 6.890191212941564 0.20547213024380434
0.4275903947563003 13.377024363304068 166063.72293915707 7.250218835571869 0.2084860170711234
0.44458487487766457 13.314919135149335 139790.67730736695 7.62536342641042 0.2115253331940649
0.4619671574975655 13.260549421494986 117976.07553036092 8.016575208459606 0.21459625913674885
0.47973271273735546 13.21312849295243 99802.76456819323 8.424558713516143 0.21770043364742814
0.49789031815471857 13.17196457882842 84636.0541647527 8.849754115263151 0.2208353143652574
0.5164290801517256 13.136390830831925 71931.75906406494 9.293036135440014 0.22400432885882943
0.535347457893966 13.105838085672488 61270.439344484505 9.755289050281855 0.22721038742618843
0.5546566034494234 13.079790304389109 52300.369799378685 10.237322551680059 0.2304548411700202
0.5743399467370321 13.057824863513304 44725.48493850546 10.739606542241514 0.23373437018843632
0.5943961497360006 13.039518141205994 38319.15031323024 11.263388325974338 0.23705519486486318
0.6148358343770776 13.02448767201346 32898.01157586931 11.80960443258328 0.2404189152038551
0.6356403135432657 13.012425370760909 28288.984200300376 12.379234006160154 0.24382716440496555
0.6568116851779964 13.003008162169907 24368.20130203977 12.972964478513408 0.24727787478581206
0.6783442126144006 12.99597220035616 21025.504746843722 13.592125886635756 0.25077586758656745
0.7002333400877457 12.991053151350323 18170.510606542044 14.237914573671834 0.2543237629120908
0.7224682889661118 12.988007049066486 15727.838127326922 14.911520408665515 0.25792354572935144
0.745058099715076 12.986648901505024 13632.285645959539 15.61396991798867 0.2615750803711129
0.7679792282839436 12.986757988797718 11835.077620354428 16.346535740240032 0.2652803257046668
0.7912248132971317 12.988138023155631 10287.65984874651 17.11083109108815 0.26904394187917535
0.814798907120318 12.990672090572595 8955.164499383178 17.908311254533697 0.2728683619424626
0.8386843134125009 12.994121530462747 7806.570814913917 18.74033460507889 0.2767546039368142
0.8628648386100951 12.99841312777575 6813.313230245977 19.608259714709778 0.2807032740496236
0.88734672160832 13.003354140270277 5954.617064182153 20.514165971973597 0.284720672074313
0.912102736223719 13.008862517684925 5210.480122792821 21.4598478141029 0.28880981197347305
0.9371238285298188 13.014743098824837 4564.499888915651 22.44678040128741 0.29297054229492764
0.9624086204122428 13.020951040634493 4003.9686926178306 23.47700741530436 0.29720680812780886
0.9879299524918739 13.02733664028069 3516.01454294692 24.552942860515437 0.30152463933538215
1.0136723662016425 13.033797420033821 3091.516240988041 25.676518169258035 0.30592558559632343
1.0396380234919727 13.040249063648506 2721.0266773801823 26.849716795429572 0.3104110700962119
1.0657898998870647 13.04658018312835 2397.7794982960177 28.075625400032465 0.3149897490474775
1.0921225616764263 13.052712336743463 2115.291040580636 29.356285192761796 0.31966197190651796
1.1186216926807215 13.058547562859069 1868.2937109676827 30.69448007358952 0.32443261539020335
1.1452530369810312 13.064001896383282 1651.8376742457617 32.093581647524196 0.3293095451646484
1.172016782864642 13.06902048823592 1461.7793236949665 33.555560367753365 0.3342906485511293
1.1988749246263755 13.073473225925722 1295.1980833201653 35.08494527628943 0.33938940095273484
1.2258207775608518 13.07733383778951 1148.8791243391831 36.68374268361723 0.34460245910230697
1.2528174827768654 13.080493719777976 1019.9955702299845 38.35702220450749 0.34994436634833725
1.2798614140990778 13.082937187570135 906.5955733271261 40.10704184484571 0.3554118049600533
1.3069046052295097 13.084522163284971 806.6123272628407 41.939239838573236 0.3610191403033339
1.3339423879603698 13.08523542627958 718.4552643749396 43.857132858201474 0.36676848577678717
1.3609513930459942 13.085035165903594 640.491142821552 45.86537961536121 0.3726674279436818
1.387882723095861 13.08377028155568 571.6916401934133 47.969329070482026 0.3787260093323136
1.4147405076275255 13.081477739029186 510.7138060977923 50.17375552091816 0.38494996872683995
1.4414644752946573 13.078025991000972 456.7982279324238 52.48384671127151 0.39134610869458697
1.4680589383212528 13.073425758998651 408.9414457259676 54.90603580327535 0.39792620606399076
1.4944684854275352 13.067559814487849 366.4644632215006 57.4465134778776 0.4046993232218869
1.520679695509269 13.060412843287734 328.76549217022006 60.1119085979294 0.41167523275449014
1.5466645488561312 13.051922721533508 295.2349125234226 62.909327654677746 0.4188644759252498
1.5723811793469202 13.042040016988494 265.41400599024865 65.84639799112766 0.42627842592732273
1.5978050137938737 13.030708873273978 238.87530738749567 68.9313151857105 0.43392935646952935
1.6228933068550415 13.017883975438766 215.1884870107422 72.17289502736055 0.441830516323096
1.6476441057046616 13.003544285259487 194.05866408883495 75.58063056715403 0.449996210532321
1.6719938607184677 12.98760813567937 175.19198406653766 79.16442408417923 0.4584405080790498
1.69593011156349 12.970054660874393 158.3343795418885 82.93454211372507 0.467176990430661
1.7194106003127982 12.950842138538126 143.2485176913154 86.90368856780876 0.4762270594518755
1.7423888776167202 12.929887705936816 129.75337416860137 91.08340923845844 0.4856049244938333
1.7648751191712606 12.907248482391559 117.6537863256486 95.48786352840204 0.49533277881466453
1.7868022450971643 12.882810185694353 106.80580140778503 100.1306540090532 0.5054278799352959
1.8081395474867605 12.856549195625176 97.06705311589836 105.02834309770354 0.5159160675940603
1.8288488993382122 12.828411419414412 88.3131546176857 110.19747524418378 0.5268198840306316
1.8489280038627551 12.798442411917584 80.44716461743569 115.65573129145757 0.538162877420295
1.868303842116158 12.766500260024335 73.37230960289273 121.42323539329044 0.5499740577432608
1.886981993918572 12.732678302715962 66.99493359476007 127.52142629067906 0.5622832772330416
1.9049054318545342 12.696858444672415 61.24515693723832 133.97279386531144 0.5751200007451513
1.9220454012637525 12.659038631831807 56.0631474430638 140.8030248747793 0.5885205241428654
1.938359326791329 12.619147019189155 51.38211240637071 148.03979473184756 0.6025230923648517
1.9538540751717768 12.577300158302444 47.15529271392945 155.71156850027333 0.6171633407648923
1.9684694461066554 12.533366724458084 43.33193899041602 163.85203701125815 0.632489007015306
1.9821834808981016 12.487362080442173 39.87138137629314 172.4950333627481 0.6485418367851781
1.9949714723992285 12.439284351228304 36.73864363679309 181.67975732424625 0.6653746760653139
2.006806689422335 12.389120065546184 33.89731528811539 191.448271268666 0.6830421233479869
2.0176523989836053 12.336841711430313 31.320788493952037 201.84662033796815 0.7016034264504858
2.0274879606670795 12.28245398118266 28.985670677944952 212.92470548238495 0.7211210778811951
2.0362966320140403 12.225984443504124 26.86441786008163 224.7381447373496 0.7416658118592389
2.0440405665360477 12.167384759183248 24.937615124438747 237.3479950100864 0.7633143811044739
2.0506929184582185 12.106677435711772 23.178413619551645 250.82119949756776 0.7861495984330731
2.056269883262224 12.043924238712743 21.58973892527174 265.2309678129593 0.8102599412063579
2.060714462789124 11.979071661142545 20.138273845973405 280.6588101256357 0.8357443057371768
2.064019505090095 11.912173264823648 18.81842588945874 297.1947254516563 0.8627104858735789
2.066177930319555 11.843267867009658 17.616246437043003 314.93905495097016 0.8912787900089634
2.067169154446234 11.772370960475499 16.52090811834909 334.0011452132209 0.9215748121792843
