M[M_sun], R[km], Lambda[1], P_c[MeV/fm^3], rho_c[fm^-3]
0.24162668629717493 15.618656898711224 2160425.4255784233 3.5677272577965504 0.1711233750220791
0.2536447145007659 15.277242486319043 1723066.2337804905 3.784834513369429 0.17388835886625592
0.2660407450005138 14.981241733851338 1382891.7723052965 4.011432824667662 0.17666703984976279
0.2788169065227869 14.723482470644871 1116381.351809657 4.2477778206225425 0.17945808957356613
0.29197268203600846 14.498380576514393 905875.7994325457 4.494494872474849 0.18226807767739528
0.30550906097684305 14.301187304551599 738583.1258935446 4.75174006591276 0.18509271983259773
0.3194267465532366 14.128068789727019 605020.972586848 5.02019494374501 0.18793861846494983
0.3337269787365741 13.975854995243482 497637.6336666881 5.300084544255294 0.19080241576929818
0.34840793053543 13.841969174112874 410970.523962747 5.5921364118767 0.1936903865790417
0.36347343840451646 13.72388523060104 340625.55887841946 5.896519197345793 0.19659761912952292
0.3789262638636851 13.619968670908575 283275.24662188947 6.214096452652511 0.199531782902929
0.3947599635395935 13.528382697806387 236388.15741950928 6.545124087736604 0.2024890293134605
0.4109859221353947 13.447812895216861 197836.36497040052 6.890307566915708 0.2054731211630742
0.4275950393395967 13.37701235673133 166061.70533655898 7.250350728240458 0.20848710818536945
0.44459105221800627 13.314883973270307 139782.4221252681 7.625510493309812 0.2115265039411478
0.46197450965777126 13.260529615082794 117959.60419630668 8.016740014986665 0.214597534048476
0.47974042380386533 13.213144258014918 99796.00493666551 8.424742544966445 0.21770181580294276
0.4978984293983392 13.17195377599733 84628.10817667622 8.8499562938826 0.2208367782248465
0.5164390048809413 13.136363861313908 71926.69149118091 9.293259933368882 0.22400590441020085
0.5353588196872491 13.10581186546472 61264.66033044566 9.755535985118454 0.22721207807279004
0.5546666854232967 13.07980042674846 52296.18958825473 10.237594233246735 0.23045665046327096
0.5743513576081476 13.057814471935089 44721.87919471826 10.73990179011305 0.2337362657712279
0.5944102533702232 13.039497725088053 38320.667240090974 11.263711580623461 0.2370572145657606
0.614846711268739 13.024491019610531 32894.3331162391 11.809957603887698 0.24042106307463929
0.6356540600889264 13.012419411245192 28285.92395774471 12.379619123160428 0.243829444711301
0.656826225428317 13.003002487866638 24365.715279193977 12.973379772675244 0.24728024843694174
0.6783593733009091 12.995969917866178 21023.311451386217 13.592577255754748 0.25077838068889297
0.7002499765867832 12.991058949323772 18169.064793398946 14.238404438231143 0.25432642045123294
0.7224855961539087 12.987990162982205 15725.43632676596 14.912051344682013 0.25792635298820854
0.7450750881644639 12.986639148495614 13630.824764078485 15.614539486246047 0.261577991626235
0.7679988302036672 12.986756198865589 11833.641850949987 16.347151654613764 0.26528339588334315
0.7912455512613082 12.988141817877308 10286.553773376396 17.111496443137124 0.2690471772608824
0.8148212832201013 12.99066577549062 8954.239309939494 17.909029340800725 0.27287176921045403
0.838703820854595 12.994141442049585 7805.637684707056 18.741102240410154 0.2767581308239762
0.8628891249824874 12.99841072769464 6812.560287087384 19.609086881233463 0.28070698502414876
0.8873706308845016 13.003367264842016 5953.819084981082 20.515056651362844 0.28472457516949873
0.9121283058402914 13.008858520806388 5209.922102647958 21.46080626070899 0.28881391576428667
0.9371502859001359 13.014752332847596 4564.039584168718 22.447802622319124 0.292974788019129
0.962435115596509 13.020962096519403 4003.3940078074525 23.478106240273718 0.29721127078250215
0.9879557037009001 13.02735106958825 3515.4411354855565 24.554123462201307 0.3015293293054222
1.0137009292141335 13.033806138400985 3091.1001579050276 25.677775977376978 0.3059304397200946
1.0396666866836644 13.040261535686167 2720.6274655222464 26.851067188647214 0.31041617163862345
1.065819245153567 13.04658902847025 2397.4581475869245 28.07707470037071 0.31499511063963276
1.0921542894771694 13.052720192359821 2115.040171099157 29.357828263223155 0.31966752601272874
1.1186537581092513 13.058550135319736 1867.8300033325017 30.69613533899514 0.3244384544461802
1.1452875914096765 13.064001999004091 1651.5945522029901 32.09534370495963 0.32931559942044086
1.1720517421941705 13.069013551808313 1461.6147418251585 33.55744988838406 0.3342970164304725
1.198908866267783 13.073474310797266 1294.9946452483316 35.086971179488735 0.33939610006539134
1.225856825153231 13.077338063809464 1148.6821299974604 36.68589908981119 0.3446094153348842
1.2528545911538334 13.08050124092767 1019.8375757563176 38.3593178659955 0.3499515951662859
1.2798979019251204 13.082944376400865 906.3900976919161 40.109502857488735 0.3554194185109996
1.3069423318084727 13.084526427547365 806.5102123980865 41.94186031510718 0.36102706240089644
1.3339808543827434 13.085236789738875 718.3197689230558 43.85994218228314 0.3667768365408333
1.3609908502679564 13.085029787746452 640.3989161785729 45.868371899884025 0.372676129100603
1.3879228201114115 13.083767455246798 571.6078516411669 47.972517097993794 0.3787350834877298
1.41477564437796 13.081458274280346 510.6516631284776 50.177174253855526 0.3849595483932826
1.4415048959749657 13.078023230688824 456.72087458078676 52.4874907218597 0.39135611378236934
1.4681005406474124 13.073417129122985 408.86974912497936 54.909921228922656 0.39793666493105473
1.4945107857871849 13.067548404856339 366.40286861687906 57.45065776324865 0.40471026641856694
1.5207225470777685 13.06039821640489 328.72979237148155 60.11633061199795 0.4116866932035751
1.546707330024959 13.05190860767906 295.18116977988 62.914047819459846 0.41887648911988995
1.57242349274341 13.042023543630325 265.37026293159414 65.8514384233977 0.42629103014870223
1.5978374051885162 13.030682743592616 238.82509822380183 68.93669985315657 0.43394259302643556
1.6229350324399792 13.017861178672051 215.15857540421362 72.17864992082005 0.4418444298157885
1.6476870719824295 13.003517277199101 194.0230098354538 75.58678389077026 0.4500108491433806
1.6720363715596145 12.987578648738857 175.16543420289673 79.17097432984002 0.4584557897272367
1.695972887143813 12.970021413261584 158.30563814729152 82.94155319891085 0.4671931018839983
1.719453436281203 12.950804231685575 143.22605603937254 86.91119658913455 0.47624406142616166
1.7424301271637466 12.929826749944462 129.73921831878 91.0914173208791 0.4856227395295501
1.764917276894463 12.907202397324612 117.63784789659694 95.49644882875846 0.49535161688065094
1.7868433492799185 12.882762177133882 106.78534406293994 100.13982400318503 0.5054476683848034
1.808180899813203 12.856496736431525 97.0496463917403 105.03814534358607 0.515936882683738
1.8288937956839433 12.828364057703274 88.29740674844442 110.2079616164603 0.5268418082456053
1.848967510333728 12.798378947985423 80.43047879168775 115.66700127118499 0.5381861573094407
1.8683430413013922 12.766433235381877 73.35823325050958 121.43530948778223 0.549998636174984
1.887017463885065 12.73260866728086 66.9792255498911 127.53432638681087 0.5623090957541005
1.904941413433848 12.696781820370523 61.23292819798737 133.98663837966117 0.5751473341151613
1.9220804056654783 12.658956952013051 56.05236729506635 140.8178950021316 0.5885494968057713
1.9383925427579325 12.619059240818535 51.37222508481394 148.0557795362894 0.6025538399314891
1.9538862972746087 12.57720759201743 47.14620180902515 155.7287131442234 0.6171958315813808
1.9685002877116038 12.533269584206183 43.32585100591224 163.87044540718782 0.6325233940518871
1.982213096647918 12.487258840362434 39.86399244595776 172.51487503719642 0.6485784722676031
1.9949983924481245 12.43917042715123 36.73079995235179 181.70110421497722 0.6654135597227717
2.006833395361347 12.38900245361633 33.89144409789515 191.4712620229367 0.6830834541026719
2.0176765514863626 12.336718624878515 31.316946579236916 201.87140790136462 0.701647421930423
2.027510395696523 12.282326183215323 28.980684544766955 212.95139623397722 0.7211677717542488
2.036316346481212 12.22584746915152 26.859612518898317 224.76698577049322 0.7417156642716353
2.044056371289817 12.167244573918648 24.93274229967358 237.37912685288137 0.7633674637562592
2.050713000957952 12.10652553913155 23.179460023828195 250.85484710991992 0.7862062145486064
2.05628241220659 12.04376787374102 21.58607133596116 265.267450056241 0.8103206497787523
2.060725919470744 11.9789079301332 20.13641522552618 280.6982656866064 0.8358090220403702
2.0640264586597503 11.912003751831897 18.8151571905363 297.2375321463392 0.8627798403891165
2.066183267391103 11.843090530744705 17.61270584626456 314.9855565854715 0.8913532299796324
2.0671703563259745 11.77218714801853 16.51749790544574 334.0516485445158 0.9216545781568869
