M[M_sun], R[km], Lambda[1], P_c[MeV/fm^3], rho_c[fm^-3]
0.24162668629717493 15.618656898711224 2160425.4255784233 3.5677272577965504 0.1711233750220791
0.25364443347546134 15.277263912697755 1723206.4399249407 3.7848270299124467 0.1738882655885748
0.26604078976782725 14.98123506834334 1382965.4323687602 4.01141709286428 0.17666684974020316
0.2788161237796659 14.723484898213346 1116447.4188744486 4.247753308155634 0.1794578052658895
0.29197138400860867 14.498377248767053 905863.9583833645 4.494460936030032 0.18226769978720603
0.30550757405779133 14.301156989263966 738604.0781712186 4.751695553088457 0.18509223900914126
0.31942370546919585 14.128107786890498 605097.3851048864 5.020139526556291 0.1879380434902278
0.33372418333228754 13.975859979527149 497669.29486722057 5.300016763601184 0.19080173333057973
0.348403907045896 13.842003127773149 410991.65952670947 5.592056098431154 0.19368960952436257
0.363467233525892 13.72399181431598 340616.56335568725 5.896424546617166 0.19659673014984944
0.378921394036838 13.61997692469421 283283.8678392876 6.213986319100081 0.19953077861754026
0.3947524519971619 13.528462359763738 236397.75626329464 6.544998585613087 0.2024879288293823
0.41097925743705915 13.44787035583191 197857.7948092591 6.890164273231777 0.205471900813931
0.4275872902000598 13.377066739336781 166070.85329516616 7.2501882981892125 0.20848576444318276
0.4445839897149519 13.31490542338353 139799.10978800297 7.6253293757443 0.2115250621288681
0.461965381379102 13.260550076044977 117973.94106543393 8.016537050551607 0.21459596395448113
0.4797311819426789 13.21314031787023 99800.68846821637 8.424516150789895 0.21770011363522834
0.4978890724122913 13.171960325417585 84633.92608289419 8.849707304643523 0.22083497543637068
0.5164272593319327 13.136388190392918 71933.0729114558 9.292984319341599 0.22400396407026624
0.5353467111216726 13.105831328038212 61272.2719217986 9.755231877346214 0.22720999599000766
0.5546539799124306 13.079791035884723 52300.54876595731 10.237259649197226 0.2304544222640229
0.5743369767009199 13.057831360499058 44727.476995294724 10.73953818351734 0.23373393130425224
0.594395388562286 13.039507295427462 38323.262454446536 11.263313482930291 0.2370547272441696
0.6148321275761025 13.024509796403521 32898.40592574293 11.809522663041662 0.24041841790861262
0.6356376255504371 13.012436146770181 28290.218206717986 12.379144840355156 0.2438266364476178
0.6568083047315547 13.003008705607847 24368.600691148495 12.972868325911184 0.24727732521696696
0.6783407489436603 12.995972586461312 21026.260968267485 13.592021381760125 0.25077528573141844
0.7002297844176667 12.991052726537266 18170.534737360314 14.237801156131948 0.25432314761640157
0.7224635637533435 12.98800099412669 15727.850347632399 14.911397482062078 0.25792289577006156
0.7450527705995673 12.986653430855764 13632.751657241955 15.613838047063776 0.26157440633441825
0.7679745441082159 12.98676022262733 11835.325080989796 16.346393139064403 0.2652796148735719
0.7912203350583061 12.988141254436805 10219.263835799406 17.11067704390698 0.269043192799898
0.8147947208379032 12.990658971690797 8955.451736874838 17.908144998135775 0.27286757306774234
0.8386789908234098 12.994132337965976 7806.695911317811 18.74015687690316 0.2767537873678058
0.8628589589873773 12.99840328686727 6813.47320603459 19.608068203692316 0.28070241486046793
0.8873411421433823 13.00336416999062 5954.672275527261 20.513959756286418 0.2847197684051975
0.9120975235368908 13.008846523625007 5210.756675185224 21.459625908789498 0.288808861839182
0.9371179071072914 13.014756190331765 4564.799626473263 22.446543730765786 0.2929695593003206
0.9624026017428239 13.020963506690462 4004.1510901433717 23.47675300930394 0.29720577490944977
0.9879240145800979 13.027341222844251 3516.155014959542 24.55266952145286 0.3015235534890467
1.0136669002099108 13.033791236273172 3091.737476145023 25.67622695524641 0.3059244617453679
1.0396319861322942 13.040252573392076 2721.1524795802543 26.8494041460403 0.31040988896311783
1.0657832780843006 13.046583554043576 2397.900359185995 28.07528985162002 0.31498850770799225
1.0921156561794212 13.052704514973582 2115.526217277533 29.3559279346375 0.3196606859966281
1.1186110381075007 13.0585514636678 1868.28056726927 30.69409684010942 0.3244312635092694
1.1452446537731165 13.063998148142845 1651.8869868945608 32.093173689559215 0.32930814346126297
1.1720094258141387 13.069009507516062 1461.8843292129504 33.555122899611604 0.3342891742383867
1.1988669798479146 13.073470880707609 1295.2614275871185 35.08447623301445 0.3393878499537824
1.2258125699752969 13.077336604037912 1148.9080040332847 36.6832434264266 0.34460084857589335
1.2528094327410935 13.080494300477694 1020.0410200447253 38.3564907071196 0.34994269271401557
1.2798529354503652 13.08293390145685 906.5841341249791 40.10647206571322 0.35541004225376827
1.3068955796955886 13.084526230080828 806.6456026659342 41.9386331406854 0.3610173061637046
1.333931217293388 13.08523917795653 718.4870570615157 43.856482438867566 0.3667665523941547
1.360941440786541 13.085033018746952 640.5311199857854 45.86468683752837 0.3726654134398506
1.3878734841963098 13.083772087178145 571.7200574210805 47.96859097483455 0.3787239084738384
1.4147312060072927 13.081478929125842 510.75256616584505 50.172964013254514 0.3849477508351405
1.4414547836137581 13.078027099634452 456.8101594198703 52.48300304818884 0.3913437923118552
1.46804901819412 13.073428250868428 408.95041890595365 54.90513624878826 0.39792378462509287
1.4944587085715042 13.06756152616304 366.47599927351956 57.44555399336416 0.40469678965414196
1.5206706539296988 13.060414038758164 328.79282559786765 60.11088481503384 0.4116725794359872
1.5466547034954237 13.051925941824626 295.24312351913056 62.908234845508545 0.418861694639032
1.5723706988296986 13.042043567789962 265.4235108964947 65.84523103545143 0.4262755078109995
1.5977959729891176 13.030714815158545 238.8883921007345 68.93006853480205 0.4339262919598159
1.6228821124025796 13.017891297854016 215.20080651108788 72.1715626641307 0.4418272950947288
1.6476339272365523 13.003549967459898 194.06716992957715 75.57920596212979 0.44999282143072905
1.671983406416941 12.987618780177865 175.19786729588043 79.16290758645991 0.45843697010722045
1.695920395015991 12.970064155949386 158.34219079782915 82.93291892599828 0.4671732603499923
1.719400778238018 12.950850760466988 143.25665034669433 86.90195033348913 0.47622312320636906
1.74238271949622 12.929912456667102 129.75802232008965 91.08155523405078 0.4856008000164607
1.7648654592226776 12.90725916369439 117.66180466305167 95.48587589172242 0.49532841749597173
1.7867925957714224 12.882823047340876 106.80938175366524 100.12853100935136 0.505423298594043
1.8081301698288583 12.85656205604862 97.06995081065857 105.02607372507184 0.51591124857652
1.8288396180038382 12.828425710953624 88.31424869476184 110.19504748941465 0.526814808241211
1.8489186513250544 12.798457605843705 80.44988664277611 115.65312212443126 0.5381574877815729
1.8682947631273095 12.76651608551817 73.37193761719058 121.4204400664355 0.5499683674821572
1.8869739826877405 12.732693754462133 66.99705233031483 127.51843973699468 0.562277299882299
1.9048964528022276 12.696876465633506 61.249100678801305 133.96958867120512 0.5751136726967815
1.9220369635622256 12.65905835125058 56.06667599077047 140.79958224355494 0.5885138165880738
1.938350145822799 12.619167852516508 51.383719832606566 148.03609404511508 0.602515973909801
1.9538465777881888 12.577321728011814 47.15719224763965 155.70759930276697 0.6171558187382955
1.9684619973953204 12.533390697030791 43.33216124202618 163.8477752472285 0.6324810460046808
1.982176513668568 12.48738686355399 39.8734037064748 172.49043978713985 0.6485333552500686
1.9949656113289824 12.439309675144246 36.73971668707356 181.6748152834168 0.6653656740694177
2.006801488564455 12.389146578093742 33.898412551047386 191.44294866606518 0.6830325548414563
2.017647182672651 12.336870556843333 31.32364019888233 201.84088176712814 0.7015932410533081
2.0274830234269534 12.28248334837491 28.98867702401873 212.9185263166467 0.7211102678004238
2.0362927306946794 12.226015737917573 26.86621544621806 224.7314677758677 0.7416542705723616
2.044036464610235 12.16741776131376 24.938248349365832 237.34078772101182 0.7633020920145289
2.050695219983309 12.106709606562134 23.184544221410828 250.813409803893 0.7861364913456387
2.056266744896542 12.043961044785739 21.59105883728233 265.22252190067087 0.8102458867176128
2.0607128854039316 11.979109622763707 20.139074927058115 280.64967588904335 0.8357293234631904
2.0640170208037483 11.912212259798524 18.81903350207156 297.18481542965776 0.8626944298622524
2.0661775972306433 11.843308411894602 17.582186761107085 314.92828955551727 0.8912615567282336
2.067168877590043 11.772412114936632 16.521159422636075 333.98945343259567 0.9215563459457196
