M[M_sun], R[km], Lambda[1], P_c[MeV/fm^3], rho_c[fm^-3]
0.24162668629717493 15.618656898711224 2160425.4255784233 3.5677272577965504 0.1711233750220791
0.253646130550918 15.277214996081433 1723144.9772337952 3.784861793510556 0.1738886989000547
0.2660438050870412 14.981199123630773 1382950.7177069923 4.01149017364615 0.17666773287832274
0.27882239245323076 14.723418847901733 1116247.1108292136 4.247867179340718 0.17945912600003625
0.29197953608115945 14.49824632176806 905735.1567248382 4.4946185864944255 0.18226945526171578
0.3055179699839286 14.301034706739689 738506.0010164004 4.75190233673103 0.18509447266713355
0.3194390501135807 14.127915048210987 604967.0862241563 5.020396967444593 0.187940714538807
0.33373909353712183 13.975721783700257 497582.1500384069 5.3003316405417324 0.1908049036188957
0.3484226055252728 13.841845257316136 410893.67459602014 5.592429198463206 0.19369321936980893
0.363489299293657 13.723793628239273 340563.0354696581 5.8968642532422555 0.1966008599675241
0.3789446418853251 13.61984340363105 283211.4019892062 6.214497954634862 0.19953544411756818
0.39478169123036855 13.528281246027875 236329.24711436723 6.545581619714234 0.2024930412508089
0.4110103302340209 13.447727389112138 197792.4264247976 6.890829963021774 0.20547757010752848
0.4276214455211839 13.376911114867761 166009.1971491976 7.250942891902416 0.20849200700358628
0.44462064847572746 13.314784992619947 139741.20851543648 7.626170788559453 0.2115317603159034
0.4620049425855597 13.260428144082223 117924.68289452931 8.017479960929732 0.21460325812856623
0.4797759790339256 13.213029112788934 99760.59617393346 8.42556791317672 0.2177080214180404
0.4979369018071193 13.171903442707551 84601.91484563824 8.850864041683883 0.22084335070677857
0.5164808119235673 13.136290012575515 71900.74495143318 9.294264753551086 0.2240129784069268
0.5354039994732162 13.105740498922824 61244.942113871424 9.756644692526521 0.22721966887057868
0.5547162274066695 13.07972910070065 52275.642982487385 10.238803201043723 0.23046463443065898
0.5744036336574425 13.057755046205484 44704.919760165576 10.741227430190753 0.23374477679115868
0.5944641617873391 13.039448186636875 38306.28558276238 11.265162976561133 0.23706628291384407
0.6149067467193537 13.024449066064992 32880.97858018995 11.811543332284918 0.2404307069490238
0.6357162102741967 13.012387648285545 28273.597620753342 12.381348295793146 0.24383968327076905
0.6568920566357949 13.002991343894628 24354.778071488385 12.975244448748125 0.2472909061607279
0.6784305366446263 12.99593978095229 21013.639588057464 13.594603919385467 0.25078966460901314
0.70032292666636 12.991036129137374 18159.893810463072 14.240603959227695 0.25433835295998686
0.7225634437791962 12.98799605622064 15718.703976072306 14.914435291390332 0.2579389578130909
0.7451564243394955 12.986637314967398 13623.676877571059 15.617096905947792 0.2615910634593468
0.7680822146024509 12.986761843075154 11826.913425036217 16.349917187534558 0.26529718137133373
0.7913335306542651 12.98815601754964 10281.75239271924 17.114483973055247 0.2690617046072117
0.8149130774661367 12.990693149097684 8949.064737909628 17.912253672144214 0.2728870684321281
0.8388032273289769 12.994145142244122 7801.566267339749 18.744549070393948 0.276773967224314
0.8629886412058962 12.998439683686431 6808.555562350014 19.61280103729225 0.2807236480999889
0.8874763888342204 13.003391998920659 5950.43041257473 20.51905601509454 0.2847421010014822
0.912238676960043 13.008878607906055 5206.651520058141 21.46510993843087 0.2888323428660027
0.9372636759996404 13.014778833938516 4561.5049349212695 22.45239268387267 0.2929938525216377
0.9625541321444607 13.020989689655512 4001.040422137885 23.48304030176674 0.29723130947227777
0.988080888546101 13.027375989590642 3513.386344961282 24.55942475505232 0.3015503888252774
1.013828927375299 13.033833192257132 3089.3066728804283 25.683423977533856 0.30595223644044345
1.0397991279604706 13.040294904072507 2718.925031408201 26.857130961812523 0.3104390794817411
1.0659561721597886 13.04661768242959 2396.1182314454136 28.08358263987506 0.31501918633772835
1.0922938120406467 13.05274975670146 2113.7499199985787 29.364757299386614 0.3196924662884673
1.1187981395395656 13.058584753796396 1866.5760159938213 30.703568219786415 0.3244646744148101
1.1454358950475283 13.064038351589053 1650.389072585992 32.103256166043366 0.32934278585737853
1.1722036375238511 13.069043985455508 1460.5603469684202 33.56593476780023 0.3343256113489326
1.199065164900825 13.073493607863282 1294.186548607064 35.096068537121965 0.3394261825607852
1.2260169085859012 13.077360824457731 1147.8387430212404 36.69558251992227 0.34464065258145976
1.2530173182042028 13.080520791030809 1019.1630868216772 38.36962667764227 0.3499840566258914
1.2800649108825328 13.082951379517786 905.7724382768947 40.120554255899876 0.35545360784565
1.3071196367740046 13.08455664399482 805.9136448815182 41.95362785925716 0.36106263746963696
1.3341543120393562 13.085238785300877 717.7906422659045 43.87255784625138 0.36681433681848785
1.3611665770211985 13.085026867218904 639.9199146613464 45.8818092428516 0.37271520306862765
1.3881084121551037 13.08377655878493 571.1442853509093 47.986833532241334 0.37877583268104376
1.4149560876866618 13.081441627942603 510.2626286649157 50.1925268141776 0.3850025679591922
1.4416916980280938 13.077991677207304 456.34176391750384 52.50385502972947 0.39140104404060344
1.46828708232387 13.073380358910565 408.5504181039715 54.927369766672705 0.3979836332566268
1.494698924555609 13.067502048870226 366.11437220195575 57.46926888550738 0.4047594100351568
1.5209127841783963 13.060341724708449 328.4747210353898 60.136189071565475 0.4117381599925201
1.5468991092908642 13.051839002198308 294.97066577317355 62.93524534566886 0.41893043850936995
1.5726166580267928 13.04194114920544 265.15150790642133 65.87407435880277 0.42634763409171594
1.5980303479667481 13.030590175802777 238.62536317662386 68.96088185511218 0.4340020370771959
1.6231271753501573 13.017768815971197 214.98133603653292 72.4659937693176 0.44252294813972737
