M[M_sun], R[km], Lambda[1], P_c[MeV/fm^3], rho_c[fm^-3]
0.24162668629717493 15.618656898711224 2160425.4255784233 3.5677272577965504 0.1711233750220791
0.25364214585306205 15.277345982612475 1723160.8775621012 3.7848053505002768 0.17388799536516056
0.2660382298813034 14.981277872749919 1383076.461098871 4.011371518420988 0.1766662989999522
0.27881203601375837 14.723598060343859 1116488.3623680698 4.247682296834995 0.17945698164158186
0.2919650906581916 14.498491857613272 905942.8211058317 4.494362624449491 0.18226660506493977
0.3054998027079327 14.3013203592058 738750.2256431613 4.751566603126225 0.18509084610344445
0.3194155764438421 14.128209268957226 605154.6449183777 5.019978988346316 0.18793637784433725
0.33371188523530093 13.976054517572138 497721.9260807877 5.299820410632325 0.19079975638199181
0.34839261118396686 13.842090279963024 411050.4692287185 5.591823440471616 0.19368735849460203
0.3634543326133228 13.72404622543967 340695.86318365985 5.896150356713067 0.19659415490024537
0.3789056899208315 13.620065344000912 283335.4379475663 6.213667279197966 0.19952786935778202
0.394736243115921 13.52853742983938 236444.52436212287 6.544635026970984 0.20248474091123472
0.4109598546584048 13.447935062213704 197899.2734824877 6.889749177425249 0.2054683656838544
0.4275664026333089 13.377118527173872 166109.89796073738 7.2497177700605215 0.2084818718845601
0.4445603513813518 13.314977042167225 139825.07601592905 7.624804715795864 0.21152088549832332
0.46193963467435983 13.260619551867823 118003.42245172121 8.015949107542333 0.2145914157399729
0.4797025994279053 13.213209432819005 99829.2212964372 8.423860340096509 0.21769518285562062
0.497858140446449 13.172040702508948 84658.68115745265 8.848986044350527 0.22082975320367856
0.5163947456039002 13.13644451380769 71953.37355361808 9.292185937325247 0.2239983434110978
0.535311436987348 13.105876990743518 61290.89060998462 9.754350960454456 0.22720396476667018
0.55461547527503 13.07987264237502 52311.97243371036 10.236290455356045 0.23044796781112437
0.574295996294438 13.057884971922714 44742.21665260365 10.738484923875633 0.23372716905109348
0.5943510956812265 13.039549420237318 38338.20889457808 11.262160318164185 0.23704752224984293
0.6147860274524533 13.024522642022475 32633.72171709312 11.808262780919314 0.24041075572324183
0.6355855393170292 13.012459180306779 28070.654760265927 12.377771003651764 0.24381850185855425
0.6567558244897903 13.003051159473623 24377.61863454386 12.971386843494765 0.24726885767098516
0.6782851853975637 12.995986779752133 21033.86844355698 13.590411216514433 0.25076632076271954
0.7001713371603485 12.99105746382363 18041.1335247132 14.236053674763035 0.25431366744468936
0.7224032751843672 12.987999696514143 15734.729028815014 14.90950349657687 0.25791288155485803
0.7449881666503542 12.986650534087415 13638.507908039437 15.611806258457934 0.26156402117880384
0.7679059539644885 12.986748280237709 11839.11175032112 16.344196033077946 0.2652686628512826
0.7911485716969822 12.988128804306537 10293.49603696994 17.108303593916194 0.2690316515163105
0.8147217317842057 12.990652394728043 8959.472266023176 17.905583446473447 0.27285541868826435
0.8386004883217567 12.994122434632414 7809.559755101048 18.73741858497317 0.2767412063332178
0.8627789980759596 12.998385722702428 6816.953868070248 19.605117567660862 0.28068917721746356
0.8872514561951554 13.00333789837472 5957.625434389172 20.51078257508869 0.28470584550455935
0.9120112570439926 13.008824341298995 5213.084028768 21.456207008917232 0.2887942230999978
0.937028521955862 13.014717022255983 4566.973079314352 22.442897353935543 0.2929544143268999
0.962302811399159 13.020922859421443 4006.2019000942773 23.472833397012092 0.29718985619930227
0.9878247788666138 13.027323941755238 3518.0161127366814 24.548458224858617 0.3015068240068741
1.013565305614347 13.033768288423941 3093.284568263277 25.67174027547072 0.3059071467840278
1.039526797692578 13.040220597727009 2722.540231863201 26.844587233773005 0.3103916915359512
1.0656748124439441 13.046552386253323 2399.2376588829848 28.07012015962456 0.3149693827693467
1.0920047034260534 13.052683844758832 2116.556431847608 29.35042378489528 0.3196408744371213
1.1184994657890281 13.058519772580357 1869.335320508888 30.688192520365238 0.32441043563878136
1.145128252810336 13.063979438491428 1652.761094902496 32.086888469904025 0.329286548065597
1.171888154664927 13.068988939026815 1462.616166961042 33.548383057266825 0.33426646027477797
1.1987421773250542 13.073448351100787 1295.9694539781337 35.07724995840061 0.33936395462268193
1.2256855467187528 13.077317626937278 1149.5564138105235 36.67555168915526 0.34457603622211136
1.2526799590403501 13.080486536391044 1020.60824212022 38.34826819009876 0.34991670812257625
1.279717282252931 13.082927580492374 907.0885963446074 40.09769390811955 0.35538288556676645
1.30675983655195 13.08452011810966 807.1013132238261 41.929286235978154 0.36098904905472473
1.333795875810223 13.085228517590531 718.8426932561712 43.846461996379766 0.3667367664568897
1.3608030502022899 13.085036947875762 640.916413137611 45.8540138528276 0.3726343778501562
1.3877314883271588 13.08378138040409 572.0673412036708 47.957219862076364 0.37869154261625354
1.4145868281274432 13.081496354822738 511.0667396246465 50.16077008921848 0.3849135821161933
1.4413082646214603 13.078050343365643 457.06628685467587 52.470005669782054 0.391308106380447
1.4679008223865626 13.073458036876662 409.20111358990795 54.89127786720893 0.3978864803542569
1.4943090970803603 13.067596533518511 366.70359415656173 57.43077239838755 0.404657758099461
1.5205196152350204 13.060461291614295 328.9849992137527 60.095112717672556 0.4116317031936304
1.5465022392103907 13.051980175674158 295.4290321605255 62.8913994190313 0.41881884714017165
1.5722179331851047 13.042107767896702 265.58894049806315 65.82725341012251 0.42623055254577935
1.5976411312270398 13.030788160328669 239.03853020742145 68.91086324114086 0.4338790816232458
1.622721620064483 13.017949300110528 215.34083318760216 72.15103701885073 0.4417776706459668
1.6474798983356111 13.003647225641469 194.19516778413237 75.55725939019122 0.449940611056184
1.6718287646487726 12.987722922790594 175.31363130603555 79.13954546321669 0.4583824665409741
1.695767505918953 12.970183029872658 158.44193999572528 82.90791332816514 0.46711579755899985
1.7192319870751653 12.950949925714331 143.35457881294337 86.87517254518579 0.47616248469078454
1.7422351002242067 12.930055700145424 129.83993756797443 91.05299410898739 0.4855372620261669
1.7647156714545278 12.907416758916865 117.73816142805848 95.45525630436546 0.49526123128428895
1.7866436931990064 12.882995503456772 106.87359143464872 100.09582629878835 0.5053527232475018
1.8079828741803785 12.85675210509805 97.13092292035962 104.99111430895796 0.5158370121831244
1.828696445392492 12.828630881421367 88.37394731069872 110.15763720485495 0.5267365750359188
1.8487773403992611 12.798678341076881 80.50311151530585 115.61292863678995 0.5380744619058123
1.8681656648812943 12.766787091802355 73.42068635605087 121.37737905897104 0.5498807110510583
1.886839800697116 12.732950666715356 67.0424441311491 127.47229118903557 0.5621847141296937
1.9047653696842954 12.697149816705947 61.288306846607156 133.92021430255707 0.5750161923624649
1.9219111880397786 12.659351861101758 56.1030333487976 140.74655057721623 0.5884104907351225
1.9382286865706007 12.619478871158393 51.41776136847417 147.97908752058981 0.6024063190236253
1.9537400161562655 12.577689160863754 47.187249714743636 155.64645688346508 0.617039947733276
1.9683509315771666 12.533743683122044 43.361408192839924 163.7821264335283 0.6323584134751092
1.9820742587219853 12.487764859541187 39.89725465660734 172.41968015516085 0.6484027053263175
1.994867187136266 12.439705582147994 36.76355608324352 181.59868833662233 0.6652270077802717
2.0067026720507166 12.389549903233695 33.92112781070372 191.36096007729788 0.6828851629721241
2.017563912427075 12.337308963477202 31.344922363091072 201.7524862378552 0.7014363477083486
2.0274052610597235 12.282944210418723 29.005170378975617 212.8233445593698 0.7209437530106114
2.036222493612306 12.226498711731407 26.88306833716566 224.62861886137742 0.7414764937751797
2.0439743097089984 12.16792568747928 24.953523603300358 237.2297706233425 0.7631127976647984
2.0506421860555215 12.107242618829956 23.199094263083087 250.69332020547023 0.7859342652767595
2.05621696388666 12.044496112466607 21.603333119115362 265.09242765797063 0.8100294023394434
2.060679236756147 11.979690029240256 20.151426381239116 280.5089802329572 0.835498549840582
2.063998858408149 11.912829172316158 18.83054404731696 297.0321714689649 0.8624471192950149
2.0661626493465453 11.843937460036727 17.62682112707246 314.7624716458393 0.8909961148687119
2.0671652936741407 11.773069606003876 16.53048221608676 333.8093679936375 0.9212719153800085
