M[M_sun], R[km], Lambda[1], P_c[MeV/fm^3], rho_c[fm^-3]
0.24162668629717493 15.618656898711224 2160425.4255784233 3.5677272577965504 0.1711233750220791
0.25364112145129 15.277361681175249 1723205.284377912 3.784784915025067 0.17388774064682047
0.26603730546316806 14.981277049388938 1383111.4335068248 4.011328559320131 0.17666577986457108
0.2788082849229787 14.72368232926981 1116497.2904360956 4.247615361091961 0.17945620528783268
0.291960198989945 14.49857721968303 905935.1426988228 4.494269955988572 0.1822655731801202
0.3054937321001807 14.301376241465091 738765.2715494925 4.751445055853491 0.18508953316092247
0.31940757776240836 14.128305129772079 605216.2766940743 5.019827667304961 0.18793480783012864
0.3337026312715754 13.976154089456413 497816.52870644693 5.299635332466397 0.19079789295196112
0.34838210061453245 13.84217700171434 411105.3104883967 5.591604143489459 0.19368523673597313
0.36344133335430256 13.724127864000849 340733.64851080155 5.895891914719396 0.19659172755834864
0.3788919639791465 13.620149060860715 283384.1139157061 6.213366565277932 0.19952512720891444
0.3947200215031591 13.528605436145659 236483.01616971623 6.544292353743276 0.20248173612995657
0.4109417815111964 13.448042114454921 197937.33266585707 6.889357930430119 0.20546503366026345
0.42754646624128007 13.377189129574628 166138.4347336511 7.249274278617282 0.2084782029935073
0.44453837332821067 13.315052941147878 139861.09233944287 7.624310206037436 0.2115169488826775
0.4619152548397675 13.260697987311248 118033.25493629127 8.015394955141502 0.2145871289231395
0.47967541916945994 13.213295096842964 99857.33430968337 8.423242224744948 0.21769053549228629
0.4978287486118764 13.172096730080417 84679.14182378535 8.848306245437366 0.22082483116909155
0.5163634151441212 13.136502328924786 71972.28766740106 9.291433455049454 0.22399304588896443
0.5352774262916979 13.105928892723705 61306.69586660923 9.753520693863099 0.22719828032210004
0.5545804600078371 13.079897028666508 52331.61936421279 10.235376993588583 0.23044188451209566
0.5742574719423833 13.057915784622605 44754.171187198204 10.737492236071567 0.23372079568789517
0.5943095923496348 13.039587261194576 38351.38153671352 11.261073477854877 0.23704073165192258
0.6147417730686476 13.024579324205842 32920.679747673705 11.807075368957085 0.24040353427735836
0.6355382749723202 13.012472432878903 28308.739898416457 12.376476200473633 0.2438108352328583
0.6567046135685661 13.003062131219872 24385.337972843055 12.969990594950403 0.24726087728686427
0.678233132507911 12.996009772531087 21040.94630184534 13.588893698591397 0.2507578716294915
0.7001160138187441 12.991080281092428 18184.355052110357 14.234406752573937 0.25430473281143545
0.7223453621611925 12.988009234401531 15739.445934918653 14.907718512627456 0.2579034436718627
0.7449255652258603 12.986665622530833 13643.363827283483 15.609891412577708 0.26155423375683157
0.7678425989269616 12.986744304710653 11843.892266540308 16.34212539854199 0.26525834125745396
0.7910808780941804 12.988125926853067 10296.30983073822 17.106066780987458 0.2690207746524864
0.8146488622060094 12.990657520306637 8962.915481170236 17.90316937668584 0.2728439640997364
0.8385258961679615 12.994114345728836 7812.817685976718 18.734837964749477 0.2767293497185387
0.8627023778658043 12.99837144821407 6819.815464192002 19.6023368486932 0.28067670188516336
0.8871714810130845 13.003326739293335 5960.226896451052 20.50778837696374 0.2846927244641181
0.9119263059318803 13.008809374621055 5184.413832020691 21.45298503509408 0.2887804275411288
0.9369406456380934 13.014697688146118 4568.899534490388 22.43946102442514 0.292940141770463
0.9622143400264666 13.020897983593173 4007.7510042681597 23.469139596733232 0.2971748545788348
0.987732961066517 13.027292890238801 3519.462674397042 24.544489571651802 0.3014910584316916
1.013469680677782 13.033748073511983 3094.4673104354656 25.66751212937378 0.30589082955394475
1.0394274809904864 13.040205532474523 2723.874531003511 26.84004791556719 0.3103745428091626
1.0655745370213838 13.046542300880242 2400.0702137373496 28.065248426244693 0.3149513601091825
1.0918987699657206 13.052656057094953 2117.5935269548263 29.345236899957413 0.31962220483610854
1.118391814000949 13.058496627383741 1870.3081074334493 30.682628571394655 0.32439080844825274
1.1450174265399051 13.063958285233612 1653.5880597255496 32.0809656134323 0.329266197714138
1.1717752024947563 13.068967652925046 1463.508666595773 33.542031834901586 0.3342450560005687
1.198625718503922 13.073435413884761 1296.6564259979164 35.070440401790684 0.33934143726504784
1.2255663486709425 13.077298909218102 1150.1160240402676 36.668303555443764 0.34455265486474507
1.2525567185019224 13.080470501299292 1021.1361426786793 38.34049810607241 0.34989209419975253
1.2794386986542505 13.082847101575966 908.1741076838939 40.09823385586884 0.3981247872193671
1.3023068689248232 13.08063087640085 820.5909355758076 42.0407384685542 0.523154878141194
1.3210322262419476 13.0710377687788 751.6898786679354 44.19873486987906 0.6427861847085649
1.3364357075938476 13.05394187115638 695.2339441745219 46.57805190407204 0.7567347951241805
1.3491690442866866 13.02954347944568 647.261613975387 49.18129627014536 0.8656545763193929
1.3597998574396488 12.998414752394382 605.3391902014889 52.01289868502382 0.9701136755150928
1.3687316830823906 12.960932005717057 567.7542988972963 55.07808970866225 1.0705164790554624
1.3763068546320618 12.917534671175813 533.4552242533586 58.3826062452018 1.167319302428179
1.3827850962160817 12.868638389727606 501.4916369405908 61.93309301281483 1.260966308847288
1.388447113557329 12.814780497185646 471.5060725448596 65.73730699557045 1.351757216997898
1.393450082764302 12.756166797935744 443.08921496426564 69.80390095289981 1.4393466730946651
1.398000719027143 12.69331194005391 415.8418895147796 74.14204668216995 1.5261049550832093
1.4021804108482883 12.626520124622424 389.78911163548474 78.76400234550223 1.6129112648673944
1.406119377800664 12.556181378390862 364.808410488159 83.68415011302606 1.7001154535056127
1.4098940083005114 12.482628175235405 340.8377627716564 88.91801592549722 1.788038428242929
1.413560163684179 12.406096972991326 317.8839975161235 94.48050859689226 1.876913636923134
1.4171865465097062 12.326967724416404 295.9679830690927 100.38998717429511 1.9670957707226593
1.4208274046827163 12.245630468017893 275.00990156835957 106.66600689004365 2.0589475729774787
1.4244616732358915 12.161908888159457 255.07118825307174 113.32849595415455 2.152874765314744
1.4281251424836532 12.076388288855673 236.19402666245946 120.4020967183079 2.24964544496641
1.4318540724842244 11.989260843327505 218.32895336600782 127.91194600918749 2.351025206801993
1.4356371369994325 11.90095474868605 201.52629504072985 135.88830960072363 2.465228692606026
1.4393627968535512 11.811606061953352 185.8723764539239 144.3808648982086 2.605031095855097
1.443129951423837 11.720669943969744 171.15452015571745 153.3817551657846 2.661197336477767
1.447110967153991 11.62829525673746 157.22013951443978 162.89386201584156 2.7201604213212582
1.4512817086262262 11.534873716648802 144.13908438617102 172.9541417310358 2.7821129736552432
1.4556750442777449 11.440972389194343 131.90852348195205 183.6014119400609 2.847235856904299
1.4602345918541657 11.346778991370945 120.56310827456431 194.88214525795576 2.915755798445987
1.4648750976612357 11.252566713396945 110.08666413010052 206.8433058163084 2.9878894361801076
1.4695897554017456 11.15848977566891 100.4483224735412 219.5367369239561 3.0638748480978304
1.4742710984534577 11.064647123709282 91.63474505625322 233.02032642578337 3.1439788007983878
1.4788774310715087 10.971115081688623 83.58579727061834 247.35789203179797 3.2284938329631925
1.4833410749361913 10.877992224566588 76.25654066427747 262.6163556677491 3.317713148739202
1.487586219500965 10.785301788481277 69.6080583827618 278.8725318764541 3.411981249779403
1.4915423538138417 10.693016372047456 63.59240821942834 296.2092054640014 3.51165950242731
1.495161387643147 10.60113199755269 58.14960246789233 314.7174366561447 3.617140346231061
1.4983681002589482 10.509558564617741 53.23396312662698 334.4986405551624 3.7288596883504903
1.5011203988637822 10.418438267692844 48.80655003306006 355.6638622978423 3.847285572379389
1.5033517899374391 10.327586342689267 44.81114168020192 378.3364491530941 3.972933981953588
1.5050163889281696 10.237063046143431 41.216430200837664 402.65077209269367 4.106350113380689
1.5060489186654231 10.146713400867446 37.98131014135736 428.75920097200094 4.248159652867521
1.50646105537805 10.056716140656905 35.06772483477733 456.82824290370394 4.399025109305356
