M[M_sun], R[km], Lambda[1], P_c[MeV/fm^3], rho_c[fm^-3]
0.24162668629717493 15.618656898711224 2160425.4255784233 3.5677272577965504 0.1711233750220791
0.2536414535711239 15.277345209651196 1723204.4649398327 3.7847897526252083 0.1738878009451725
0.26603719502389744 14.98130777924687 1383080.52663114 4.011338728809343 0.17666590275684657
0.2788103458058692 14.723593504804617 1116480.0987802073 4.247631206404859 0.17945638906958392
0.29196296481028916 14.498501907590832 906004.5622880012 4.494291892799179 0.1822658174515976
0.30549498800381764 14.30134768167189 738762.0014365588 4.751473828879762 0.18508984396452036
0.3194095662786808 14.1282766109201 605193.9766149293 5.019863488370383 0.18793517948750807
0.3337052272654357 13.976113544342281 497769.6026098347 5.2996791444769045 0.19079833406620966
0.3483839183643255 13.842169415518129 411090.3672514775 5.591656055703229 0.19368573900092192
0.36344329832505506 13.724141612874709 340730.3395796844 5.8959530932190924 0.19659230215976456
0.3788954284427588 13.620131904753514 283375.5508457493 6.213437750218347 0.1995257763298588
0.39472358612207525 13.528607489543823 236470.03025103625 6.544373471087297 0.2024824474194795
0.4109460976455968 13.448022331311448 197928.58091605172 6.889450545879569 0.20546582241229552
0.42755080304583415 13.377182019833475 166135.39215762753 7.249379261030526 0.2084790714861074
0.4445439529370676 13.315045962312194 139856.04239338994 7.6244272651353615 0.21151788074836572
0.4619210408977967 13.260675292249461 118026.9687556662 8.015526132362961 0.2145881436849997
0.4796822148528672 13.213264906078924 99846.0832502557 8.423388542707489 0.21769163559881585
0.4978355858567512 13.172084598733985 84676.57283976316 8.84846716454675 0.22082599629219893
0.5163701975171063 13.136491574185918 71963.86907600178 9.291611579013022 0.22399429989277267
0.5352848124403778 13.105930092531853 61302.97629729516 9.753717230066808 0.22719962591298332
0.5545872845904354 13.07990453779725 52324.20641584918 10.235593222769044 0.23044332451408625
0.5742657404887206 13.057920019587836 44751.55913231513 10.737727218665134 0.23372230434893437
0.5943196391387469 13.039576351688758 38012.923802374666 11.261330746986829 0.23704233907411465
0.6147519370167337 13.024546241080873 32917.69540975176 11.807356444010486 0.2404052436826464
0.6355496852592069 13.012463271530926 28308.48468070669 12.376782695603373 0.24381265001326433
0.6567177721310381 13.003047388351655 24384.420194161565 12.970321102711406 0.24726276633369507
0.6782450780698892 12.996012441344474 21039.755062592387 13.589252911307073 0.25075987162965346
0.7001290458003021 12.991090172495007 18182.43482896908 14.23479659571403 0.25430684772949674
0.7223576108053833 12.988004931325769 15738.761633065931 14.908141035352884 0.25790567770878314
0.7449409180817524 12.98664624324595 13642.06549894266 15.610344673946758 0.26155655052829
0.7678573959997923 12.986756429522085 11842.706507271629 16.342615535302606 0.26526078446627505
0.7910976195826926 12.988121552041072 10295.366413942173 17.106596252288817 0.2690233492921309
0.8146674110961696 12.990642727919429 8962.014546884118 17.90374080468473 0.27284667548473207
0.8385445035986172 12.994114172741975 7812.039483160277 18.735448815231344 0.27673215626044034
0.8627219557020442 12.998374348935158 6819.15116802466 19.60299506229488 0.2806796548744805
0.8871905470829291 13.00332498719857 5959.532352608551 20.50849712066217 0.28469583028889706
0.9119470660936265 13.008809983471407 5214.879097578388 21.453747692691557 0.2887836930201055
0.9369608836911782 13.014703001870334 4568.369707898339 22.44027441945899 0.29294352015035674
0.962233620391894 13.020899734528154 4007.2220388348437 23.47001393408161 0.29717840552259756
0.9877553315335031 13.027303575131413 3519.2600101054923 24.54542896540604 0.30149479019712605
1.013491699399602 13.0337599079718 3094.1682330356484 25.668512943923282 0.30589469189003726
1.03945113580777 13.040211708776097 2723.582466118967 26.841122382698195 0.3103786019525048
1.0655999369337537 13.046543052003175 2399.980251498006 28.06640157381951 0.31495562610348876
1.0919236547957076 13.052662684716594 2117.290386587113 29.3464646418562 0.3196266239531068
1.1184176570564621 13.058502434072242 1870.055545216968 30.683945561317433 0.32439545421554417
1.1450439475949155 13.063962273923872 1653.260461428495 32.082367553952835 0.32927101464368097
1.1718022829168298 13.068977865789288 1463.2912709753089 33.543535165595934 0.3342501223800085
1.1986525573264164 13.073433355273824 1296.4818208881384 35.07205221552953 0.33934676709611855
1.2255953130724266 13.077302073314764 1149.9599444344844 36.67001917601697 0.3445581891911419
1.2525856877695003 13.080471765372396 1021.0209051281641 38.34233726621857 0.3498979202559116
1.279625178293474 13.082914925726879 907.5131021258882 40.091380031499206 0.355363352541833
1.3066636615660614 13.084511705470456 807.4446886462666 41.92256331343117 0.36096872464134694
1.3336956185772655 13.08523274738889 719.1690131816498 43.83925467038923 0.3667153425566913
1.3607009702562505 13.085037222642105 641.1922279612879 45.84633722219565 0.3726120552510699
1.3876282734452852 13.083790874159451 572.3140100709327 47.949041145298565 0.37866826334815673
1.4144815584055508 13.081507734727307 511.2584429736301 50.15199962618811 0.3848890063122572
1.4412105948290228 13.078084030024085 457.2732175938481 52.460657380418276 0.3912824394803554
1.4677959372909881 13.073478238544903 409.38757494840013 54.88131036842563 0.3978596496401478
1.4942013154472573 13.067624970557164 366.86903754996024 57.420140955511535 0.40462968523285825
1.520411150149624 13.060490528868563 329.1403558471295 60.08376894441556 0.4116023037539572
1.5463931613064958 13.05201861459327 295.5692862536298 62.8792909475307 0.41878803011753646
1.5721068331996464 13.042154462455054 265.7059142289431 65.81432352771697 0.4261982197831274
1.597529857349316 13.030842937491615 239.1511572646551 68.89705049014275 0.43384512720239266
1.6226179620499062 13.018040832474387 215.44372674078946 72.13627475511773 0.4417419802113794
1.647369514338301 13.003713721537864 194.28211024407403 75.54147529577858 0.44990306106963274
1.6717178224420792 12.987801064987258 175.39732874555037 79.1227434010285 0.4583432675221171
1.695657337586856 12.970272343942014 158.51781011241516 82.88992941498078 0.4670744705788799
1.7191284145196069 12.951072035446611 143.42196017396844 86.85591423156653 0.47611887408570747
1.7421262839940794 12.930161858450003 129.91330573693077 91.03245337779089 0.48549156646002606
1.7646111499904997 12.907541738513617 117.79044201785076 95.43323533962636 0.4952129123706089
1.7865367913335595 12.88312092673857 106.92460278967758 100.07230592808816 0.5053019673079332
1.8078783968606613 12.85688629099891 97.18037696911554 104.9659726018696 0.5157836237154232
1.8285919638436718 12.828776489294325 88.41709222824889 110.1306348240841 0.5266799467654133
1.848676983995974 12.798836161386477 80.54133146939999 115.58402323952835 0.5380147533295556
1.8680671052830935 12.766956666617142 73.45613321359062 121.3464117226657 0.5498176729026033
1.8867428996496647 12.733136411155051 67.0739973620294 127.43908810467471 0.5621180758043135
1.9046725692974025 12.697345652455242 61.31784014899374 133.88470728754785 0.5749460904900064
1.9218201719923458 12.659562235178191 56.1306935524035 140.70841380555908 0.5883361858012531
1.9381477281048636 12.619732303861781 51.441977312328376 147.938092686375 0.6023274634203929
1.9536411485573726 12.577866214222642 47.210760228563615 155.6024882039153 0.6169566226842023
1.9682712374100502 12.533996539153279 43.380977440049286 163.7347914542538 0.6322698000810085
1.981993014289932 12.488035930352577 39.91207824329538 172.3687965407566 0.6483087542958194
1.9947967709646812 12.439987601746633 36.77962412222605 181.54394559051676 0.6651272931091893
2.0066355319994607 12.389848232965132 33.937122262979344 191.30200283014872 0.6827791748218383
2.0175010095968124 12.337626143084902 31.357158235378858 201.68892248364364 0.7013235283146704
2.0273495240364214 12.283279811081854 29.018655666116757 212.7549016231758 0.7208240161885509
2.0361726315865503 12.226847546273724 26.895166600694434 224.55466348890758 0.7413486601532377
2.043930746245026 12.16829237830912 24.966053233961524 237.14994263569983 0.7629766836127438
2.0506034574801975 12.107624980021596 23.20879149174784 250.6068698411572 0.7857885295036731
2.056185120649061 12.044896089430969 21.613279681351997 264.998884284651 0.8098737407314841
2.0606539678332187 11.980107837762757 20.15989875502294 280.4077569387649 0.8353324255084491
2.063980596552255 11.913264379210112 18.83809127703945 296.92241652903624 0.862269296626318
2.0661522082288353 11.844390351079827 17.633643734504986 314.6432458749915 0.8908052578594889
2.067162636343652 11.773538115821742 16.537545651412913 333.67988532605506 0.9210674078495644
