M[M_sun], R[km], Lambda[1], P_c[MeV/fm^3], rho_c[fm^-3]
0.24162668629717493 15.618656898711224 2160425.4255784233 3.5677272577965504 0.1711233750220791
0.25364177030654217 15.277357913479227 1723194.2611945379 3.784798501496193 0.17388790999562873
0.26603772500088235 14.981303644013146 1383037.3790316721 4.01135712052696 0.17666612500989992
0.2788110948145358 14.723575225156306 1116442.8062185673 4.24765986302967 0.17945672144324712
0.29196413657040565 14.498491646752068 905965.9877587884 4.494331566137415 0.18226625922342654
0.30549875923177366 14.30129084785518 738700.9937498289 4.751525865832573 0.1850904060629247
0.31941283299719414 14.128244907277118 605203.4079193857 5.019928272079907 0.1879358516434986
0.33370963908721496 13.976032306294512 497745.7466641951 5.299758380291195 0.19079913183938357
0.3483886632229419 13.842130063278615 411070.7316998903 5.591749941274131 0.19368664736964744
0.3634497539684721 13.724088187179955 340705.56741170224 5.8960637375406 0.19659334135464698
0.37890153288982725 13.620089568109828 283351.54949426244 6.2135664919752855 0.1995269502996669
0.39473006767790053 13.52857807004299 236448.63884750486 6.5445201764332825 0.20248373382717455
0.41095389874173366 13.44798694399566 197912.76719888055 6.889618046582854 0.20546724891857365
0.42756003183581326 13.37715988091315 166119.3148327948 7.249569128569259 0.20848064221159646
0.44455264246161413 13.315004675037825 139839.07384720823 7.624638974570275 0.21151956609159636
0.4619322723627868 13.260642382195467 118012.4249195023 8.015763375918562 0.21458997895570545
0.4796939396592586 13.21322641436313 99844.28702966655 8.423653169975989 0.21769362522593283
0.4978480837163992 13.172058188856079 84668.84305189659 8.848758199671067 0.22082810351084872
0.5163839614094364 13.136467896898205 71960.32577328314 9.291933731194007 0.22399656786421066
0.5352998351872092 13.105896428046671 61298.27272679784 9.754072683100553 0.22720205953260458
0.5546031405738693 13.079878615445237 52315.10106647053 10.235984293126952 0.2304459288901129
0.5742840000856416 13.057878732822827 44746.04662823023 10.73815220708007 0.2337250329062032
0.5943372360152361 13.039559969557047 38342.27527760734 11.261796043722217 0.2370452462565375
0.6147707207678885 13.024535224424103 32913.97358859615 11.807864797197885 0.24040833531819436
0.6355711385008219 13.012469196675807 28305.275324522598 12.377337024796793 0.24381593223755144
0.6567388053045768 13.003039225013982 24380.07529536048 12.970918862384297 0.24726618288286242
0.6782676455513287 12.995991953852574 21036.718245507225 13.589902588426824 0.25076348885779737
0.700152945875902 12.991066394218553 18180.251508263424 14.235501672940556 0.25431067280786196
0.7223837833177059 12.987994450054904 15735.578625437285 14.908905219080053 0.25790971823620995
0.7449677888451791 12.986643547852504 13640.29338669915 15.611164453688515 0.26156074069854846
0.7678820308294644 12.986776344021143 11840.464113028547 16.343502010673284 0.2652652033236622
0.7911262159546367 12.988120041269887 10293.17013023955 17.10755387127485 0.26902800586898296
0.8146975447298681 12.990655726088244 8960.602936986861 17.904774310124868 0.27285157939414634
0.8385765739645294 12.994106139195907 7810.815947744491 18.736553623536413 0.27673723228295893
0.8627538045305262 12.998384792007979 6817.8370591580315 19.604185535966238 0.2806849957790514
0.8872251600245071 13.003322084044585 5958.675774306023 20.50977898802667 0.28470144763044497
0.9119821511748206 13.008819037319805 5213.800100511419 21.455127074279563 0.28878959913261437
0.9369974393762193 13.014717728478761 4567.559734318013 22.44174556996492 0.2929496304720123
0.9622737371290534 13.020910628701754 4006.766110774606 23.47159531164344 0.29718482796674917
0.9877943856473925 13.027307426059702 3518.406977029179 24.547128011538053 0.30150153970083343
1.0135350887201773 13.03376514058215 3093.861812482732 25.670323082777006 0.3059016775644869
1.0394919195926164 13.040217268922477 2722.9518666289136 26.843065738801805 0.31038594360192495
1.0656436402866558 13.046559999835635 2399.4956058289436 28.06848724157725 0.3149633418954425
1.0919692387285134 13.052675174237756 2106.245518164251 29.348685230483536 0.31963461670871685
1.1184638837627616 13.058512037857458 1869.6506301722834 30.68632757629108 0.32440385692771445
1.1450904633069339 13.063966614557275 1652.9312049737812 32.08490322222787 0.32927972695012075
1.1718511013012591 13.068980373111946 1463.0030148993146 33.54625422311878 0.33425928588420706
1.198703498357159 13.073447965010665 1296.209366280251 35.07496749207449 0.33935640712531945
1.2256458533549557 13.07731635369034 1149.7083280459492 36.67312221331132 0.3445681991091136
1.2526380518661242 13.080477912474871 1020.8027412001557 38.3456637572515 0.3499084578502646
1.2796775565427048 13.082926483518625 907.2901088564454 40.09492130654892 0.35537430806377324
1.306718305729416 13.084516567455431 807.2545349604346 41.92633400691892 0.36098012401901797
1.3337516412270538 13.085226901533293 718.999614068041 43.843297046630745 0.3667273585894441
1.3607576467742473 13.085035899772606 641.0244392072705 45.850642812978414 0.3726245753241959
1.3876873151240452 13.083786924310836 572.1755701165979 47.95362833611225 0.3786813199739899
1.4145409443261603 13.081501685331204 511.16038236866166 50.15691870269503 0.38490279010672307
1.4412621291295544 13.078058912787162 457.1380744044766 52.465900535632834 0.3912968352201341
1.4678547208076322 13.073468374434324 409.29204541187374 54.88690081190972 0.39787469810858767
1.4942620473932473 13.067607087640164 366.7730036612405 57.42610377650987 0.40464543036551937
1.5204721456795165 13.060475242254324 329.0535956727666 60.09013128011694 0.41161879289741904
1.5464546373478674 13.051997402807205 295.4911811010203 62.88608216811532 0.41880531431385026
1.5721693643682408 13.042127600301132 265.6433772357317 65.82157544005833 0.4262163540826633
1.5975917080154134 13.030811777987795 239.0849879722094 68.9047975622615 0.4338641710081585
1.6226734371125113 13.017975341287668 215.38448736483784 72.14455436374094 0.44176199765825075
1.6474317362560849 13.003675651311273 194.2331300608783 75.55032799965026 0.44992412144234933
1.6717810491427378 12.987756757620183 175.35073434818142 79.132167033909 0.45836525274981393
1.6957183038579542 12.970222091302047 158.47061000820733 82.90001588862563 0.46709764926593916
1.7191815633188174 12.950984236082876 143.39244171370092 86.86671545102439 0.4761433335334785
1.7421875455747757 12.930102856845961 129.87345033195444 91.04397383964401 0.48551719524711967
1.7646677532993484 12.907468057780479 117.76036767047812 95.44558598564478 0.4952400124457385
1.7865973925536474 12.883050227333731 106.89952419089926 100.08549751112717 0.5053304341718308
1.8079382466766116 12.85681025964452 97.15580434921009 104.980073504596 0.5158135670119194
1.828650756396288 12.828694777847256 88.39515806904599 110.14577927390151 0.5267117070760391
1.8487334026773894 12.798746505959999 80.52146939337003 115.60023498393045 0.5380482411992474
1.8681231921477532 12.76686172067926 73.43609218786953 121.3637798900981 0.5498530281267724
1.886797368582936 12.733032313526007 67.05639439507202 127.45771017210697 0.562155450145062
1.9047242586303808 12.697235958253232 61.30032090516339 133.9046214944032 0.5749854073176451
1.9218710806531245 12.659444120424173 56.11307705528949 140.72980288285936 0.5883778598576891
1.9381896223573887 12.6195762786436 51.427966704225646 147.96108467351087 0.6023716896515714
1.953693936328204 12.577765471130464 47.200395501905106 155.62714803541544 0.6170033555333789
1.9683164787357197 12.5338544475695 43.37027988293088 163.76134598780683 0.6323195216932774
1.9820402732476456 12.487883671260473 39.908020610584565 172.39733451147248 0.648361446538469
1.994835712244861 12.439829363421499 36.77204113299495 181.57464789251716 0.6651832177779945
2.0066746591851063 12.389684197780516 33.92755474456668 191.3350687608992 0.6828386178421145
2.0175352336008454 12.337449281929258 31.348400292988284 201.72457188645325 0.7013868024881338
2.027381055921072 12.283093061888199 29.01200732934485 212.7932874197269 0.7208911698430678
2.0362002627228386 12.226652365213045 26.888511492663937 224.59614081524182 0.7414203546992416
2.0439549303628484 12.168086716703156 24.959287914363486 237.1947134859307 0.7630530220251078
2.0506256232829325 12.107410373805017 23.203370912463964 250.65535468724153 0.7858702639947099
2.0562030786076404 12.044671567062258 21.607517698801576 265.05134706269996 0.8099610418421808
2.0606686747328298 11.979872564692645 20.15551413797242 280.4645523584873 0.8354256777859542
2.0639910932581738 11.91302021992945 18.8339462155923 296.983971113528 0.8623690260826138
2.066158553191681 11.844136258287064 17.63006258583229 314.7101118852741 0.8909122971904193
2.0671636503660205 11.773277141029038 16.532940964393813 333.7525035911811 0.921182102598625
