M[M_sun], R[km], Lambda[1], P_c[MeV/fm^3], rho_c[fm^-3]
0.24162668629717493 15.618656898711224 2160425.4255784233 3.5677272577965504 0.1711233750220791
0.2536367112141653 15.277450887951938 1723475.007912777 3.7846855341302126 0.17388650191190905
0.2660235142632968 14.981637960730692 1383392.9244975464 4.011119647221929 0.17666325528515578
0.27879145771301256 14.723940982694556 1116937.4871308021 4.2472898565329595 0.17945242992547317
0.29193607795944804 14.49893901913992 906360.5980370924 4.493819324271503 0.18226055529136448
0.3054638261457953 14.301741017286592 739106.5326006183 4.750854003822101 0.1850831486709437
0.3193705665772753 14.128702538623786 605471.8806934385 5.019091848276946 0.18792717342371293
0.3336576421664206 13.976546787005585 498081.1647056265 5.298735383661999 0.19078883196078594
0.3483280113594622 13.842638339235792 411378.1983648722 5.590537825317579 0.1936749198143262
0.3633798759168233 13.724585426973636 340985.5492947717 5.894635281982017 0.19657992499774735
0.37882126476121486 13.62061630227093 283624.64528759406 6.2119044217146975 0.19951179422015322
0.3946403417679131 13.52905689142468 236697.99086648138 6.542626224754076 0.2024671264295513
0.41085348841498115 13.448447467411006 198128.73387519983 6.887455666245178 0.20544883318021032
0.42744763546228043 13.377591488245342 166321.49066623487 7.247118041669243 0.20846036499783238
0.4444296928072538 13.315430860859955 140007.13222283864 7.621905962679445 0.2114978095596245
0.46179785938660145 13.26101914113111 118163.6401274271 8.012700789199625 0.21456628737143946
0.4795472258909558 13.21359034653663 99972.90677866909 8.420237143244039 0.21766794148042634
0.49768867720864274 13.172391513346923 84787.75342632717 8.845001334106406 0.22080090219897544
0.5162119054978137 13.136768435932282 72072.06245330042 9.287775255977479 0.2239672919394356
0.5351145942833518 13.106160961977654 61389.174145423014 9.749484422436007 0.22717064587138722
0.5544052860725888 13.080100931144035 52404.33116301347 10.230936360016265 0.2304123116248008
0.5740672291573099 13.058109293594445 44820.47882737056 10.732666537650381 0.23368981320921686
0.594113388390346 13.039773931349504 38408.1162151954 11.255790180364473 0.2370077215135944
0.6145294937459277 13.024689508687999 32971.242905707244 11.801303285595898 0.2403684303800139
0.6353115404950574 13.012594974042532 28355.060921970984 12.370182199813254 0.24377356798791464
0.6564620575932097 13.003143223837403 24430.435383348668 12.963203578423322 0.24722208548354258
0.6779799321018726 12.99607188678262 21078.36227704453 13.581517342188791 0.2507168020532859
0.6998482182506387 12.991134731151764 18216.837740341507 14.22640153708687 0.2542613041267235
0.722062818133069 12.98804653340756 15768.100321648439 14.899042380981063 0.25785756969335566
0.7446300177498254 12.986670142009615 13668.313364789434 15.600584215344588 0.2615066615382838
0.7675309789491768 12.986746330994885 11866.396298613257 16.33206117171234 0.2652081736109034
0.7907552694937645 12.988094984770676 10316.090162916658 17.09519505561448 0.26896790913347274
0.8143095865206381 12.990606676399915 8981.346042133333 17.891436339512722 0.27278829167730234
0.8381698580953735 12.994062974583745 7828.72100271087 18.72229564020658 0.27667172422683706
0.8623310812384202 12.998306865193134 6833.852410197016 19.588822260645756 0.28061607045179915
0.8867845632661913 13.003233632880832 5972.59821466542 20.49323653471671 0.2846289560350928
0.911525542808537 13.008711888650575 5226.583621105344 21.437326499846332 0.288713382227706
0.9365227049066084 13.014607803396407 4579.375804165226 22.422760997084374 0.2928707793644431
0.9617799076530674 13.020792948953194 4016.5356601974217 23.451188648790772 0.29710195044549415
0.9872834746186043 13.027184208796319 3527.547429435199 24.52520328305363 0.30141444316272215
1.013005107693391 13.033637938007464 3101.7748080517026 25.646965118934993 0.3058115346835307
1.0389472056670865 13.040081746422848 2730.2010911727953 26.817989175826526 0.31029120886252964
1.0650820505060064 13.046420035719773 2406.121450206746 28.041574793144832 0.3148637810462615
1.0913884188771037 13.052544821795207 2122.8502204450856 29.320032231361672 0.31953148350490923
1.1178661034074253 13.058383700552504 1874.8215246368438 30.65559218217973 0.3242954358333828
1.144483417275026 13.063852904872062 1657.6415695294208 32.05199776703062 0.3291660968909702
1.1712202860082235 13.068873038807599 1467.1145669348787 33.51117106963158 0.3341410520397307
1.1980619659507608 13.073352921847961 1300.0167252694491 35.03735327261214 0.3392320270987954
1.2249844049763423 13.077233667486059 1153.099831958129 36.63308601642609 0.34443904853543195
1.2519675688535916 13.080425689544937 1023.8119751947106 38.30274530502175 0.3497725016022609
1.2789859047283518 13.08287076657842 910.0106053302496 40.04923240810196 0.3552329618756531
1.3060136218898069 13.084483134346424 809.6830222234042 41.87768595160248 0.3608330535776483
1.3330342857015565 13.085225051462979 721.2368702492271 43.79114485909907 0.36657233531697475
1.3600273219311723 13.085056321389986 643.0586711783133 45.795095693835506 0.3724630518472341
1.3869453226828021 13.083840959975946 573.9572992359327 47.894449222216934 0.3785128771124102
1.4137790825563004 13.081562344394277 512.7737949410425 50.093459240926144 0.3847249697014694
1.440506760721929 13.0781909183062 458.6265514469832 52.398261390664004 0.3911111234702473
1.4670778201462378 13.073609139811127 410.6050423211935 54.81478274250856 0.39768056923591166
1.4934832787504668 13.067800360488501 367.970945767062 57.34918331516536 0.404442317968122
1.519685467957462 13.06071442824914 330.11369924771 60.00805856525759 0.4114060866157736
1.5456614199615295 13.052278599492492 296.4609484804064 62.79847856014824 0.4185823561667784
1.5713730175973823 13.042456732101662 266.55452426735405 65.72803089717137 0.4259824344376358
1.5967867823112005 13.031181664514175 239.8619293442548 68.80486774900092 0.4336185241463792
1.6218782769965674 13.018430814434154 216.10428245841837 72.03775746206266 0.4415037968902369
1.6466185642100886 13.004162917509614 194.8792158842015 75.43614118838953 0.4496524737243951
1.6709835260013488 12.988311125379495 175.94690310509992 79.01019509192626 0.45807991312167184
1.694915245399373 12.970840297626522 159.02434332804725 82.76992030740782 0.46679868999920043
1.7184042030009163 12.951711174699351 143.8700778137768 86.72740411128291 0.4758278618914472
1.7414052818398944 12.930876537857332 130.32139921685547 90.89538872839965 0.4851866480668144
1.7638892625858982 12.908308847223834 118.16993410725934 95.28629724557881 0.49489049738258645
1.7858225563772463 12.883952342541695 107.2698658169192 99.9153664916236 0.5049632988126673
1.807160539943867 12.857766988258826 97.49178123489861 104.79821885940986 0.5154273982916843
1.827910027396099 12.829786496883496 88.70131082412585 109.95047121001582 0.5263021151231112
1.8479859702617485 12.799870173718379 80.80191247524594 115.39116738800516 0.5376163796897467
1.8674031934659194 12.76810226748613 73.68857034297416 121.13980416130242 0.5493970956208922
1.8860955266493407 12.734366055380987 67.29049123479527 127.21757016891571 0.5616734910747678
1.9040236097255672 12.69859863433616 61.51705148325955 133.64755982378236 0.5744774760995557
1.921201062137496 12.66093421025547 56.30969563432715 140.45399399382168 0.587840479257024
1.9375614818698952 12.621232098845379 51.6091479112112 147.66461429088017 0.60180141412026
1.9530769989930812 12.5794640975092 47.36084442822163 155.30917931850536 0.616400772985717
1.9677312735388248 12.535669556675522 43.51941507750751 163.41895619883843 0.6316784194009731
1.9814926157151966 12.489832427094107 40.044590191247536 172.0293802199985 0.6476820591705523
1.9943320943344307 12.441922625616037 36.8951330969687 181.17879853946243 0.6644621726926432
2.0061925344444727 12.391849235832396 34.04371279179699 190.90875680106217 0.6820722317190725
2.017084222901709 12.339715898661545 31.457284925880707 201.2649652119277 0.700571045977311
2.026971205642787 12.285486233010912 29.109456480439917 212.29776053966398 0.7200232736339359
2.035827234646684 12.229154981081034 26.975877370685627 224.06142987719855 0.7404960941131719
2.043632816308289 12.170735104098494 25.04052552717868 236.61709680210413 0.7620674106870617
2.050349621801457 12.110186579553519 23.279409100651854 250.03034535491517 0.7848166395368306
2.055969373636272 12.047559463457265 21.677622765603495 264.37508110058735 0.8088356959910011
2.060480437323146 11.982882832712539 20.22001179840562 279.7319378820523 0.8342219491799391
2.0638558188616485 11.91616208371933 18.891883462984882 296.19041910441274 0.8610830934166496
2.066082318024442 11.8474174380775 17.68389552553299 313.8482725868434 0.8895326619843755
2.067143582315623 11.776687257482438 16.584441664940577 332.81655727530057 0.9197038501555558
