M[M_sun], R[km], Lambda[1], P_c[MeV/fm^3], rho_c[fm^-3]
0.24162668629717493 15.618656898711224 2160425.4255784233 3.5677272577965504 0.1711233750220791
0.2536464179014102 15.277231849388818 1723098.3729592557 3.7848667460641874 0.17388876063124653
0.266045588948948 14.981146021687476 1382950.8637046223 4.011500585088162 0.17666785869445506
0.2788224814447404 14.72340803254352 1116336.4507548087 4.2478834020977265 0.1794593141595704
0.29198043444882144 14.498232325638794 905751.2216310295 4.494641046461766 0.18226970535866482
0.30551967609877373 14.301032500189118 738545.1757818473 4.751931796757554 0.18509479089164532
0.31943836313763624 14.127957761669949 604935.0724202661 5.020433644747791 0.18794109507998383
0.33374066643235367 13.97573441758235 497551.83259821223 5.300376501003111 0.19080535528930484
0.34842527021917286 13.841822754777898 410879.72769340774 5.592482354301365 0.1936937336671658
0.36349149772634554 13.723777115740539 340535.7418096465 5.896926898995168 0.19660144834969273
0.3789483754450976 13.619852616271487 279296.15538946644 6.214570848712032 0.1995361088237818
0.3947851463299755 13.528271342650346 236310.15961686292 6.54566468664506 0.2024937696355743
0.4110147709036706 13.447676254181467 197777.1443666668 6.890924806825735 0.2054783778371627
0.4276278723178749 13.376869007363904 166004.63704255063 7.251050402950234 0.20849289641493216
0.4446268408583848 13.314762457459693 139730.94681178022 7.626290669897153 0.21153271464843493
0.4620112320720575 13.26040157195703 117918.97837839751 8.017614304124198 0.21460429738178724
0.4797828022532551 13.213008687543494 99755.08970646122 8.425717766257142 0.21770914810371442
0.49794429740380247 13.17185361495396 84596.23885785691 8.851028852279303 0.22084454400590758
0.516488003906966 13.136281313119559 71899.04282687878 9.294447189534372 0.22401426276762268
0.5354100786188364 13.105755870467148 61244.33914149921 9.756845991390701 0.22722104706915655
0.5547228365093894 13.079735504216265 52271.47160333636 10.23902252137655 0.23046608166775917
0.5744122524012354 13.057767122117049 44700.34351467593 10.741468118014643 0.2337463220815438
0.5944742697768054 13.039463218285903 38299.47722792411 11.265426498389358 0.2370679294029956
0.6149180220840754 13.024435047070767 32881.48559217145 11.811831245559738 0.2404324579421074
0.6357269179355565 13.012385207282714 28271.42142296588 12.381662255150784 0.24384154224742235
0.6569038072211844 13.002972463260033 24352.41586943672 12.981204266429414 0.24763769461575505
0.6696941810528582 12.992314390505358 22212.616553285854 13.712888917615143 0.7758619146407485
