M[M_sun], R[km], Lambda[1], P_c[MeV/fm^3], rho_c[fm^-3]
0.24162668629717493 15.618656898711224 2160425.4255784233 3.5677272577965504 0.1711233750220791
0.25364193079070585 15.277368486308294 1723247.9667876002 3.784801403111155 0.17388794616285946
0.26603802229818296 14.98129151514965 1382970.2788859874 4.011363220262507 0.1766661987216042
0.27881116209894913 14.723637995204768 1116544.4325518764 4.247669367210055 0.1794568316774171
0.2919644750049232 14.498513078056366 905974.9468069603 4.4943447241189 0.18226640574060418
0.30549889495833477 14.301313487130056 738705.0614603177 4.751543124342164 0.18509059248776666
0.3194138449455153 14.12822704386441 605150.7969549231 5.019949758204964 0.18793607457033895
0.33371022383633114 13.97603534629422 497736.13677080994 5.299784659645786 0.19079939642887897
0.3483901227644454 13.84211466385005 411063.89191844204 5.591781079426825 0.19368694863984057
0.3634517991233158 13.724064961502096 340690.97227465996 5.896100433984857 0.19659368601541724
0.37890322800116033 13.62007778790163 283352.0508214483 6.213609190723425 0.1995273396608373
0.39473325061315573 13.528535608015169 236452.8669708788 6.544568833108814 0.202484160480487
0.41095639280966345 13.447950635917017 197902.2579588118 6.889673600407869 0.20546772203825975
0.42756338298055935 13.37711946886783 166114.7794027217 7.249632100772202 0.208481163164493
0.44455603126195736 13.314994226101179 139837.1553121902 7.624709191061812 0.21152012506001805
0.46193498116349685 13.260634166128897 118006.45392791019 8.015842061318613 0.21459058765088926
0.479697743992909 13.213217557588843 99836.9316636151 8.423740937762098 0.21769428511698724
0.4978521229759173 13.172057897589093 84661.4205900641 8.84885472619646 0.2208288024041352
0.5163881366741558 13.136456576148941 71955.8857980944 9.292040578394834 0.22399732007516562
0.535303581691169 13.10589737222944 61292.299016362056 9.754190575308561 0.2272028666850646
0.5546086955644849 13.079870772725823 52315.677375755404 10.236113998681967 0.23044679267851098
0.5742890306273057 13.057876655270436 44742.386546567286 10.73829316239517 0.23372593788298862
0.5943432441537805 13.039567920499149 38340.39115298749 11.261950368323907 0.23704621047944155
0.6147773315821579 13.024529456460272 32912.3950170212 11.808033402606913 0.24040936072039318
0.6355763987350121 13.012472346603483 28303.434663326818 12.37752087939481 0.24381702085426885
0.656746398356713 13.003034131522005 24379.479190392474 12.97111712189215 0.24726731605290916
0.6782756178151451 12.995997791323086 21035.888781342797 13.590118067834034 0.2507646885894063
0.7001605335196797 12.991073227889876 18178.917526229103 14.235735527411265 0.2543119414797788
0.7223911960978822 12.98800107270704 15734.734832770439 14.909158677991531 0.257911058369017
0.7449770109198673 12.986647216299852 13639.609474286743 15.61143635269206 0.2615621304658969
0.7678922017799156 12.986754455265583 11839.886815969418 16.34379603136751 0.26526666894308
0.7911360766799175 12.988129918507129 10293.151811078345 17.107871489025538 0.2690295503365502
0.8147054164214944 12.990659424318416 8959.964063427497 17.905117098101744 0.2728532058985861
0.8385848490457043 12.994129036607923 7810.0336332735405 18.73692006144398 0.27673891587554417
0.8627631422290434 12.998392418754435 6817.329437590084 19.60458038770904 0.2806867672298014
0.8872358013096832 13.00333124901504 5957.515332686522 20.510204153666564 0.28470331077220196
0.911993425501623 13.008835035397572 5213.4862472999785 21.455584583975376 0.28879155805664297
0.9370100439586297 13.014730173273055 4567.374695692204 22.442233518073873 0.29295165713066135
0.9622840839144939 13.02092242244101 4006.3235272473567 23.472119820617845 0.297186958153541
0.9878074778314075 13.027314281872767 3518.1047270981494 24.54769154971873 0.30150377837050113
1.0135468829202563 13.033763400207699 3093.62407202175 25.67092346901916 0.30590399457062317
1.0395085285409578 13.040219252307011 2722.8300445189966 26.84371031173603 0.3103883786824025
1.0656586985180583 13.046552906226305 2399.354262664497 28.069179017826645 0.3149659010765964
1.0919850215812466 13.05268035483516 2116.7228271075396 29.34942175857274 0.3196372677576074
1.1184792204322713 13.058515134991834 1869.5203399984318 30.687117648069155 0.32440664395710694
1.1451066244352848 13.063969303530913 1652.953667762972 32.08574425940948 0.3292826166710379
1.1718674109395355 13.068988922772622 1462.890983365008 33.5471560891526 0.33426232526572736
1.1987190563554064 13.073441509341967 1296.0858229359726 35.07593444266098 0.33935960456876807
1.225663111294711 13.077313390887602 1149.6251058501196 36.67415144285036 0.3445715192442852
1.2526554897133326 13.080479431669215 1020.7006883269513 38.346767105253356 0.3499119530148565
1.2796946659494552 13.082923472649892 907.224089904404 40.09609589725731 0.3553779418550196
1.3067363324512447 13.084517171859257 807.2153389256182 41.92758469465152 0.360983905037512
1.333771322137917 13.085230753790842 718.943951647201 43.84463785075707 0.3667313441527204
1.3607755703968476 13.085037057484334 640.9745216131861 45.85207092455483 0.3726287280786658
1.3877061605326486 13.083782778436776 572.1369237486249 47.955149853756964 0.37868565070436333
1.414560316473718 13.081497067294022 511.1203455367558 50.158550306667 0.384907362040859
1.4412824009762635 13.078052876491057 457.12102898079263 52.46763963629432 0.39130161013896586
1.4678742762573853 13.07346254161881 409.2413568871846 54.88875510813103 0.3978796895405275
1.4942819935672271 13.067602643472982 366.74859764565065 57.42808159069764 0.4046506528846549
1.5204923799142394 13.0604687499232 329.0278967740396 60.09224161403296 0.411624262209371
1.5464752346292905 13.051988533866316 295.46929342069444 62.88833476426363 0.4188110473501371
1.57219104321815 13.04211759952887 265.6303302806897 65.82398084926216 0.42622236910448863
1.5976132722628593 13.0308014560774 239.0692237441901 68.907367218124 0.43387048772063774
1.6226942308594443 13.017963806575263 215.36621861732252 72.14730066477162 0.44176863733622057
1.6474518328087076 13.003665353720608 194.2170875898219 75.55326439993394 0.44993110706903644
1.6718011116452818 12.987741821194534 175.33955337880917 79.13529281473494 0.4583725451607196
1.6957395393849395 12.97020412140998 158.46345238115322 82.90336153904306 0.4671053375608543
1.7192032253332399 12.95097023585014 143.3792366949276 86.87029818907324 0.47615144667241843
1.7422072947410534 12.930084036118915 129.8656296025367 91.04779515678025 0.48552569627117154
1.7646876125793214 12.907447034704488 117.75129829897878 95.4496826839776 0.49524900151662904
1.7866164320084206 12.88302624448419 106.88512536323967 100.08987315745897 0.5053398766267827
1.8079567038171305 12.856785343830447 97.14620601967749 104.98475078311934 0.5158234992226676
1.828669598753228 12.828667559558859 88.38525310297925 110.15080271165435 0.5267222420208778
1.8487517762600358 12.798717174610704 80.51308430054499 115.60561245840454 0.538059349205887
1.868141739557698 12.766828707131738 73.42858782544009 121.36954096772875 0.549864755569629
1.8868150269090176 12.732998288577985 67.05056814234155 127.46388718890756 0.5621678473684935
1.9047418291828435 12.697199390448382 61.297090047549894 133.91122713512706 0.5749984489034673
1.9218877237899674 12.659405971610926 56.11000675967687 140.73689776558282 0.5883916833872819
1.9382068757516426 12.619533155221344 51.42459350974595 147.96871127325898 0.6023863597956339
1.9537092683649944 12.577721121225446 47.195095015850704 155.63532789273597 0.6170188571818166
1.968331497439705 12.533807174426418 43.36644066344893 163.7701543600913 0.6323360147892897
1.9820543766686818 12.48783259852372 39.90235786823619 172.40680083496977 0.6483789250697803
1.9948485772744442 12.43977626695138 36.767377487271666 181.58483217675374 0.6652017685929446
2.0066865142912125 12.389624379743088 33.926943225560905 191.3460371208272 0.6828583357943028
2.017546335258509 12.33738971378017 31.34691426049298 201.736397253275 0.7014077913477662
2.027391123644399 12.283028949234472 29.008895384472456 212.80602052328115 0.7209134456459385
2.0362098935303465 12.226586638478144 26.885258339957208 224.6098994707823 0.7414441368628905
2.0439631237679934 12.168018310955082 24.956951549018733 237.20956470335426 0.7630783447150711
2.0506321241767753 12.10733919695381 23.201187231651684 250.6714379582619 0.7858973767542053
2.056208904292916 12.044597022957877 21.605444420255836 265.06874994713127 0.8099900012529607
2.060673339605984 11.97979515928083 20.153508147894698 280.483373220819 0.8354565483806955
2.063994776051987 11.912939420040642 18.832412980794867 297.0043900744099 0.8624021084579346
2.066159761883125 11.844052006129296 17.628261210045235 314.7322928504339 0.8909478045529801
2.0671646168463322 11.773188987821216 16.532546566069943 333.77659280729705 0.9212201495912471
