M[M_sun], R[km], Lambda[1], P_c[MeV/fm^3], rho_c[fm^-3]
0.24162668629717493 15.618656898711224 2160425.4255784233 3.5677272577965504 0.1711233750220791
0.2536400389049231 15.27739752326424 1723275.5050503956 3.784764675356098 0.17388748836911072
0.26603339055462855 14.981412961444708 1383164.99032613 4.0112860121641445 0.17666526570730057
0.27880470097366694 14.723711321955 1116607.3873585397 4.247549067699635 0.17945543638438372
0.2919561084455449 14.498609263589335 906083.4297724615 4.494178177481814 0.18226455120514676
0.30548749363256467 14.301478448215805 738888.5421824218 4.751324676752568 0.18508823283688552
0.3193999245868885 14.128369034015495 605258.1294319168 5.019677801617699 0.18793325291578047
0.3336943506576436 13.976245627887863 497865.14120738924 5.299452035619495 0.1907960474568573
0.3483722611439709 13.842233607801154 411155.0216445739 5.591386958608305 0.19368313541250248
0.36342829306450414 13.724244543598772 340794.1246688887 5.895635963615957 0.19658932361142012
0.3788756816350979 13.620280625438365 283432.2269009035 6.213068751718549 0.19952241150784375
0.39470431432578046 13.52869817359204 236529.22661367027 6.543952987702992 0.20247876034824436
0.410924424626832 13.44809058694605 197974.61454945785 6.8889704620285 0.20546173381676047
0.4275250247349777 13.377294684754222 166191.61505210065 7.248835073280188 0.2084745695603122
0.44451655675712726 13.315140057490911 139892.47466749023 7.623820478389976 0.21151305033570986
0.46189150332199114 13.260758958500986 118058.42594177737 8.014846165239629 0.21458288358957092
0.47964971429122455 13.213343399841396 99876.04280066525 8.422630094876506 0.2176859331314175
0.4977996452431163 13.172161598312103 84702.55859632799 8.847633033199997 0.22081995682485153
0.5163323665982418 13.13655732046196 71991.5931802446 9.290688268516796 0.22398779972931754
0.5352447432109612 13.105969160685992 61323.528738025416 9.752698482487354 0.22719265102779984
0.5545437016902173 13.079951141087376 52344.4457773584 10.234472400018856 0.23043586027180438
0.5742190947888844 13.057949518081221 44766.834538308285 10.736509191053715 0.23371448423437133
0.5942681151809409 13.039615031516101 38363.41092436492 11.259997201780662 0.23703400705953429
0.6146982673723163 13.02458403913712 32931.14374997391 11.805899506295434 0.240396383070492
0.6354927944457718 13.012493730938495 28320.088761972245 12.375193999298519 0.2438032432245573
0.6566568979952727 13.003072397819448 24394.066439539278 12.96860794316125 0.24725297461622053
0.6781822902543841 12.996013577322067 21048.764298515533 13.587390967880905 0.2507495048275011
0.7000610502771687 12.991086442078979 18190.80861493777 14.232775888906744 0.2542958852964466
0.7222871300975655 12.988013330057473 15745.264751113578 14.905950944621384 0.2578940978735248
0.7448664384998535 12.986662804910779 13648.812687035066 15.607995259663412 0.26154454188090165
0.7677783089995349 12.986759371276975 11848.548764722897 16.340074990832996 0.26524812048928464
0.7910156004921668 12.988126844287732 10301.54002329612 17.103851832307136 0.2690100041070986
0.8145808759156065 12.990642085965188 8967.307438485997 17.90077891907971 0.2728326215493212
0.8384542901177494 12.994100732106691 7816.191608485994 18.732282599110786 0.2767176091356106
0.8626270719308393 12.99836234608384 6823.000183307493 19.59958336023412 0.28066434871898177
0.887092545427086 13.003310694443762 5962.602702125318 20.504823519035156 0.28467973199696656
0.9118442694573009 13.008791608824376 5217.433567262991 21.44979465419309 0.2887667672540036
0.9368551293358857 13.014684751591613 4570.9649151107 22.436058407640427 0.2929260092374955
0.9621263936817511 13.020868344347049 4009.766762238321 23.465482059173493 0.2971600002320444
0.9876396415261053 13.027270089902961 3521.118817765099 24.540559905462505 0.30147544773342166
1.0133808349104438 13.033728145914209 3096.18729520557 25.663325541923307 0.3058746727066821
1.039329437094154 13.040188806591376 2725.1102706222114 26.835553244713456 0.3103575627520305
1.0654747823543576 13.046514377605495 2401.640632371562 28.06042464244808 0.3149335148353769
1.0917950079012488 13.05263648104041 2118.726011415088 29.340101094655893 0.31960371909042357
1.1182843281217887 13.058476307771173 1871.1965368863112 30.6771194533481 0.3243713746773616
1.144907946945212 13.063942720706674 1654.3043072232665 32.07508434296469 0.3292459392514493
1.1716621930714866 13.068948402746543 1464.2424419481617 33.535743281342505 0.3342238629266976
1.1985090024991476 13.073411010927398 1297.323125687049 35.06369808455051 0.33931914224978094
1.2254479801967375 13.077284925529836 1150.7222961328762 36.661127033505586 0.3445295045158742
1.2524357239098927 13.080456932057425 1021.7101757020969 38.33280484691543 0.34986772364127333
1.279470315811371 13.082904144866918 908.0981230625581 40.08123217598342 0.3553319584670466
1.3065068462620077 13.084505323304866 808.0382386453066 41.91175809261309 0.3609360588218301
1.3335364350789807 13.08523256654532 719.7220348886123 43.827670994364965 0.36668090988091107
1.3605362821118308 13.085046084669518 641.6709917190828 45.83399935347444 0.3725761784048014
1.3874641549764388 13.083802763042659 572.6926373764313 47.93589640886327 0.37863084918504863
1.4143147362473163 13.081527990558383 511.63841934481087 50.13790395430963 0.38484950868627854
1.4410407235885445 13.078107700562317 457.60275215316085 52.44563314044493 0.3912411885464849
1.4676225133337393 13.07351359910165 409.68172959321845 54.86529106592746 0.3978165285588315
1.4940285494527612 13.067664933295442 367.15258753095367 57.40305471145883 0.4045845681348664
1.5202370583354188 13.060543903750485 329.38661838634977 60.06553801323371 0.41155505499912715
1.546216673318143 13.052081092471239 295.7834173371649 62.85983118708214 0.4187385034800753
1.571931664357626 13.042224846200837 265.9408485516998 65.79354381585671 0.42614625755559266
1.5973471169190154 13.030914962471627 239.30754718346327 68.87485208184532 0.4337905592095501
1.6224393284022236 13.018135930095596 215.58715970173648 72.11255057343583 0.44168462272408804
1.6471912463436689 13.003822308662283 194.42566993470186 75.51610914905557 0.44984271560771366
1.6715462581636336 12.987922125237283 175.53711231245816 79.09573540238101 0.4582802469432695
1.6954800166726403 12.970409557295246 158.64703687368052 82.86102844236387 0.46700805622797953
1.718944271588267 12.951192652077093 143.53763928856995 86.8249655036942 0.4760487904441405
1.7419585810020974 12.930348976202875 130.00936553666205 90.99944400937234 0.4854181327656065
1.7644384524585317 12.907726668542692 117.88643040388757 95.39784752438435 0.4951352636022527
1.7863649149923935 12.883319247005407 107.00618231265767 100.03450885854559 0.5052204028716397
1.8077078773497401 12.85710445543328 97.24879449181243 104.9255703870887 0.5156978295276495
1.8284352271934983 12.829041522499152 88.48554992988875 110.08724296608396 0.5265889471645476
1.8485128191439635 12.799090843717321 80.60475719959479 115.53757370731856 0.5379188046245115
1.8679084536130284 12.767233424710918 73.5108984519447 121.29664920547319 0.5497163746535275
1.8865868882208077 12.733434633638598 67.12199783267896 127.38573338055159 0.5620109932987232
1.9045200958285806 12.697661963326956 61.36331993153752 133.8276508099148 0.5748334432872797
1.9216741242881963 12.65990150968423 56.17107828510364 140.64713216191137 0.5882167858551961
1.9380081370492792 12.620090765366916 51.48211705541965 147.87221912265684 0.6022007523431668
1.9535043243689232 12.57824793099892 47.2464178123679 155.5318367114938 0.6168227310337494
1.9681423567420389 12.534402617340561 43.41295643636146 163.65871224990104 0.632127346789822
1.9818759930022631 12.48846477146444 39.95002745743009 172.28703544776678 0.6481577913771867
1.9946792280176067 12.440444503541274 36.80771723031311 181.45598447832882 0.664967070723689
2.0065301749334674 12.39032868637465 33.96294261670027 191.2072708642149 0.6826088740305399
2.0174016892663307 12.338132386135353 31.381074587238203 201.58678999063434 0.7011422532141186
2.0272595346652458 12.283810403389124 29.042126797593493 212.64493058937958 0.7206316284442823
2.0360934333657092 12.2274085031875 26.91599159687534 224.43583678192647 0.7411432653613582
2.0438595024675608 12.168883167313817 24.983102203235084 237.0216817061398 0.7627579869455943
2.0505437195013325 12.108246082458113 23.225448315014926 250.46797046739204 0.7855543765561669
2.0561350148504953 12.045537268806262 21.628270497231583 264.8485905328863 0.8096236431966647
2.0606127693098806 11.980779516945377 20.175019900327396 280.24492671374117 0.8350648700013074
2.063953388840348 11.91396613194288 18.85130451546506 296.74608071697924 0.8619836010147383
2.0661362659522555 11.845121646617235 17.645926220116007 314.45169668671764 0.8904986252838881
2.0671574130153814 11.774301707719188 16.548603440110796 333.4718602750017 0.9207388488983494
