M[M_sun], R[km], Lambda[1], P_c[MeV/fm^3], rho_c[fm^-3]
0.24162668629717493 15.618656898711224 2160425.4255784233 3.5677272577965504 0.1711233750220791
0.25364518936044395 15.277265169753054 1723045.734874255 3.784843513864567 0.17388847105308583
0.26604221866729116 14.981223243409294 1382926.0880614435 4.011451745663366 0.17666726849882944
0.27881913349038556 14.723442914941703 1116404.41977076 4.247807302408821 0.17945843151785887
0.2919746392191329 14.498335677211614 905778.7506124176 4.494535688845043 0.1822685321771504
0.3055112221426422 14.301149482004654 738578.6259317966 4.751793602966608 0.1850932981349563
0.3194298039862163 14.128047813914508 605033.0920523051 5.020261596026349 0.18793931000809413
0.33372993778545723 13.975843047542709 497618.6422801487 5.300166066763425 0.19080323656568474
0.3484125430783917 13.841880086216579 410938.216324083 5.592233008334133 0.1936913211763401
0.36347797994773867 13.723899431762911 340621.1238938571 5.896633038194054 0.1965986883468611
0.37893218489735225 13.619912801869681 283241.8188284503 6.214228915784893 0.19953299080720033
0.3947665989037736 13.52836512117005 233248.6755111797 6.545275035802595 0.20249035292407838
0.4109940127340225 13.447785165435999 197827.32627734996 6.890479914307068 0.2054745889457818
0.4276040925366095 13.376975778254756 166049.06320183864 7.2505460925504615 0.20848872438423852
0.44460137707004593 13.314845987736422 139764.5333624536 7.625728334737838 0.21152823809898647
0.46198288520774605 13.260488835293922 117947.9928962141 8.01698413366413 0.21459942250380767
0.47975193358451595 13.213086136537028 99790.25671974891 8.425014844859803 0.21770386311747253
0.49791216162678287 13.171914345190114 84620.46194346028 8.85025577111649 0.22083894656797665
0.5164532133128832 13.136334540776595 71920.58582809955 9.29359143501739 0.22400823820247306
0.5353737010734964 13.105792142437421 61259.918993767234 9.755901759286997 0.22721458235636344
0.5546832444076192 13.079786403656 52288.340048992846 10.237993758591308 0.23045929313314908
0.5743676882901604 13.057802670650025 44715.91431861208 10.740339130285058 0.23373907363060326
0.594428246414315 13.039484458645163 38316.95992337608 11.264190407371991 0.23706020628395041
0.614868090073994 13.0244784424516 32891.269675689495 11.810480746454887 0.2404242446542919
0.6356744441550988 13.012407854901031 28282.224259170507 12.380189587321647 0.2438328224719297
0.6568478704050722 13.002995538481109 24361.58696348056 12.973994938731769 0.2472837644738601
0.6783816488687212 12.995969794717109 21020.034104250906 13.593245860419179 0.25078210330053463
0.7002736834248658 12.991052873854862 18165.39408597801 14.239130067181177 0.25433035702370116
0.7225115976013429 12.988000540536039 15724.249923476837 14.91283781401223 0.25793051134801925
0.7451018390493157 12.986644401966807 13628.17754500217 15.615383182709026 0.2615823040429078
0.7680254601523258 12.986763222579802 11831.58635450228 16.348064005322154 0.26528794372279907
0.7912739944434988 12.988148047275711 10285.706136078143 17.112482027942484 0.26905196982604385
0.8148502055249459 12.990677813869643 8952.398863077276 17.91009304323252 0.2728768164024345
0.8387370977895059 12.994139093408752 7804.434000655107 18.742239342161216 0.2767633552181701
0.8629192293537633 12.998427110806063 6810.93124367684 19.61031216973557 0.28071248212090866
0.8874059235763267 13.00336762310103 5952.552193369371 20.516376025152006 0.28473035687001497
0.912164082001254 13.008862263736722 5208.92680667964 21.46222602229189 0.28881999477224013
0.9371874777627917 13.014764062700717 4563.034653045507 22.449316856893294 0.2929810772874757
0.9624734823976421 13.02097483892313 4002.5340519478486 23.47973395361651 0.297217881410028
0.9879983341316383 13.027351469020783 3514.8466891088506 24.555872317467184 0.301536276677173
1.0137448689806354 13.033805678354653 3090.67694271495 25.679639204195844 0.30593763027122584
1.0397110467139503 13.040276620815026 2720.0664389380177 26.8530675693773 0.31042372871681406
1.0658646134321765 13.046595431702864 2396.9963890891872 28.079221600782276 0.315003052957799
1.0921998902981123 13.052730266167558 2114.6684858293966 29.36011407332515 0.3196757535256014
1.1187015142138694 13.058560210036921 1867.406947933569 30.69858735409242 0.32444710408832245
1.145335096139093 13.0640141953288 1651.1788175076213 32.09795392106211 0.32932456786587305
1.1721014073567642 13.069029444815818 1461.2539838187313 33.560248928846484 0.334306449485424
1.198960164056494 13.073488766595501 1294.6661763095776 35.08997225813853 0.33940602381889196
1.225909334812598 13.077347762355894 1148.4316988976761 36.68909349641475 0.34461971999610375
1.2529079802384662 13.080511554369028 1019.5949050195302 38.36271856679863 0.34996230364710146
1.279921699070663 13.082914860171888 906.3499356847852 40.20435958455036 0.35567453426599593
1.299182481081924 13.07853801867759 830.6182130072406 42.19797372530948 0.7179315489172813
1.3070147897172544 13.058317793777901 791.4204295085897 44.786089730265545 1.0274099624975892
1.3080908857329068 13.024268187197443 768.9045647353205 47.8709116296061 1.3065210289500855
