M[M_sun], R[km], Lambda[1], P_c[MeV/fm^3], rho_c[fm^-3]
0.24162668629717493 15.618656898711224 2160425.4255784233 3.5677272577965504 0.1711233750220791
0.25364503140465633 15.277271233724361 1723220.2742008436 3.784841251758979 0.17388844285703095
0.2660419651570957 14.981244333558964 1382996.8452391778 4.011446990220091 0.17666721103210395
0.2788178365839607 14.723481318449386 1116285.8613728257 4.247799892696576 0.17945834557636303
0.29197435573259983 14.498359077305455 905845.253853472 4.494525430378522 0.1822684179467448
0.3055109370359401 14.301159970699317 738593.5821001282 4.751780147366956 0.18509315278879965
0.31942894890389 14.128059504069666 605029.9057873681 5.020244844125172 0.1879391362006538
0.333728442177692 13.975891975730859 497607.1463025249 5.300145577463151 0.1908030302724289
0.3484115543674649 13.841934142757793 410948.25748120656 5.592208730425656 0.19369108628089698
0.3634760577750026 13.723883702848758 340613.9694290963 5.896604426162696 0.19659841961660762
0.3789311345552712 13.619913725217915 283250.0687484742 6.214195623309689 0.1995326872199132
0.39476650391038903 13.528342178324198 236366.8825410622 6.54523709739751 0.20249002025551804
0.41099192728670514 13.447785914134952 197823.80557002474 6.890436597472139 0.20547422004143834
0.4276023250616854 13.376973228362688 166046.77116692468 7.250496990716651 0.20848831817735114
0.4445987959324219 13.314859614706585 139772.2120283193 7.625673583569445 0.21152780224448117
0.4619805014379988 13.260495734488835 117951.81311583275 8.01692277803704 0.21459894786842823
0.4797489670479956 13.213103395134887 99783.76901331234 8.424946406225516 0.21770334855461815
0.49790813775787013 13.17192939845315 84620.17026720074 8.850180501779349 0.22083840158581564
0.5164492149729243 13.136346990052584 71921.81237353866 9.293508116710356 0.22400765163639724
0.5353701500414774 13.105802165264324 61260.20535182975 9.755809826962627 0.22721395293900817
0.5546807882231684 13.079767190961986 52292.833360106095 10.237893596540994 0.23045863219016502
0.5743637311064461 13.057817803740665 44716.19201134385 10.740229210608536 0.23373836791223113
0.5944233686425657 13.039491641346915 38317.795370221545 11.264070060465071 0.23705945435429815
0.6148623806666784 13.024477387218083 32890.86356962377 11.810349261201587 0.24042344500457355
0.6356696393878631 13.012409105550114 28282.727791574045 12.380046208234157 0.24383197351371352
0.6568423725131998 13.002996538865949 24363.230835480244 12.97384032424037 0.24728288076082994
0.6783768879570937 12.995976212308058 21021.07769436963 13.593077814608383 0.2507811676664823
0.7002681601378479 12.991057607220762 18165.749697806838 14.238947688804279 0.2543293676121055
0.7225052055283039 12.988001001986829 15725.143630556538 14.912640143906945 0.2579294661916603
0.7450955369215617 12.986647081558102 13629.177662617707 15.615171129031225 0.2615812201651676
0.7680188477125667 12.986762050567986 11832.06016088137 16.34783469592545 0.2652868006729693
0.7912669201820471 12.98814209723971 10286.416389363076 17.11223431169279 0.26905076526580535
0.8148441205420568 12.990663250831311 8952.732790276847 17.909825692665507 0.2728755478431105
0.8387290068955747 12.994146706152339 7804.759427525739 18.74195354318943 0.2767620421197711
0.8629115243603738 12.998425784110719 6811.288075451624 19.61000420559176 0.28071110048001824
0.8873962096566456 13.003366244205182 5952.793266091699 20.51604441324679 0.2847289036952291
0.9121542443487655 13.008869997247585 5208.916954070736 21.461869178496194 0.2888184668704443
0.9371774080423217 13.014763720190304 4563.354320085421 22.448936267862116 0.2929794965373147
0.9624654160581586 13.020961076028655 4002.7304242496366 23.479324842287838 0.2972162198873634
0.9879877668647037 13.027352058220488 3514.8857379859815 24.555432757707084 0.3015345305149149
1.0137332396083636 13.033812263866054 3090.4337272562 25.679170897711714 0.30593582298631283
1.0396996886456247 13.040271445570122 2720.1808670588516 26.852564789844777 0.3104218293062755
1.065852772893419 13.0465980217777 2396.8699877587887 28.078681994105605 0.31500105671806305
1.0921890428269345 13.05273119378321 2114.6798868901765 29.35953955225823 0.3196736856025182
1.1186895688783052 13.058557364518066 1867.496925094977 30.6979710579532 0.32444493006375635
1.1453239749347532 13.064013067156534 1651.3250642332794 32.09729786164269 0.32932231371032716
1.1720897349693333 13.069019800341552 1461.384005965082 33.559545408933815 0.33430407855078237
1.1989477461050408 13.073478202236084 1294.781217350748 35.08921795640086 0.33940352954753716
1.22589588040282 13.07734307323103 1148.4997944417942 36.68829060216978 0.34461712998355487
1.252894159399166 13.080504581877795 1019.657986479336 38.36186382095225 0.34995961213437277
1.2799388616064387 13.082943054841135 906.2231649147519 40.112232198017665 0.35542786217878236
1.3069915971973325 13.084545245721149 806.3752034404155 41.94476651169244 0.3610358482734605
1.3340244070139338 13.085238392058567 718.1710064495945 43.863057824614586 0.3667860978411339
1.3610339666299007 13.085028765175709 640.2881432957089 45.87169045857297 0.3726857790184783
1.3879741720579633 13.083780539672674 571.4721438439154 47.97605275034134 0.3787451470956443
1.4148186328395909 13.081456786425443 510.5825432335573 50.180965777419864 0.38497017266014444
1.4415507750232743 13.078014804953531 456.6270693428309 52.49153209662953 0.391367209883315
1.4681463199943277 13.07341302895452 408.7788157952564 54.91423035329546 0.3979482643188872
1.4945570608954013 13.067538902236372 366.3323151364779 57.45525398559518 0.40472240297785766
1.5207697765292199 13.06038530391423 328.6766953215916 60.121234860499264 0.4116994034503942
1.5467539911256805 13.051890720157575 295.12259998030527 62.9192827449036 0.4188898124213393
1.5724712412435162 13.042001724383644 265.3179313785323 65.85702855637284 0.4263050089643642
1.597885171499222 13.030659932558219 238.77493349623833 68.94267177726806 0.43395727317412025
1.622993126959603 13.017849106241089 215.08574999556888 72.1850324637412 0.4418598607642357
1.6477358834001352 13.003487120103067 193.97439372646116 75.59360833517353 0.45002708433488814
1.672082998934953 12.987547763157183 175.13702270497237 79.17823900267132 0.4584727381258389
1.6960209130336388 12.96998270226789 158.26836988346219 82.9493289949132 0.46721097064056494
1.7195001670222025 12.950765268392988 143.19348328767566 86.91952354537862 0.47626291788511405
1.7424817583123553 12.929818132594166 129.7045996439723 91.10029890304824 0.4856424977806835
1.764963822269875 12.90715415417082 117.60459813532528 95.50597061721162 0.4953725098106292
1.7868753534446038 12.882677165564782 106.76407043439413 100.14999428946139 0.5054696154213625
1.8082260908492782 12.856437759369785 97.02849831077742 105.04901687771094 0.5159599684092399
1.8289418472532786 12.828300234499114 88.28028114109165 110.21959193663999 0.5268661241513456
1.849011474247066 12.798309400252547 80.41753413980526 115.67950072109151 0.5382119768597191
1.8683842569133788 12.766360050271695 73.34282139864018 121.44870081336104 0.5500258960064892
1.887059857908974 12.73252870426503 66.96680688956964 127.54863386373461 0.5623377310363867
1.9049813722005506 12.69669739256092 61.22134502482101 134.0019933559691 0.575177649606071
1.9221207483308227 12.658864859135171 56.04168711633054 140.8343875393568 0.588581630540081
1.9384301636871728 12.618961058768978 51.36172486803162 148.07350842510954 0.6025879423312018
1.953923258401799 12.57710189852839 47.13373026564268 155.74772847805744 0.6172318675424581
1.9685355971646994 12.533163254847695 43.31746667261833 163.89086244709083 0.6325615332521033
1.9822462017981861 12.487143626544361 39.85614437565579 172.53688182712915 0.6486191053990412
1.995029509612357 12.439047506573782 36.72491449740636 181.72478054889314 0.6654566864932905
2.006861807874188 12.388872377229587 33.88482901642002 191.49676169267326 0.6831292951647798
2.0177025811708003 12.336582230854082 31.310326249382996 201.89890055986106 0.701696218687327
2.027534957352268 12.28218597078218 28.97487129999904 212.98099987915572 0.7212195615603588
2.0363385995809247 12.225696662969993 26.854599298702965 224.79897449211808 0.7417709575385072
2.0440767963806437 12.167086632026866 24.929149661171135 237.413656530002 0.7634263400276999
2.050729732292391 12.106360075110631 23.174947528935387 250.89216728111566 0.7862690101818306
2.0562961927152306 12.043595045635541 21.582445045873143 265.30784493172644 0.8103877584129474
2.060736271646208 11.978730107136922 20.13227928413954 280.7420280918432 0.8358808025705692
2.0640331923867534 11.911813537780017 18.811462486607564 297.28501169234846 0.8628567657610894
2.06618680106084 11.842894784992282 17.60981113289626 315.0371346519046 0.8914357963193669
2.0671720480572104 11.771986219885532 16.515219080923014 334.107665411154 0.9217430523231462
