M[M_sun], R[km], Lambda[1], P_c[MeV/fm^3], rho_c[fm^-3]
0.24162668629717493 15.618656898711224 2160425.4255784233 3.5677272577965504 0.1711233750220791
0.25364390525328523 15.277301796196559 1723263.3418172312 3.7848184390769486 0.17388815850795464
0.26603977861135897 14.981269807222187 1383015.463314882 4.011399033172306 0.17666663149948378
0.2788147082022748 14.723532629848517 1116437.7580733981 4.247725168577314 0.17945747888918642
0.2919692250808069 14.498415390765782 905881.2584626288 4.494421978117612 0.18226726598180956
0.3055039076436343 14.301234186454277 738681.1079972363 4.751644453990356 0.18509168704135767
0.31942146577445574 14.12812234619199 605120.7463661385 5.020075909818747 0.187937383442022
0.33371849515165414 13.975980463362465 497700.15323640296 5.29993895431324 0.19080094992015909
0.34839928410412857 13.842041123496076 411014.2132920396 5.591963902276419 0.1936887175012032
0.36346117164415626 13.724003432770507 340657.0855042477 5.896315892216226 0.1965957096447221
0.3789150932666894 13.620015164542707 283315.7310822481 6.213859891519501 0.1995296257502341
0.3947477252341461 13.528453968638937 236403.71857864023 6.544854516071416 0.20248666553413025
0.41097152153258615 13.447896433530913 197874.66061406425 6.889999780394892 0.20547049992390534
0.42757953906390783 13.37706363179274 166083.11087007527 7.2500018384068845 0.2084842219091891
0.4445738951233605 13.314961656803641 139805.78714549128 7.625121464329815 0.21152340702032219
0.4619551549922083 13.260578977943236 117986.4685955835 8.016304060931422 0.21459416159140499
0.47971935418973116 13.213163843998451 99812.59095532924 8.424256266065086 0.21769815966540998
0.49787630815943 13.171995471103719 84648.97636913 8.849421483014476 0.2208329059656542
0.516414691478747 13.136411024720127 71941.62817369646 9.292667935192371 0.22400173670613144
0.5353329639205212 13.105846456260654 61279.96572688575 9.754882785414267 0.2272076059218564
0.5546374571854709 13.079823686940985 52301.05707528364 10.236875573860758 0.2304518644721103
0.5743211253325162 13.05785704794342 44732.13976458505 10.739120793565156 0.23373125153146798
0.5943775124638433 13.03952314280343 38330.5506558333 11.262856501236504 0.23705187201427713
0.6148139437777257 13.024506763772333 32901.659389743705 11.809023389855206 0.24041538149462005
0.6356176910330037 13.012451594045867 28294.195560194974 12.378600407489225 0.24382341282022008
0.656786742901736 13.00302179340363 24177.960961990826 12.972281233495702 0.24727396963746864
0.6783185042174222 12.995978340395748 21029.317475672007 13.591383292693477 0.25077173302244965
0.7002061680708817 12.991065907182161 18173.156468922472 14.237108648927554 0.25431939073101995
0.7224400428369907 12.988006217497396 15730.521023199772 14.910646915389822 0.2579189272411371
0.7450259936532644 12.986658695067002 13634.984963336243 15.61303286909123 0.26157029079871824
0.7679471126176832 12.986760588049027 11837.171118886 16.345522445648186 0.2652752746852695
0.7911910548693172 12.988130738197508 10289.300846372513 17.10973646501217 0.26903861908323934
0.8147639758206802 12.990675194285696 8956.835603427027 17.907129873990836 0.27286275637625945
0.8386460352591594 12.994138583296834 7807.813099329195 18.739071710059683 0.2767488015876404
0.862827372434596 12.99839314684906 6815.15971779638 19.60689888387653 0.2806971688599059
0.887302668304798 13.003341542163684 5955.763995413631 20.512700655325443 0.28471425082955987
0.9120624783527507 13.008840388416921 5211.485929633588 21.45827101309549 0.2888030605681804
0.9370824176553042 13.01473389625575 4565.615739039797 22.445098684453487 0.2929635574006239
0.9623602305262833 13.020930708050088 4004.7263916771694 23.475199677454963 0.2971994663672712
0.9878834558209524 13.027332090572878 3516.832416898022 24.551000592340582 0.30151692362596144
1.0136260636567458 13.033791060983537 3092.103558880364 25.674448889217786 0.30591759984612726
1.039589354975584 13.040245235889275 2721.7051056841915 26.847495205130492 0.3104026773281027
1.0657402149042707 13.046564041266322 2398.5346502342763 28.073241099738997 0.3149809284839188
1.0920718496299409 13.052693120422088 2115.98626341529 29.35374663310603 0.31965283465044075
1.1185687490630711 13.058531144348045 1868.716971017356 30.691756945501307 0.32442300937941787
1.1451993971408079 13.063992161526029 1652.2682761441615 32.09068283900328 0.3292995851440917
1.1719619111032156 13.069000817289467 1462.1787678278797 33.55245187472581 0.3342801726091274
1.1988172978815383 13.073457840412305 1295.5501722281747 35.08161242661681 0.33937838012240507
1.2257630651730553 13.077325488605789 1149.1762930148495 36.68019514929184 0.3445910153057198
1.2527578329360796 13.080495755664858 1020.2866889407444 38.35324558814508 0.3499324741454632
1.2797992257686366 13.082937357536942 906.7795535654265 40.10299321942983 0.3553992798655749
1.3068418317096335 13.084519123992441 806.8218646493551 41.93492888861459 0.3610061076485028
1.3338765610869585 13.085239851001779 718.6603810707968 43.85251124874357 0.36675474796335783
1.3608864382295152 13.085034659388846 640.6828284045936 45.86045703056744 0.3726531137357841
1.3878171349087212 13.0837762830936 571.8596772973189 47.96408448367175 0.37871108154526206
1.4146739590314463 13.08148510439155 510.8787093575944 50.168131420989425 0.38493420937905104
1.4413969160640216 13.078034011013298 456.9285468918897 52.477852026671535 0.39132964953668964
1.467991211651543 13.073438266953234 409.0546714191028 54.89964398906252 0.39790900044967253
1.4943995796297362 13.067576813005353 366.5601592091935 57.43969583887896 0.4046813208987417
1.520610897687348 13.060431091493616 328.865044347199 60.104634096218454 0.4116563795678689
1.546594454983218 13.051947643145722 295.3207104668273 62.901562697842124 0.4188447134927617
1.5723099666751448 13.042069483680148 265.48872392845584 65.838106199187 0.4262576912808373
1.5977344075626019 13.03074469193754 238.9471090495137 68.92245713428326 0.4339075816611555
1.6228212414619732 13.01792626549519 215.26043818417742 72.16342796438781 0.4418076279912064
1.6475730639793402 13.003590265691422 194.1179378030355 75.5705081001492 0.4499721294232019
1.6719221158729272 12.987656567160986 175.24962801333427 79.1536486931968 0.45841536921516624
1.6958599013177098 12.97011189684447 158.37960386782115 82.92300866310522 0.4671504865947274
1.719340016893683 12.950903940471498 143.29331804666725 86.8913376837178 0.47619909077616007
1.742325834996924 12.92996396030391 129.79005129376665 91.07023578003461 0.485575618397816
1.7648056721358096 12.907320842059073 117.69114135727764 95.47374058495207 0.49530178992323526
1.7867328636264646 12.882888484575032 106.83632005407827 100.11556928314165 0.5053953277512111
1.8080722012803192 12.856636450074188 97.0944035341974 105.0122183639719 0.5158818266881823
1.828782790035749 12.8285059529758 88.34013838328485 110.18022517749537 0.5267838187298378
1.8488628654560855 12.798544922192368 80.46969759754599 115.63719226483181 0.5381245821886125
1.8682507548650649 12.766641662502746 73.38961610751021 121.40337367503471 0.5499336265633998
1.8869204089019618 12.73279537923167 67.01592550139708 127.50016272069081 0.5622406520713349
1.9048439987707646 12.696985383569372 61.261876624465884 133.95001999047474 0.5750750380449984
1.9219875332654186 12.659172819745223 56.08113548249026 140.77856398865808 0.5884728650346963
1.9383028912990197 12.619292224006566 51.3974239077666 148.01350034401298 0.6024725138016245
1.9538004728064162 12.577452296811348 47.16669273096819 155.68336632657062 0.6171098948226483
1.9684188534055163 12.533532830113925 43.34467917960106 163.82175613977694 0.6324324420957275
1.982135235251442 12.487535626377042 39.88374771712128 172.46239496711928 0.6484815735562578
1.994924783233496 12.439467113997928 36.748718435885216 181.644643082895 0.6653107149878059
2.006764622781353 12.389311372836874 33.90757409095909 191.41045314368617 0.6829741372511504
2.017613631853261 12.337045165038578 31.330873471905253 201.80584677626905 0.7015310574004501
2.027452028025074 12.282664812905349 28.99515181988277 212.88080151671824 0.721044270519952
2.036264854292859 12.226206729600202 26.872855199729972 224.69070397622355 0.7415838093742281
2.0440119443214875 12.167619046410278 24.944957076812504 237.29678632382385 0.7632270655902862
2.0506742155242677 12.106920513425923 23.190168998617434 250.7658528981783 0.7860564711872938
2.056249909708327 12.04418154870744 21.596044657352756 265.1709588845458 0.8101600828630326
2.060698935892379 11.97934042313404 20.143891993862354 280.59391076540413 0.8356378556812033
2.0640069880798237 11.912449684406052 18.823349168601165 297.12431429101764 0.8625964071769939
2.064683899521052 11.849981429771717 17.80755874150116 316.1708904637172 1.6568735978377176
