M[M_sun], R[km], Lambda[1], P_c[MeV/fm^3], rho_c[fm^-3]
0.24162668629717493 15.618656898711224 2160425.4255784233 3.5677272577965504 0.1711233750220791
0.2536407768977806 15.27739616195742 1723297.2328517344 3.7847777202886137 0.17388765096790146
0.26603956712177906 14.981190796450266 1383116.3335987474 4.011313434748536 0.17666559709304924
0.2788070982589286 14.723678267003642 1116588.8978624104 4.24759179520364 0.1794559319590412
0.29195940281378135 14.498561748558407 906049.535695061 4.494237330610043 0.18226520988895833
0.30549117818798455 14.301421509575926 738784.4573410625 4.751402263449903 0.1850890709212932
0.31940353298891266 14.128380043907038 605251.6090346545 5.01977439288211 0.18793425508742953
0.33370022806310234 13.976117392082706 497812.069228266 5.299570173749116 0.19079723691179598
0.348376368314694 13.842248574009744 411144.5172491881 5.591526938024508 0.19368448975186126
0.36343696278234544 13.724196230530788 340758.1368406764 5.895800928331302 0.19659087299493688
0.37888614172156004 13.620193037018906 283408.78559173987 6.2132606972448405 0.19952416181992608
0.39471416383590674 13.528647088331049 236503.1139823142 6.544171714214067 0.20248067828426144
0.4109353651865991 13.448071988200812 197951.55499965753 6.88922019093608 0.2054638606129321
0.4275387581682198 13.377235533252446 166161.77748518437 7.249118147044357 0.2084769113570176
0.44452908631548904 13.31509171395827 139847.21700701857 7.624136114129467 0.21151556299914934
0.46190659533734574 13.2607188188215 118040.54943295005 8.01519986694574 0.21458561975822324
0.4796662584632775 13.213301628493468 99864.13485262435 8.423024619496356 0.21768889940502345
0.4978183832038588 13.172123349636564 84690.08501795828 8.84806692565433 0.22082309839160888
0.5163518592317468 13.13652328246968 71978.33043388918 9.291168548620425 0.22399118093118905
0.5352648876978288 13.105960276925428 61313.489518338436 9.753228405260241 0.22719627915960752
0.5545677324016962 13.079915461600285 52335.59540848792 10.235055418207187 0.23043974294550254
0.5742394083433482 13.05798442670579 44756.97461249473 10.737142771242711 0.23371855201544325
0.5942953697855337 13.039588405811836 38355.61953672275 11.260690869330341 0.2370383411069375
0.6147268678146305 13.024583976029955 32925.534125644 11.806657357251257 0.2404009920687498
0.6355224281916677 13.012480610206431 28315.135901386606 12.376020385170726 0.24380813631662693
0.656688071548823 13.003068326445893 24388.46395942953 12.969499069174779 0.24725806792709043
0.6782152710992831 12.99600518671213 21043.798942660178 13.588359484275264 0.2507548972673038
0.7000967614061162 12.991084289903947 18186.44664333471 14.233826986361885 0.25430158755143956
0.7223243633293125 12.988015794295823 15742.460022652907 14.907090147230319 0.2579001212671439
0.7449059731015155 12.986659845967921 13645.112602099269 15.609217334474891 0.26155078831670364
0.7678193325759055 12.98674698137753 11845.59196279362 16.341396481720373 0.26525470778991683
0.791057116591911 12.988128112830735 10297.581157177772 17.10527936849094 0.2690169457321561
0.8146249141956321 12.990647839521378 8905.90913481002 17.90231956916197 0.2728399318237998
0.8385029565833491 12.994095639824192 7814.2446487277975 18.73392953090738 0.2767251759350705
0.8626758306265507 12.99837241573716 6820.756904640939 19.60135798006447 0.2806723103189664
0.8871437556775564 13.003313804063039 5960.9996029776785 20.506734364036067 0.28468810561604174
0.91189776647 13.008809742486783 5215.97551561498 21.45185084593306 0.2887755712715877
0.9369102695209336 13.014696811295325 4569.707575999855 22.43825138277919 0.2929351176077312
0.962181361416524 13.020893503057653 4008.4381253794245 23.467839327159652 0.2971695737977488
0.9877006979414094 13.027278574211287 3520.0945333817012 24.54309255627066 0.3014855087527767
1.0134350160070646 13.033743983033688 3095.0115823581523 25.66602377468076 0.30588508570654344
1.0393922447375468 13.040197933706189 2724.304260802243 26.838450032101836 0.31036850629316065
1.0655398438701915 13.04652911768379 2400.859330600953 28.06353353735212 0.31494501598947805
1.0918612815552293 13.052651056999716 2117.885298403102 29.343411082021436 0.31961563301259693
1.1183537596601076 13.05848899335592 1870.6296847880878 30.680670033597696 0.3243838995792639
1.1449792384900053 13.06395324860721 1653.7831715640357 32.07888074634457 0.32925903431617576
1.1717356872920057 13.068962705727838 1463.7299223430439 33.539796192155386 0.3342375216540096
1.1985839581264637 13.073422287441932 1296.8743602948762 35.06804343610343 0.33933351114933896
1.22552395685729 13.077294653961102 1150.3165126776955 36.66575222059291 0.34454442465345436
1.25251444550681 13.080469208662388 1021.3764726371725 38.33776305887802 0.34988343016982265
1.27955003234488 13.082909768348387 907.7515003591635 40.086510492829525 0.35534828781599676
1.306588419936153 13.084512755659613 807.7489581526885 41.91737832205085 0.36095304962688146
1.3336200750170717 13.085232886578233 719.3797614569753 43.83369611607681 0.3666988196586022
1.3606238118559353 13.085041499293395 641.3891672866616 45.84041674826261 0.37259483931710824
1.3875500386926753 13.083792168634409 572.5050811852304 47.942733473258706 0.37865030967737046
1.4144018296095995 13.081515971472959 511.44083149428945 50.145235618208645 0.38487005281648967
1.4411287446148786 13.07809482772005 457.4387510405449 52.4534477704661 0.39126264459263416
1.4677115466592883 13.073496201023215 409.51438132905844 54.87362324582932 0.3978389572886174
1.4941182330195069 13.067644553593606 367.0174835368757 57.411941825417124 0.40460803501208553
1.5203279716456453 13.060518441647162 329.2560297355037 60.075020496479816 0.4115796305691628
1.546308789434288 13.052049471354398 295.67327826257196 62.869952801540286 0.41876426379357534
1.5720230118909981 13.04218703364491 265.8020112495401 65.80435195356526 0.4261732846344384
1.5974451367128712 13.030881887946535 239.2307361387838 68.88639809928215 0.4338189415596903
1.6225328362022633 13.018084002606486 215.52037806059187 72.1248901602529 0.44171445590036074
1.6472843538583373 13.003766788429186 194.35722384858914 75.52930273516311 0.4498741028363977
1.6716324094983195 12.987861305152416 175.46034626088056 79.1097858519392 0.45831303770833576
1.6955722054161226 12.97033698341129 158.5800982227053 82.8760605151771 0.46704259988752383
1.7190437949785218 12.951141251006845 143.47654461962662 86.84106262125928 0.4760852424954929
1.7420424221080917 12.93024350914891 129.96087730618825 91.01661287384306 0.48545632716942205
1.7645284069729432 12.907630387483213 117.83891931564057 95.4162534199329 0.495175650246923
1.7864544673334628 12.883216056211879 106.96444876798925 100.05416780832786 0.5052628260323905
1.8077965398691724 12.856992035258331 97.21505052757307 104.94658426982333 0.5157424525516834
1.8285218645800612 12.828915023754728 88.45001893743698 110.10981174847944 0.5266362774768382
1.8485980763450984 12.798960296483127 80.5711667873244 115.5617327714496 0.5379687089143541
1.8679900628511565 12.767088485239853 73.47945468482274 121.3225313313671 0.5497690611771064
1.886668008572382 12.733278709556314 67.09804830213035 127.4134837831445 0.5620666881353028
1.9045986424738781 12.697498526028305 61.341047319080126 133.85732646295307 0.5748920322405857
1.9217330400097488 12.659679018455325 56.14783760943944 140.67900527298764 0.5882788867963042
1.9380812341050289 12.619904166695454 51.46219282519706 147.90648042699047 0.6022666556666587
1.9535735698904788 12.5780521198853 47.23055413255142 155.5685829473638 0.6168923688290732
1.9682116067413586 12.534187617973949 43.39780644999457 163.69828134100837 0.6322014373025376
1.9819385061673078 12.488242496111715 39.931106514358724 172.3295595829832 0.6482363075433709
1.9947391291238454 12.440205310259135 36.79304641718874 181.50173311453804 0.6650504024988849
2.0065862495560927 12.390080066385028 33.95047556982167 191.25654086579354 0.6826974473032826
2.017455033206719 12.337868147222174 31.370148577394573 201.6399088195372 0.7012365338956807
2.0273057498919544 12.283533505265273 29.027484833320305 212.7021260379706 0.7207316884596974
2.036132791799687 12.22711810035555 26.9042309399739 224.4976378020876 0.7412500898959804
2.043896114399997 12.168577084514956 24.973535865292845 237.0883891727184 0.7628717293039631
2.050575046766859 12.10792177513382 23.217117804212133 250.54021061973287 0.7856761571239289
2.0561604176251276 12.045203642808492 21.61995546374091 264.9267564892604 0.8097537158894176
2.0606346857100286 11.98043001224111 20.166903381782078 280.3296124037479 0.8352040218248346
2.063968371391881 11.913600410385776 18.84470721072096 296.8377901173372 0.8621321866759107
2.066144636276437 11.844740646281181 17.639787488909608 314.55131789223964 0.8906580992399458
2.067161037914491 11.77390657885846 16.543472293778876 333.5800498180339 0.9209097256394492
