M[M_sun], R[km], Lambda[1], P_c[MeV/fm^3], rho_c[fm^-3]
0.24162668629717493 15.618656898711224 2160425.4255784233 3.5677272577965504 0.1711233750220791
0.25364447005895024 15.277252326406225 1723245.5955728872 3.784828235350196 0.1738882806137748
0.2660409768014274 14.981226205001729 1383033.097200994 4.0114196269454325 0.1766668803630784
0.2788168501868867 14.723467664667185 1116464.099400752 4.247757256622841 0.1794578510621589
0.29197121957272937 14.498387746653993 905870.6201051816 4.494466402505173 0.18226776065767542
0.30550741439206025 14.301193178062245 738643.9526671257 4.751702723196455 0.185092316459992
0.31942398652795223 14.12812441279292 605073.2085657017 5.020148453125472 0.1879381361068284
0.33372310695255225 13.975928948583498 497674.55098736665 5.300027681658373 0.1908018432572993
0.3484045551159483 13.841997659421455 410988.2536080575 5.592069035247813 0.19368973469162254
0.3634682899310775 13.723939619355301 335720.8193279446 5.896439792854026 0.19659687334573248
0.378922379910988 13.61996589491596 283291.49855614034 6.214004059274592 0.19953094038657126
0.39475487877608895 13.528428190137365 236390.48346610233 6.545018801318161 0.20248810609380571
0.41098030262832225 13.447863121392642 197857.98769129236 6.89018735475227 0.2054720973858453
0.42759005669626027 13.377033236488 166074.73032635957 7.250214462138476 0.20848598089082976
0.4445848165599815 13.314919187801491 139794.22961662454 7.625358549818731 0.21152529437325945
0.4619669482480636 13.260549764429115 117976.0083768478 8.016569743645102 0.21459621686199054
0.47973218998256567 13.213135001107748 99804.02807380828 8.424552617860993 0.21770038781662296
0.49789010568967296 13.171990151829535 84637.57393027701 8.849747411241378 0.22083526582527535
0.5164290026743238 13.136388587052071 71932.43565539038 9.293028714552994 0.22400427661532218
0.5353477329101701 13.105836153404024 61270.21586650139 9.755280862209252 0.22721033136630922
0.5546562815422842 13.079793071927034 52300.29295614457 10.237313543043578 0.23045478117601553
0.5743395498107433 13.057825035819512 44725.937602419544 10.73959675218282 0.23373430733322692
0.5943967182869785 13.03951377429579 38321.783796985605 11.263377607255673 0.23705512789411498
0.6148348100540122 13.024497239437864 32898.36584561803 11.809592721877369 0.2404188439832243
0.6356399283779856 13.012441102850788 28289.411672424674 12.379221236188648 0.2438270887930167
0.6568111664295941 13.0030139014311 24368.17660251858 12.972950707918457 0.2472777960787382
0.6783437226350635 12.99597780976416 21025.848337186704 13.592110919858463 0.2507757842555613
0.7002328112332192 12.991063763667366 18170.740520130035 14.237898330454776 0.25432367479184553
0.7224647140936958 12.988024195680229 15727.915306084295 14.911502803594182 0.257923452644703
0.7450563581429992 12.986652925946146 13632.527526229784 15.613951031943389 0.261574983838177
0.7679759213282766 12.986763021077918 11834.561931315915 16.34651531744576 0.26528022390215955
0.7912240908001837 12.98813133902531 10287.537321079484 17.110809029036638 0.26904383459888964
0.8147999292479196 12.990659887516443 8955.461428507764 17.908287443920056 0.27286824896280343
0.8386830189403752 12.994135937670384 7806.438125572474 18.740309151516605 0.2767544869908656
0.8628630011524362 12.998412889269972 6813.2235544677205 19.6082322872154 0.28070315099975396
0.8873463880791517 13.003361655534006 5954.647423339316 20.514136438525558 0.28472054265416447
0.9121025562085664 13.008861104947025 5210.624284000353 21.45981603363848 0.2888096758987276
0.9371235582395078 13.014739844440127 4564.609026370672 22.44674650619877 0.29297040151402637
0.9624077275023908 13.020958102412656 4004.02858626922 23.476970980198075 0.2972066601540163
0.9879283985316387 13.027337354091403 3516.0767794565722 24.55290371387684 0.3015244838243708
1.013671768002147 13.0337970398976 3091.6020195841597 25.67647646262681 0.3059254246424013
1.039637166487 13.040249472699054 2721.02638427709 26.849672018891184 0.31041090093851276
1.0657888613964366 13.046587929366094 2397.8453733966426 28.075577343967446 0.3149895712671966
1.0921217010619884 13.052713138310386 2115.3407332259753 29.356234027499696 0.31966178774299003
1.1186204530629773 13.058544759051964 1868.3421274948282 30.694425188216417 0.32443242177849324
1.1452520304463154 13.063998246191955 1651.8462923738514 32.093523221186175 0.3293093444175057
1.1720166002595083 13.069010177824866 1461.823079931609 33.555497715056084 0.3342904374050797
1.1988733979243023 13.073466005674437 1295.1781986404415 35.08487810149503 0.3393891788239009
1.225819660270112 13.077340554003055 1148.868637482718 36.68367118167541 0.34460222844811095
1.2528151493101134 13.08050193883597 1019.9942856143551 38.35694608521933 0.3499441266559961
1.2798605009099153 13.082939623839684 906.5643016092337 40.106960242955594 0.3554115525110667
1.3069020398879225 13.084522649918027 806.6088428305795 41.93915294928485 0.36101887762385143
1.333941077665912 13.08523613524458 718.4569296716438 43.857039707249506 0.36676820888398376
1.3609504934490144 13.085032350890398 640.5210716020932 45.86528039794368 0.37266713943290924
1.3878818243441151 13.083772524168024 571.7045878018189 47.96922336277234 0.3787257084540486
1.4147390152876926 13.081478354018124 510.733642694237 50.17364216368274 0.3849496510873741
1.4414629945804542 13.078025135990828 456.79794813398007 52.48372588447736 0.3913457769494801
1.468057501322793 13.07342659952882 408.93925267293025 54.90590697186281 0.39792585927299806
1.4944670228254107 13.067558806524474 366.4564221184069 57.4463760634436 0.4046989603720725
1.5206780900359127 13.060414582888841 328.76615675647975 60.11176197484716 0.4116748527542589
1.5466633351103498 13.051924536164124 295.23879799447286 62.909171145828154 0.41886407759778455
1.5723798651317467 13.042039505580844 265.4202136366381 65.84623086320121 0.42627800800336885
1.5978035667834836 13.030709676989781 238.87659701599088 68.9311366440293 0.43392891757944985
1.6228905465203736 13.017886298016913 215.19003467308144 72.17270421016858 0.4418300549881252
1.6476426874589924 13.003544268758349 194.05927154053725 75.58042653931226 0.44999572515492053
1.6719921252409862 12.987611895715043 175.1954437122644 79.16420689568567 0.45844000138077906
1.6959289453258433 12.970057283195338 158.3361313998549 82.9343096453343 0.467176456218976
1.719409386702661 12.95084376718669 143.25307528201702 86.90343962270474 0.4762264957136982
1.7423904888191786 12.9299017960715 129.75991901978165 91.08314371302451 0.4856043337974792
1.7648733295826327 12.907250640506229 117.65738882527074 95.48757886444427 0.4953321541983788
1.786799998003558 12.882811079747459 106.80793076103924 100.13034995869752 0.5054272238078191
1.8081383198596124 12.85655128311301 97.06775293681548 105.02801808412816 0.5159153774270516
1.8288476281211072 12.828414645190119 88.31217775161764 110.19712754744842 0.526819157089248
1.8489266765715016 12.798445065859045 80.44672897834789 115.65535761321925 0.5381621055300011
1.8683021482133548 12.766503387034133 73.37271504291415 121.42283505360976 0.549973242798379
1.8869809031574654 12.732679993721852 66.99631975370015 127.52099856387022 0.5622824211716985
1.9049036599462341 12.696861637198761 61.24496031277469 133.97233482523293 0.5751190944575058
1.922044237674045 12.659041784651134 56.06343462960351 140.80253182939094 0.5885195635029531
1.9383569866854 12.6191502839335 51.38141866467093 148.03926472820692 0.6025220728764795
1.9538525861406015 12.577303901843376 47.15582838471823 155.71100004099225 0.6171622634776511
1.9684688933571044 12.533368453278209 43.33371274435722 163.85142665109873 0.6324878668574557
1.9821819543940875 12.487365170213746 39.871856908800545 172.4943754810683 0.6485406220785875
1.994971022956564 12.439286797215598 36.7387004226596 181.6790495359303 0.6653733868190823
2.0068057745651204 12.389124356646583 33.897459303953916 191.4475089768738 0.6830407529668897
2.0176520755549596 12.33684601773063 31.32252270798158 201.84579847181337 0.7016019677191314
2.0274873139596816 12.282458635227867 28.986017002722864 212.92382051486192 0.7211195296834595
2.0362959454020775 12.225989306085989 26.86416041582728 224.73718847618642 0.7416641589390529
2.0440397055075827 12.167390072628281 24.937510401362232 237.3469627960965 0.7633126210848004
2.0506975838205244 12.106679743203815 23.18347089795894 250.82008387231124 0.7861477212606974
2.0562702008950566 12.043929134391846 21.590793479148157 265.2297582048174 0.810257928348133
2.0607141695255953 11.979077494441709 20.13839609777814 280.65750193645897 0.8357421600024486
2.0640192200554166 11.912178724799553 18.818334446743755 297.1933061552841 0.8627081863591448
2.0661778945669025 11.843273776314712 17.61572037242084 314.9375131488173 0.8912763218869657
2.0671694972107577 11.772380526784662 16.521467070575493 333.9994707350075 0.9215721674747025
