M[M_sun], R[km], Lambda[1], P_c[MeV/fm^3], rho_c[fm^-3]
0.24162668629717493 15.618656898711224 2160425.4255784233 3.5677272577965504 0.1711233750220791
0.25364092897219903 15.277370205484216 1723223.5085857492 3.7847793019355493 0.1738876706823675
0.2660348059569195 14.981380561734973 1383133.279502339 4.011316759638485 0.17666563727238208
0.2788075365889934 14.723677009890219 1116628.1050249091 4.247596975773902 0.17945599204584928
0.29195978713650583 14.498555646940565 906044.1225138544 4.494244502752073 0.1822652897524244
0.30549185529675277 14.301415954443822 738827.2014501455 4.751411670632362 0.18508917253681761
0.3194051549118142 14.128337040033886 605237.0075345744 5.019786104347181 0.18793437659839984
0.3337003182559589 13.976196309466415 497808.11497900065 5.299584497757775 0.19079738113079533
0.3483771710502996 13.842235125213977 411123.7155760657 5.5915439102852496 0.19368465396315282
0.3634381483178859 13.72414779405877 340756.52285689797 5.895820930065987 0.19659106085546188
0.37888792058141996 13.620176443672367 283398.28102338634 6.213283970421648 0.19952437404327583
0.3947151708822168 13.528650908876529 236496.79189935853 6.544198234614777 0.20248091083234837
0.4109367744734957 13.44806549958082 197948.5676233457 6.88925047042405 0.2054641184857579
0.4275416065734725 13.377204287186531 166148.25926718448 7.249152469659977 0.20847719529922049
0.4445314042137564 13.315100463025614 139864.49187341557 7.624174384958216 0.21151586765955424
0.46190848577183474 13.260713391543328 118038.11812648662 8.015242753374062 0.2145859515194185
0.4796690208658633 13.213298379518235 99860.81408974704 8.423072455827043 0.21768925906735626
0.4978206687544709 13.172113787085157 84688.94359153177 8.848119535466106 0.22082347930912458
0.5163539996390576 13.13651750695208 71975.34830247523 9.291226783107913 0.22399159090561147
0.5352681580631107 13.105943079917653 61311.855191219445 9.753292659124797 0.22719671907557581
0.5545699211949394 13.079899783493097 52333.35789202999 10.235126110127592 0.23044021372611542
0.5742438421899093 13.057947495393075 44756.41802546841 10.73721959404209 0.233719045241612
0.5942976105556963 13.039599109115994 38019.15912270948 11.26077497802914 0.23703886661960963
0.614729853305084 13.024558749261718 32924.30548381341 11.806749248538242 0.2404015509210919
0.6355260900872215 13.01248690708006 28313.18771092521 12.376120586713943 0.24380872961739958
0.6566922463471299 13.003079684190606 24388.465738364845 12.969607120845076 0.24725868550612917
0.6782186530203328 12.996008408526288 21042.986868105458 13.588476920026347 0.25075555111810294
0.7000994474730636 12.99109318957871 18186.210330541293 14.233954435625026 0.2543022789699123
0.7223293640814434 12.98801412447476 15741.753360679011 14.907228279868857 0.25790085162647336
0.7449106209717465 12.986650814950874 13644.621437486963 15.609365515962601 0.26155154572217615
0.7678248059631291 12.986750313645736 11845.251780495404 16.341556718173436 0.26525550652844665
0.7910632886646356 12.988120512677085 10297.595917472256 17.10545246378904 0.26901778743597576
0.8146312879215101 12.990644089690113 8963.99585908796 17.902506380467923 0.2728408182300889
0.8385077405527724 12.994099882682251 7813.664948997596 18.73412922976294 0.2767260934479849
0.8626818401325783 12.998373180017838 6820.574301425972 19.601573162241067 0.28067327570568446
0.8871502882863437 13.00332250559196 5960.900403443069 20.50696606478416 0.28468912096464566
0.9119038692971602 13.008802938815208 5215.801904118611 21.452100171377122 0.2887766388109378
0.9369169465652738 13.014698063263237 4569.468745485867 22.438517294526022 0.29293622205374037
0.962189220628607 13.020892085422785 4008.2684424046834 23.468125161101728 0.2971707346543171
0.9877083531334161 13.027284911194444 3520.0499032434163 24.54339965724177 0.3014867287191472
1.0134432340755415 13.033739953167652 3094.9047157007026 25.66635095420913 0.30588634835535466
1.0394003294902576 13.040194552398694 2724.234804959881 26.838801288611176 0.31036983327700235
1.0655478830196736 13.046528774893805 2400.5970441433137 28.063910514356998 0.31494641059134126
1.0918698972404397 13.05265261393269 2117.993892636253 29.343812443799578 0.31961707766856085
1.118362127803051 13.05849103846114 1870.5665736902272 30.681100570207434 0.3243854183250528
1.1449881250121614 13.063950225301015 1653.8272600076132 32.07933905300305 0.32926060901271287
1.1717425743436747 13.068967335051362 1463.69819241049 33.54028764264956 0.33423917789284563
1.1985929527280677 13.07342873270922 1296.8338453156596 35.06857034891821 0.3393352535071711
1.2255345185587105 13.077300833028207 1150.2602273340065 36.666313067147655 0.3445462338576228
1.2525226765947084 13.080465556407104 1021.3041772199178 38.33836428934729 0.34988533473614647
1.2795599970311158 13.082909861879521 907.7140182343649 40.08715054044704 0.35535026790949925
1.3065981654073973 13.084513737798805 807.7112009053787 41.91805983141162 0.3609551099329273
1.3336307489297325 13.085234484067152 719.3551152156302 43.83442672469662 0.3667009914052632
1.3606338075388187 13.085038921847323 641.3724734366184 45.84119492583227 0.3725971021517734
1.3875603969859327 13.083792863206535 572.4796117505736 47.94356254215762 0.378652669475086
1.4144121706850041 13.081514452111678 511.41986506296365 50.14612466525385 0.38487254402428533
1.44113949084193 13.07809485763263 457.4104985832527 52.4543953848786 0.39126524638677046
1.4677230573382838 13.073491711328254 409.5053808896391 54.87463362163096 0.39784167703856327
1.494128827436312 13.06764120050968 366.9794757445296 57.4130194962565 0.4046108806568459
1.5203384747229567 13.060514483255762 329.23509247481473 60.076170366031484 0.4115826106640352
1.5463198667269686 13.052045182489257 295.6576037465459 62.87118017693532 0.41876738756153636
1.572034120482765 13.042183990365666 265.79557787102635 65.80566258219139 0.42617656202265924
1.597456343948714 13.030877001580118 239.2204455713029 68.88779820933294 0.4338223833017381
1.6225426551902755 13.018079530356475 215.50754426695656 72.12638650545024 0.44171807358470455
1.6472954910893738 13.003760357303872 194.34530118757323 75.53090264413164 0.4498779089819187
1.6716441579577552 12.987851886583176 175.45373126086685 79.11148893344588 0.4583170109780063
1.6955833684546844 12.970328385993495 158.57363063048527 82.87788337658178 0.4670467888177227
1.7190475887565446 12.951108680267584 143.47545519868706 86.8430146411116 0.47608966286004634
1.7420530158975176 12.93023368945707 129.9534457227349 91.01869486484708 0.4854609588330526
1.7645388158118878 12.90761886348685 117.82574131187981 95.41848542735161 0.4951805477695827
1.7864649481526627 12.883202871170479 106.95941270814656 100.05655177528507 0.5052679705296587
1.8078072488480028 12.856978212365611 97.20986685556998 104.94913255191106 0.5157478638340381
1.8285327455321918 12.828898898898315 88.4484715413188 110.11254859752502 0.5266420170828899
1.848607986520862 12.798944281398414 80.57040282686559 115.56466247841254 0.5379747606779753
1.8680002954350625 12.767071561397609 73.47803476498785 121.32566999972028 0.5497754503556799
1.8866779290357825 12.733260396664544 67.09296914111499 127.41684902455059 0.5620734421479532
1.9046081593885564 12.697479097264866 61.33631611420857 133.8609251869116 0.5748991372390737
1.9217427675358143 12.659652651946411 56.14704146485757 140.68287049334327 0.588286417715426
1.9380901039125316 12.619881845156733 51.46058106877425 147.91063527647805 0.6022746477263647
1.9535862744438943 12.578035466455582 47.22400392407722 155.5730391582828 0.6169008137948376
1.968216915652509 12.534165117391987 43.39446796867632 163.70307989806315 0.6322104222840608
1.9819474142662417 12.48821597411562 39.929279685679795 172.33471651815142 0.6482458292603115
1.9947462545362569 12.440176129717907 36.79240522299059 181.50728110860817 0.6650605082470109
2.0065925951995056 12.39005031091804 33.948020879774276 191.26251592386816 0.6827081887368435
2.0174612526611018 12.337836837914518 31.3689505756229 201.64635065799007 0.7012479675234996
2.0273116224911787 12.283498728063243 29.02810101098887 212.7090622842471 0.7207438230075757
2.036137702208661 12.227085019317995 26.90338958555064 224.50513261159358 0.7412630448526376
2.043900040253396 12.16853918820621 24.97258569351155 237.09647903720983 0.7628855232660685
2.0505795902999733 12.107882810953702 23.21657214734903 250.54897149540682 0.7856909259800164
2.0561637810494755 12.045163455541381 21.618686527858426 264.93623605645934 0.8097694904399878
2.0606371843090385 11.980387195027905 20.166425398735196 280.3398827000986 0.8352208975268008
2.0639702073492097 11.913556565017222 18.84378891359766 296.8489122695707 0.8621502065554086
2.0661457777135066 11.84469422015807 17.639573503130283 314.56339961951556 0.8906774397090217
2.067161367490194 11.773858825521014 16.54318335813874 333.593170751787 0.9209304491062194
