M[M_sun], R[km], Lambda[1], P_c[MeV/fm^3], rho_c[fm^-3]
0.24162668629717493 15.618656898711224 2160425.4255784233 3.5677272577965504 0.1711233750220791
0.253640815278007 15.27737173451133 1723172.9839265498 3.784778443852846 0.17388765998678055
0.2660354441041412 14.98133559759253 1383149.2033800436 4.01131495580295 0.17666561547409418
0.27880756932232253 14.723718179459627 1116688.3507634788 4.247594165185246 0.17945595944725634
0.2919595786444513 14.498558956989253 906047.0560826793 4.494240611685539 0.1822652464244955
0.30549193725622464 14.301382855336106 738816.9812825286 4.751406566999812 0.18508911740784564
0.3194047595829673 14.128343685858283 605229.1591458286 5.019779750582707 0.1879343106756411
0.33369997126231216 13.97620338559549 497818.45280493156 5.299576726621677 0.19079730288834948
0.34837674162019555 13.84224231488541 411147.481904806 5.591534702404505 0.19368456487437363
0.3634376770857237 13.724160400642328 340762.191422385 5.895810078617677 0.19659095893636294
0.3788872963111232 13.620172539797492 283396.5277610578 6.213271344131463 0.19952425890671238
0.39471415327493625 13.52865411990143 236493.31291373135 6.544183846621449 0.2024807846690841
0.4109360089775554 13.448069065281016 197950.25329033626 6.889234043028102 0.20546397858316054
0.4275408060669727 13.377233870520737 166156.89227969132 7.24913384876174 0.2084770412533015
0.4445309919641684 13.315076451114196 139866.25407179547 7.624153622051002 0.21151570237346232
0.4619074608696939 13.260716328758457 118039.46037310219 8.015219486382849 0.2145857715304309
0.47966803842244393 13.213289913954938 99861.22236337684 8.423046503383343 0.21768906394126047
0.4978194389372662 13.172141127926846 84688.90383100646 8.848090993282844 0.22082327265152263
0.5163543488769863 13.136505121671869 71981.41956947144 9.291195189388974 0.2239913684838605
0.535265794162693 13.105954924727365 61310.66561562477 9.753257799733776 0.22719648040973273
0.5545677532716977 13.079924910213965 52335.819944794246 10.235087757919597 0.23043995831537142
0.5742415120860621 13.057958514657269 44758.40445593853 10.737177915668463 0.23371877765354296
0.5942966266111434 13.039588999176578 38351.11505629573 11.260729346859756 0.23703858151523757
0.6147283640785018 13.024557501660349 32925.16589439503 11.806699395105536 0.24040124772904242
0.6355238207740579 13.012500279313588 28314.343891103206 12.376066224743147 0.24380840773613666
0.6566897694701169 13.003067668270498 24388.136941082845 12.969548499968411 0.2472583504532368
0.6782163325519794 12.996011138146725 21042.902697660717 13.58841320803157 0.25075519638678545
0.7000982794447727 12.991086383601116 18186.142860812215 14.233885291027821 0.25430190385709783
0.7223260360107551 12.988018676368114 15742.39057632284 14.907153339249385 0.2579004553871691
0.7449081340946974 12.986659250966069 13645.03258763771 15.60928512356848 0.2615511348095838
0.7678215550234436 12.986746737254037 11845.16174067955 16.34146978563046 0.26525507319152336
0.7910597590496546 12.98812431915505 10297.316891950904 17.105358554969563 0.2690173307891868
0.8146265861176032 12.990644120308257 8963.91114074458 17.90240503033652 0.27284033733096225
0.8385038304326224 12.99410462572622 7813.871000451739 18.734020887780993 0.2767255956726355
0.862678518865221 12.998373095740561 6820.656120586684 19.6014564201291 0.28067275195745345
0.8871467084956451 13.003314513570595 5960.904436592321 20.50684036088894 0.2846885701106861
0.9119003918547435 13.00881472801174 5215.909479019468 21.451964905594 0.2887760596420257
0.9369143030110949 13.014694227488345 4569.5896237127745 22.43837303021242 0.2929356228619133
0.9621857267168605 13.02089100745912 4008.4388383509163 23.467970088440396 0.29717010485816286
0.9877039605989242 13.027287665628844 3519.9978615100213 24.543233046621097 0.30148606685424506
1.0134384008783703 13.033745485170252 3094.9692315926136 25.666173450408717 0.3058856633340036
1.039396226033119 13.040190558414078 2724.2504791531546 26.838610722370397 0.31036911335205986
1.0655430245684125 13.046531173034529 2400.792392127964 28.063705994020932 0.3149456539816859
1.091864970511444 13.05265617720371 2117.8252176594765 29.343594694035772 0.3196162939031102
1.1183575807512047 13.058489831477956 1870.5990240994704 30.680866992269298 0.32438459436374056
1.1449837814521853 13.063957936451924 1653.741798364932 32.07909040902583 0.3292597546964976
1.1717387754606325 13.068964757119733 1463.7278575620928 33.5400210171957 0.3342382793375759
1.1985886787490614 13.07342214879101 1296.8838167492545 35.068284484140676 0.3393343082298499
1.2255283369871977 13.07729920693109 1150.3034223715383 36.66600879234602 0.34454525231421346
1.2525179928591976 13.080464347156918 1021.316631002013 38.338038105110215 0.34988430145599014
1.27955450196593 13.082916987671977 907.7451327372767 40.086803296791324 0.3553491936536351
1.3065928994508615 13.084513025588675 807.7357370068083 41.917690093565575 0.36095399215940366
1.3336236789878078 13.085230343588112 719.3874212912864 43.834030349078795 0.3666998131719367
1.360628147515348 13.085042239650566 641.3874891497613 45.840772742680926 0.3725958745005185
1.3875549534472666 13.083797203944671 572.4836332860406 47.94311274898178 0.37865138921851116
1.4144054806912183 13.081516550771443 509.4612141326917 50.14564233218006 0.38487119247385837
1.4411336536438117 13.078095515131446 457.4300732201691 52.45388127729666 0.3912638348399699
1.4677168116547155 13.073493491682363 409.5012984018683 54.874085464156536 0.3978402014972261
1.494123320600561 13.067643912709732 366.9814221089523 57.41243482924696 0.40460933681381756
1.5203326394679988 13.06051355882953 329.2515106984771 60.07554652909318 0.41158099387780206
1.546312969966502 13.05204737250008 295.66072001833635 62.870514290786474 0.41876569282834725
1.5720282710396758 13.04218351581347 265.80285717390274 65.80495152869702 0.42617478394586433
1.5974501914724588 13.030880716413128 239.2244134263409 68.88703860950542 0.4338205160580422
1.6225373637217482 13.018080583244846 215.51622982764417 72.1255746951857 0.4417161108869999
1.6472890906628814 13.003763731221069 194.34840748744827 75.53003464742282 0.4498758440383185
1.6716381172905939 12.98785536278836 175.45933312243017 79.11056496255114 0.4583148553644798
1.6955773403563978 12.970331658457095 158.5774466569655 82.87689442148708 0.46704451620179543
1.7190416862720526 12.951111300474794 143.48061964032988 86.84195561365787 0.47608726468391505
1.7420474346203667 12.930239251787944 129.95727692381453 91.01756532411973 0.48545844602070326
1.7645336148659134 12.907624851125314 117.83614834577831 95.4172744981587 0.49517789072054613
1.7864600239060182 12.88321066268652 106.96138768145926 100.05525840342347 0.5052651794892926
1.8078011439628625 12.856984989854988 97.21298949435823 104.94775003407963 0.5157449280545252
1.8285267731493553 12.828906875090357 88.44918363121154 110.11106377632731 0.5266389031775959
1.8486024417614313 12.79895267238438 80.57054088575275 115.56307302586917 0.5379714774174986
1.8679948397380854 12.767080168521822 73.47842267363978 121.32396717917909 0.5497719840370722
1.8866725248480622 12.733270381269781 67.09755010478611 127.41502328111532 0.5620697778954464
1.9046029657142312 12.697489418621766 61.338074173802184 133.85897277196324 0.5748952825657462
1.9217389167041206 12.659661685335072 56.14763626748521 140.6807734957902 0.5882823319667447
1.9380844678681797 12.619894793214344 51.461972882774624 147.9083811460545 0.6022703117943451
1.9535812768500764 12.578051275645969 47.227910492832386 155.57062152984 0.6168962321469306
1.9682128351441013 12.534177561226924 43.396296842647054 163.7004765360392 0.6322055476604154
1.9819423786792478 12.488229628225689 39.93217421849331 172.33191872467737 0.648240663440566
1.9947421516987043 12.440191860065203 36.7927183815627 181.5042711532714 0.6650550255716295
2.0065886989035935 12.39006714590581 33.94842217944815 191.2592742726999 0.6827023611816605
2.017457212461363 12.337854372684012 31.36984409842355 201.64285576352552 0.701241764430568
2.0273081745260577 12.283518288057264 29.028923162315788 212.7052991576836 0.7207372396427935
2.0361360123874683 12.227101014226278 26.903805005202727 224.50106644643932 0.7412560163893668
2.043898981289203 12.168559139385533 24.973284471681975 237.09209003546312 0.7628780396149099
2.0505771455031496 12.10790341502457 23.21721714455239 250.54421844821832 0.7856829134168302
2.0561627420289197 12.04518490538708 21.619763950602003 264.93109309562254 0.8097609322543557
2.060636223327728 11.980409903553449 20.16623593585992 280.33431074271607 0.8352117419300249
2.0639692434586396 11.913580493090274 18.844354582868974 296.8428781522965 0.8621404302042246
2.066144788876139 11.84472004095391 17.639126346581353 314.556844900928 0.8906669468937769
2.0671606907438544 11.773885109342036 16.542848875484662 333.5860522290664 0.9209192059682058
