M[M_sun], R[km], Lambda[1], P_c[MeV/fm^3], rho_c[fm^-3]
0.24162668629717493 15.618656898711224 2160425.4255784233 3.5677272577965504 0.1711233750220791
0.25364505434886064 15.277244420165424 1723158.4542356832 3.7848411026154563 0.1738884409980289
0.2660419344014429 14.981225897202249 1382926.2698686866 4.011446676687767 0.17666720724325086
0.27881893780296757 14.723448522807429 1116338.0111696532 4.247799404165214 0.17945833991013543
0.2919742859654833 14.498354626844096 905865.2054603624 4.494524754025595 0.18226841041539799
0.3055111465933289 14.301146286658073 738599.78214648 4.751779260223615 0.18509314320595843
0.3194289349183873 14.128068985602626 605030.7494463787 5.020243739653278 0.18793912474133162
0.33372832313148715 13.975870035536987 497628.81891554827 5.300144226580862 0.19080301667128577
0.3484114834269961 13.841936577474971 410954.6723537128 5.592207129756866 0.19369107079398612
0.3634764753022101 13.723874374853558 340601.9734977797 5.896602539741254 0.19659840189893824
0.3789300280607917 13.619939416459612 283250.2539529592 6.214193428302543 0.19953266720409102
0.3947652714959558 13.528361270087533 236365.32147917192 6.545234596080354 0.2024899983223457
0.4109918678891822 13.447790199346134 197834.241976087 6.8904337415508445 0.20547419571921416
0.4276018603458033 13.376979444418296 166043.37791840575 7.250493753386004 0.20848829139574435
0.44459844601347215 13.314880007507357 139777.0139428927 7.625669973774073 0.2115277735081889
0.46198025584308344 13.2604972823117 117946.28387907703 8.016918732805156 0.21459891657528918
0.4797486320596683 13.213113597903167 99786.35676716991 8.42494189400635 0.217703314629038
0.49790825678982875 13.171927503215127 84622.97334980039 8.850175539207651 0.22083836565467618
0.516447910069993 13.13635514092888 71923.55837207584 9.293502623465308 0.22400761296360966
0.5353696981643211 13.105805375352865 61259.7365038192 9.755803765790585 0.22721391144101602
0.5546800063185583 13.07977191664959 51805.94970784205 10.237886992778712 0.23045858861367738
0.574363345018523 13.057823081057613 44716.29330287616 10.740221963521051 0.2337383213836846
0.5944224530622084 13.03949495257302 38317.62928514597 11.264062125905413 0.23705940477902582
0.6148626748386063 13.024472895655084 32891.721552940144 11.810340592285845 0.24042339228310206
0.6356693056813489 13.01240926098841 28283.092598596137 12.380036755153101 0.24383191754131914
0.6568420317873085 13.00301013415752 24363.25261390395 12.97383013040471 0.24728282249704547
0.6783760966268879 12.995978711530242 21021.114495866215 13.593066735241115 0.2507811059795337
0.700267652926452 12.991057591950682 18166.300987727824 14.238935664486336 0.25432930237959384
0.7225042359100549 12.987999267114654 15724.622648641476 14.91262711140093 0.25792939728388836
0.7450952413612676 12.986643413741934 13628.985467013987 15.61515714821214 0.2615811487044943
0.7680179031834466 12.986754582794696 11832.008811616191 16.347819577432755 0.265286725311075
0.7912664629245065 12.988144678270206 10286.352385390275 17.11221797963252 0.2690506858485267
0.8148442302093805 12.99066386510751 8953.606464640698 17.90980806611121 0.2728754642063707
0.8387284791783862 12.994144619529473 7804.700626760609 18.741934700328592 0.2767619555465751
0.8629111036092332 12.998426575340146 6811.358925889696 19.60998390137841 0.2807110093878181
0.8873956691042264 13.003374724751714 5952.927178543259 20.51602254993435 0.284728807886804
0.912154694472411 13.008865932796894 5208.9240696278775 21.461845651643706 0.288818366135275
0.9371772697748635 13.014763866790048 4563.400676294384 22.44891117548469 0.2929793923178643
0.9624648745264982 13.020966912541033 4002.808949832654 23.479297869435147 0.2972161103425942
0.9879870572246188 13.027358789110737 3514.9370497189384 24.5554037773901 0.30153441538987313
1.0137317123935978 13.033821853590961 3090.4786922382964 25.679140022123722 0.3059357038314725
1.0396986428661146 13.040276109614702 2720.2684098694976 26.852531641451513 0.3104217040776147
1.0658531204557375 13.046598012147358 2397.100328974889 28.07864641770286 0.3150009251054795
1.092187482514889 13.05273202671612 2114.63999984552 29.359501673953407 0.31967354926387825
1.1186887508515586 13.05855691778436 1867.4952480515688 30.697930425424943 0.32444478672988003
1.1453224165381695 13.064012738126413 1651.2994867898237 32.09725460752772 0.32932216509344847
1.1720880790179287 13.06902606675641 1461.3396558425986 33.55949902575944 0.3343039222347024
1.1989465577222995 13.073481397374723 1294.7893769882817 35.08916822519407 0.3394033650999185
1.2258953812436042 13.077349410565915 1148.4907659738233 36.68823766727131 0.3446169592237665
1.2528945607908395 13.08050924527024 1019.6453530508279 38.36180746749219 0.34995943468272944
1.2799375093342584 13.082943264685941 906.2284821999076 40.11217178533584 0.3554276752821274
1.306990849110629 13.084546949327812 806.3888034445108 41.944702184320704 0.3610356538020702
1.3340230297951392 13.085243408765235 718.1625065479609 43.86298886116916 0.36678589284610885
1.3610326433855233 13.08503305971316 640.226448308381 45.8716170035835 0.37268556542134706
1.3879727649568576 13.08378218066198 571.4817617407398 47.97597448998783 0.37874492434141516
1.4148176683677016 13.081457944536663 510.5719582483727 50.18088185334366 0.3849699374956343
1.4415501855298831 13.07801132208201 456.6346488354903 52.491442642085815 0.39136696427465373
1.4681448833388275 13.073412386484629 408.7787827306467 54.914134972094445 0.397948007569848
1.4945552105077675 13.067538525889724 366.3284886712322 57.45515224945029 0.40472213433838344
1.5207686385624133 13.060384002582197 328.67229935392555 60.12112630615364 0.4116991221121778
1.5467529470300987 13.051891153274807 295.12368845441677 62.91916687096823 0.41888951751296144
1.5724705247911102 13.042002587994194 265.3156183923402 65.85690481984733 0.42630469954594996
1.5978843441207757 13.030662236331937 238.78073219719826 68.9425395897064 0.4339569482314567
1.6229926749757082 13.017847954951113 215.10466950492165 72.18489118702168 0.4418595192022905
1.6477348958482 13.003489087120645 193.97805856777077 75.59345727683029 0.4500267249706694
1.6720821752004493 12.987547928542725 175.13913032193105 79.17807819974232 0.4584723629744452
1.6960199811030197 12.969984459592455 158.2709331678008 82.94915687808239 0.46721057511658903
1.7194995429889353 12.95076444483436 143.19662003976083 86.91933922838979 0.47626250049782004
1.7424807450375792 12.929816096095825 129.70165282613476 91.10010230919005 0.48564206043171265
1.7649629716685444 12.907153403161448 117.6040231588698 95.50575985207749 0.49537204734486334
1.7868744714158766 12.882677635478826 106.76279848733343 100.14976916951515 0.505469129622285
1.8082252487301291 12.856438528180442 97.02814630279227 105.04877623527861 0.5159594574045304
1.8289376605871346 12.828303516873213 88.28100273763346 110.21933449805398 0.526865585915743
1.849010938586817 12.798310853061002 80.41597336257703 115.67922404376296 0.5382114053398324
1.8683840360259294 12.766360711306756 73.34371027890568 121.44840439378879 0.5500252926048658
1.887058942647112 12.732530220171176 66.96852545636335 127.54831716455983 0.5623370971880627
1.9049800011956413 12.696699367199983 61.219066102015034 134.00165346963317 0.57517697856491
1.922119335276967 12.658867265120872 56.04200922949176 140.83402247223046 0.5885809192504907
1.9384294150077659 12.618964205756356 51.36173295634623 148.0731159903274 0.6025871874633736
1.953922400618329 12.577103886240035 47.13685933567194 155.74730756674666 0.6172310698733903
1.9685349014097142 12.533162667642916 43.31662769797417 163.89041050778712 0.632560689025728
1.9822455303649296 12.487146150372215 39.855658378922634 172.53639469718334 0.6486182059668579
1.995028739721086 12.4390499769739 36.72423993190893 181.72425646195884 0.6654557318616728
2.006860683971554 12.388874939769556 33.88330703197703 191.4961972443247 0.6831282804492141
2.017702570418426 12.336585339823474 31.309984960146668 201.8982919945511 0.7016951385439318
2.027534411583209 12.282189330300662 28.974933991356906 212.98034458482604 0.721218415162134
2.0363381473413478 12.225699874721801 26.854631209721763 224.79826640128746 0.7417697335866492
2.0440759904626895 12.167089766164642 24.928120096059004 237.4128921920316 0.7634250367612472
2.050729245506277 12.106364286455248 23.17474033624575 250.8913411720041 0.786267620154853
2.0562958764639125 12.043598446517208 21.582881712675803 265.30695092318047 0.8103862734433571
2.0607363035325377 11.978731600831175 20.132410576051672 280.7410593750874 0.8358792136496227
2.0640330539476928 11.911817966326725 18.811356377349025 297.2839606912649 0.8628550629510146
2.066186911131051 11.842898869610812 17.609765818842757 315.0359929238316 0.8914339686372826
2.067171512269987 11.77199127159912 16.515212748899287 334.1064254232854 0.9217410938613572
