M[M_sun], R[km], Lambda[1], P_c[MeV/fm^3], rho_c[fm^-3]
0.24162668629717493 15.618656898711224 2160425.4255784233 3.5677272577965504 0.1711233750220791
0.253643624797343 15.277285480916683 1723197.2539305896 3.7848119901781243 0.17388807812554186
0.2660390988313661 14.981283682687055 1383081.4811199426 4.0113854763072085 0.17666646767276978
0.2788134928333828 14.72353814304842 1116461.8318012138 4.247704045103623 0.179457233888724
0.29196697423240664 14.49847340615712 905903.7510434797 4.494392733747117 0.18226694033895682
0.30550336129905137 14.301220324790751 725454.7351599376 4.751606095750841 0.18509127269916312
0.31941811054401015 14.128181995747282 605128.3760514134 5.020028155162812 0.18793688796903507
0.3337159372518479 13.975953183894827 497715.4252209388 5.299880546004855 0.19080036184541055
0.34839581605517517 13.842070424806549 411032.0857785295 5.591894694494055 0.19368804789687044
0.36345711366153033 13.724041138704814 340666.0122801662 5.8962343301285225 0.19659494359633398
0.3789105404352781 13.620040157874044 279404.90233698115 6.21376498812774 0.19952876034557235
0.394743241943014 13.528480277108182 236424.98239396466 6.544746369919135 0.20248571723847306
0.4109652878113557 13.447937422321678 197880.3528018693 6.889876303754323 0.2054694483450193
0.4275738110475441 13.377101169866043 166104.91616010846 7.249861872613396 0.20848306400804972
0.4445665269656046 13.314972079797462 139812.30509350292 7.624965396243012 0.2115221646179998
0.46194832039615763 13.260592858668971 117991.74283496084 8.016129168390343 0.2145928086562052
0.47971099850364557 13.213187617624213 99833.77857407705 8.4240611853163 0.21769669293089697
0.497866984999288 13.172044142650677 84653.73621929775 8.849206933357861 0.22083135253447028
0.5164049146216254 13.136418658467049 71944.29071670331 9.2924304446 0.22400006475755532
0.5353221411527285 13.105881982936117 61285.39031581372 9.754620743678222 0.22720581184542468
0.5546277053067871 13.079837146903792 52305.59230751225 10.236587272931766 0.23044994450038978
0.5743083747227626 13.057859405134703 44735.90160104511 10.738807486113446 0.23372924000057752
0.5943632064290862 13.039549083379233 38333.990404663375 11.262513475652584 0.2370497287842213
0.6147999898151442 13.024516357111029 32907.23899866156 11.808648619760588 0.24041310226715468
0.6356004172769665 13.012453384272012 28298.990677732476 12.378191740087095 0.24382099307020771
0.6567713083051051 13.003039980185912 24374.861355731497 12.971840545448005 0.24727145084530067
0.6783015081078486 12.995998556783272 21031.639190064172 13.59090432625093 0.25076906626562034
0.7001889973088959 12.991055181720744 18175.219823258947 14.236588836018901 0.254316570720621
0.722421395693583 12.98800040220397 15732.552100511668 14.910083522943292 0.2579159483728999
0.7450076157302997 12.986645811282548 13636.531539422655 15.612428485333455 0.2615672015898521
0.7679271997490618 12.986760350381312 11837.945213440891 16.344868886137448 0.2652720168550268
0.7911707323595302 12.988130438074968 10291.092269278795 17.109030449758603 0.26903518597013804
0.8147433905933428 12.990663748869224 8958.301905749995 17.90636790554909 0.27285914089048674
0.8386242736201965 12.994126067150974 7809.347369595685 18.738257168021818 0.2767450591884318
0.8628040075803783 12.998397311314704 6816.123946825296 19.60602117747934 0.2806932311448422
0.8872771173531694 13.00333793337516 5956.555167245437 20.511755560313016 0.2847101092766761
0.9120361643852257 13.008833819476562 5181.42584578507 21.457254015950056 0.2887987060809128
0.9370544924651425 13.01472992721324 4566.36537741762 22.44401402154229 0.2929590523284042
0.9623315392689525 13.020929846065153 3982.786444071218 23.47403373741743 0.2971947311383442
0.987855536151269 13.027318538969922 3517.4423345612327 24.549747887383194 0.3015119472238527
1.0135957988171356 13.033785276043337 3092.6025680080174 25.67311426829404 0.30591244928694905
1.039557824988659 13.040236463276363 2722.0392101983757 26.846062352743164 0.31039726426979647
1.0657081570416658 13.04655735647287 2398.8924044379773 28.071703308993367 0.314975239527268
1.0920381132912547 13.052691885701284 2116.381806918147 29.35210935407428 0.3196469414512209
1.118534567622902 13.058526665786879 1869.0030392444005 30.690000631417547 0.32441681386768106
1.1451652838409967 13.063977252296517 1652.5220666502605 32.08881322195899 0.3292931613240774
1.171925734748118 13.068995275975913 1462.5109535504482 33.550447025165546 0.33427341605940064
1.1987804969067197 13.073459040262247 1295.7241023942797 35.07946288249087 0.33937127216272334
1.2257246972367937 13.077328437370499 1149.309667975594 36.67790714822185 0.34458363456844293
1.2527189891967203 13.080489095064145 1020.4286771598693 38.35079328202136 0.3499247070602318
1.2797592650480774 13.08293518220602 906.9254522997115 40.10038205105105 0.355391201782946
1.3068030695969413 13.08452022867995 806.9748346993986 41.93214854039087 0.3609977022346016
1.3338384269809889 13.085239895898862 718.7894017030735 43.8495305497663 0.3667458877844934
1.3608459068023546 13.08503364115449 640.7904122694906 45.85728222616174 0.3726438818358369
1.3877748237056537 13.0837807733629 571.9595430618918 47.96070201393435 0.37870145394450444
1.4146308143755826 13.081489598360521 510.9488926735611 50.164504197853134 0.3849240455000949
1.4413534486113573 13.078043748874158 457.0133658124253 52.47398580801707 0.39131903434881143
1.4679463838158742 13.07344951275074 409.12431094768357 54.89552165652694 0.39789790387187207
1.494352874352195 13.067588360696824 366.6303723834752 57.4352988875297 0.40466971052467243
1.520565559577421 13.06044589510114 328.9206796714131 60.09994251041477 0.41164422047488614
1.5465487471321118 13.051963151834997 295.3685535031827 62.89655481470848 0.4188319680320422
1.5722649105750304 13.04208782029425 265.542524168778 65.83275855832156 0.4262443188465469
1.597688529445373 13.030764804102919 238.99483784620756 68.91674431215425 0.433893538436395
1.6227708071357325 13.017956446562964 215.28436265444995 72.15732239167819 0.4417928666681903
1.647527418842344 13.003617380940709 194.15215789517777 75.56397986009964 0.4499565988948323
1.6718764351283824 12.987688128869271 175.28493029804537 79.14669938469659 0.4583991565579405
1.6958130848974429 12.970148698606875 158.40756566521637 82.91557048883806 0.46713339369192497
1.719278906479701 12.95090766281813 143.32662622027624 86.88337235629717 0.476181053228568
1.7422798243561388 12.930011479560262 129.81311603111158 91.0617399838643 0.4855567183785272
1.7647614168657826 12.907369649425283 117.71398690208875 95.46463248224065 0.4952818047121459
1.7866886932899237 12.88294117538377 106.85305714446038 100.1058409433677 0.505374334416031
1.8080282494692146 12.856692809851694 97.1146015864919 105.0018193438118 0.5158597443470752
1.8287403717202373 12.828567668238659 88.35871098323858 110.16910045566537 0.5267605598957535
1.8488208262936006 12.798610097494642 80.48529452701231 115.6252363295069 0.5380998853519072
1.868208693814994 12.76671004234648 73.4014163903654 121.3905647741975 0.5499075523352338
1.8868810551003066 12.732871332532424 67.02894180148358 127.48642894495278 0.5622130884930124
1.9048079679584453 12.697065084810914 61.27807595577426 133.9353331336006 0.5750460416293002
1.921949806903154 12.659260955234394 56.09186861399592 140.76278924271404 0.5884421298307646
1.9382660646111434 12.619383449036846 51.408180108457465 147.99654324911913 0.6024398959859281
1.953765669037708 12.57755269873114 47.17612374103112 155.66517898146145 0.6170754279830876
1.9683855810103779 12.533635188966882 43.351919331829414 163.80222833763872 0.632395963999046
1.9821041715567937 12.48764806303133 39.89070326821764 172.44134691972135 0.6484427106380835
1.9948996645668766 12.439581660294797 36.75701863490374 181.62199849411505 0.6652694675553583
2.0067300070875778 12.38941913472645 33.91436600189699 191.38606497400693 0.6829302943460259
2.017588439790562 12.33717544160253 31.337438536355645 201.77955282468025 0.7014843882300644
2.027428781779621 12.28280300180695 28.999251271256053 212.85248896254123 0.7209947394003057
2.0362433963232562 12.226349653294863 26.877437044716302 224.6601107845685 0.7415309283141318
2.0439938628521497 12.167769921368489 24.94951737848936 237.26376346272295 0.7631707585785775
2.050659054878391 12.107078599662968 23.1944382509066 250.7301332917104 0.7859963238189708
2.0562357901665127 12.044348311499892 21.599685122079148 265.13226143321754 0.8100956880557478
2.0606892493353595 11.979512578425142 20.1473392743725 280.5520598738917 0.8355692104784133
2.0640004736547266 11.912631062013563 18.827537488995773 297.07890932435015 0.86252284299528
2.066167572939133 11.84374525914659 17.623283093559575 314.8132429443632 0.8910773897317028
2.0671658454451425 11.772867845685967 16.528092619045935 333.8645075348476 0.9213590038808342
