M[M_sun], R[km], Lambda[1], P_c[MeV/fm^3], rho_c[fm^-3]
0.24162668629717493 15.618656898711224 2160425.4255784233 3.5677272577965504 0.1711233750220791
0.25364616429941317 15.277239244885822 1723069.8243607823 3.784861816891679 0.1738886991914891
0.26604377643281385 14.981210218578918 1382882.823371722 4.011490222798763 0.17666773347230308
0.27882138936818623 14.723419708183155 1116206.6460561873 4.247867255928596 0.17945912688834023
0.2919795464647465 14.498243855049504 905742.8408388788 4.49461869252816 0.18226945644242604
0.3055180387708064 14.301043914018768 738484.1237554394 4.751902475812004 0.18509447416947353
0.3194356216796291 14.12800108164537 604979.2407820886 5.020397140598222 0.18794071633534273
0.33373861089347046 13.975746860196342 497578.7787423275 5.300331852327886 0.19080490575123088
0.34842261810525677 13.841845151082879 410893.6087479399 5.592429449411619 0.19369322179780388
0.3634866966237017 13.723841575047521 340573.17890697916 5.896864548992262 0.19660086274527078
0.3789447175810445 13.619845088248555 283207.0084096446 6.214498298766807 0.19953544725563716
0.3947816333843226 13.528274566260825 236325.36980841373 6.545582011871788 0.20249304468950083
0.41101035188208135 13.447727320495051 197792.4691556405 6.890830410777382 0.20547757392080315
0.42762154911588535 13.376917921966383 166017.6953679901 7.250943399459411 0.20849201120247524
0.4446206843436791 13.314787579132393 139742.3450826054 7.626171354515855 0.21153176482128025
0.4620047168893824 13.260424375551986 117924.20073485876 8.017480595159643 0.21460326303484734
0.4797762712597997 13.213034329016121 99763.50427146553 8.42556862062775 0.21770802673708317
0.49793687244192514 13.171870967135764 84601.47586062997 8.850864819748274 0.22084335634029723
0.5164808585069224 13.136292101614549 71902.19683982154 9.294265614823546 0.2240129844703386
0.535403994239116 13.10574187931361 61244.89539883455 9.756645642849092 0.22721967537699003
0.5547157180697054 13.079732405925016 52275.204442986826 10.23880423644413 0.2304646412629935
0.5744035386824002 13.057755957129208 44702.93370678522 10.741228566465166 0.23374478408639238
0.5944645427600769 13.039468300203131 38305.25544662039 11.265164220632675 0.23706629068682558
0.6149067832155566 13.024462759938494 32880.289748869065 11.811544691506027 0.24043071521535594
0.6357163149986105 13.01240875191641 28274.051746089794 12.381349777975087 0.2438396920468783
0.6568921079882236 13.00299085879979 24354.6309350399 12.97524604708428 0.24729091529616193
0.6784290115992144 12.99595331919516 21013.09933468316 13.594605656579194 0.2507896742812424
0.7003232353067205 12.991039593390111 18159.732533358645 14.240605844597477 0.25433836318820996
0.7225631364998503 12.98799738410047 15718.764316984765 14.914437334853545 0.2579389686176512
0.7451561390584567 12.986638580944721 13623.885509878775 15.617099098115762 0.26159107466425535
0.7680823120934337 12.986768687600357 11826.910556523126 16.34991955810299 0.2652971931880228
0.7913335980860748 12.988150254903712 10281.656553086783 17.11448653392676 0.2690617170598627
0.8149131672708082 12.990692936286566 8949.017482640957 17.912256436010676 0.27288708154647684
0.8388030002758706 12.994151998165734 7801.310493771971 18.74455202499449 0.27677398079917476
0.862989194288399 12.99842207475688 6808.528676270799 19.61280422105676 0.28072366238353236
0.8874765804916586 13.003384065511021 5950.324039132916 20.5190594433532 0.28474211602464317
0.9122387536201086 13.00887850367633 5206.802081015362 21.46511362756385 0.2888323586618018
0.9372646053807799 13.014794103266313 4561.733112809309 22.452396618509248 0.29299386886387796
0.9625542708420817 13.020993104306038 4001.0420216417174 23.483044531301385 0.2972313266496747
0.9880810580256811 13.02738073067258 3513.3718960737892 24.559429299402073 0.30155040687782164
1.0138290987330452 13.03383992118292 3089.33600173987 25.683428819103895 0.30595225512499463
1.0397994391009897 13.040301157785473 2718.9224755956398 26.85713615981434 0.310439099118856
1.0659564486526123 13.046625275750138 2396.1482150863458 28.08358821865161 0.3150192069760487
1.092293957173873 13.05274572451231 2113.7844915461715 29.364763239160197 0.3196924876680052
1.1187972123462873 13.058584973495979 1866.51259100801 30.703574591499905 0.32446469689144225
1.1454360941857877 13.06404619522022 1650.3682343666605 32.10326294889457 0.3293428091625872
1.1722039209266444 13.069043087170858 1460.5620004909235 33.56594204138382 0.3343256358616593
1.1990649653843222 13.073501994236084 1294.1146319010472 35.09607633578412 0.33942620834884674
1.226016991944809 13.077361477105304 1147.8529788867656 36.69559082102447 0.34464067935953047
1.2530179752846542 13.080516153271457 1019.1556242474473 38.36963551488661 0.3499840844535266
1.280065218175453 13.082955922856632 905.7462451612155 40.12056372977482 0.35545363715465406
1.307120532597175 13.08455147287389 805.920745086134 41.953637947093576 0.36106266796669473
1.3341545489148092 13.085241246262235 717.7940951457597 43.87256866120152 0.36681436896611275
1.361166774436863 13.08502582966322 639.9174348012048 45.8818207622461 0.37271523656546207
1.388108565583778 13.083776553212248 571.1439883009881 47.98684580530489 0.3787758676141445
1.4149555904013298 13.081441147307878 510.2541175135309 50.19253997555227 0.38500260483881443
1.4393580427038843 13.0775310005227 460.55706122663025 52.666520612255816 0.9497964113311012
