M[M_sun], R[km], Lambda[1], P_c[MeV/fm^3], rho_c[fm^-3]
0.24162668629717493 15.618656898711224 2160425.4255784233 3.5677272577965504 0.1711233750220791
0.2536392442961633 15.277449226151177 1723282.5917102504 3.784753120596902 0.17388734434461153
0.2660320867543008 14.981451518204722 1383138.6226151565 4.011261722280109 0.17666497217838692
0.2788027105230187 14.723755517860821 1116608.3501771584 4.247511221467506 0.17945499742512408
0.2919530194593868 14.49866535782136 906152.4318784439 4.494125782347617 0.18226396777316722
0.3054845525326699 14.301489865391114 738877.6319155287 4.751255954308837 0.18508749050333448
0.31939599245608474 14.128443214617194 605269.864935357 5.019592246228214 0.1879323652455932
0.3336882762348743 13.976251022360053 497883.7827370313 5.299347395615171 0.19079499390564292
0.3483646112500098 13.842323476329435 411181.5735777844 5.591262973336472 0.19368193582089033
0.3634200013377373 13.724326581764346 340820.85058925627 5.895489848495019 0.196587951267283
0.37886822359908723 13.620315445220317 283463.7556221223 6.2128987394403765 0.1995208612005749
0.3946955120116461 13.52874639024532 236543.35270705493 6.543759255388258 0.20247706157756368
0.41091371250667486 13.448140773246779 197992.54282289985 6.888749270908565 0.20545985006036382
0.4275142587398843 13.377332022552661 166210.8482805658 7.248584348806161 0.20847249538099377
0.44450303274389574 13.315194738443164 139921.60948575134 7.623540914094566 0.21151082482415914
0.46187697785571347 13.260817178503531 118067.47850251358 8.01453288647714 0.21458046012506807
0.47963494550921604 13.21337909411183 99892.99408499748 8.422280660050927 0.21768330587003004
0.49778397783043943 13.172188313719767 84716.54723706389 8.847248731188046 0.2208171743140854
0.5163147776006632 13.136583926779796 72008.13363431601 9.290262882259865 0.223984804983549
0.5352267101949435 13.106005340064423 61333.46816274872 9.752229129326967 0.22718943758762075
0.5545238793234631 13.079960242429364 52355.66539031032 10.233956022203925 0.23043242139699657
0.5741951485311254 13.057978084995485 44774.28343498096 10.73594803247203 0.23371088142245172
0.5942466511154523 13.039659618085963 38367.312918826996 11.259382826516475 0.23703016843176572
0.6146732863806452 13.024601328381197 32938.04774386656 11.805228286938876 0.24039230093689937
0.6354664100612373 13.012504655959232 28324.958992177966 12.374462082221129 0.24379890948923166
0.6566292911815975 13.003082128251298 24400.568231849633 12.96781868930817 0.2472484635648451
0.6781513510945083 12.996037217224623 21053.17534672832 13.586533174085996 0.25074472886146776
0.7000312218253104 12.99109260600353 18194.587022196152 14.231844958444706 0.254290834953256
0.7222542782667983 12.988016841077554 15749.208388380815 14.90494198552796 0.25788876312646786
0.7448319657983932 12.9866524520878 13651.42504863213 15.606912906477561 0.2615390096093688
0.7677421640985085 12.986751356093501 11850.6447972585 16.338904592457396 0.2652422863469283
0.790977642186895 12.98811719078118 10302.87933735377 17.10258751818662 0.2690038561756632
0.8145413666938458 12.990628798764508 8969.10425059522 17.899414429591335 0.27282614714426456
0.8384131012916891 12.994088101521394 7768.368905042538 18.730823984955457 0.2767109075582741
0.8625837668644497 12.998354480862586 6824.245028536886 19.59801166458555 0.28065729751182317
0.8870477674359281 13.003296374809583 5964.1836071337775 20.50313118190485 0.2846723159132605
0.9117980762880983 13.00877944179497 5218.776754170012 21.447973598093917 0.288758970019141
0.9368071363018173 13.014672307804082 4572.196101598878 22.434116216192322 0.2929179424799362
0.962074864851922 13.020867771813915 4010.701461323865 23.463394371331912 0.2971515215114073
0.9875891097821011 13.027252474607916 3522.07277377496 24.538316900780107 0.3014665373406228
1.013325297852746 13.033725125730328 3097.0562693327256 25.66093589978456 0.30586545061744963
1.039272388339778 13.040164724492895 2725.840285015802 26.832987766593156 0.3103478708376565
1.0654173573784196 13.046502584515418 2402.1216422873786 28.057671327104828 0.31492332912468896
1.0917354939875459 13.05262030119351 2119.2016054103265 29.33716969651683 0.3195931678570106
1.1182234580143042 13.05846481015957 1871.7200679839668 30.673974993943823 0.3243602823930571
1.1448451456500253 13.063922709539694 1654.880439401812 32.07171207893669 0.3292342766505975
1.1715977366326435 13.068939826664282 1464.5922400328948 33.532153976178215 0.3342117665982211
1.1984473083962965 13.07341959902041 1297.6786539448367 35.05984980704722 0.33930641703934794
1.2253808912501079 13.07728176803958 1151.0958955240822 36.6570309458717 0.34451629117122806
1.2523660982810443 13.080448046470435 1021.9805269056113 38.328413850272625 0.3498538139265111
1.279400001220556 13.082901497735246 908.3780620154258 40.076557711132594 0.355317497234436
1.3064349577096483 13.084510351851 808.2336654242251 41.906780849116764 0.3609210118606916
1.3334630291759433 13.085233071357452 719.8653456197509 43.822335205086794 0.36666504915570935
1.3604644102753782 13.085048453406623 641.8876201995354 45.82831619262329 0.3725596525450453
1.3873878379676012 13.08380422814214 572.8824162418359 47.96407675348056 0.3786955205904137
1.4131561386681202 13.08085634327065 513.8772526697051 50.168115778694805 0.4621301188033735
1.4357773306035817 13.073365063569762 465.86193743664796 52.60996180021064 0.5556140297012975
1.4557410480311272 13.060516536013367 425.71891451259853 55.2630919273784 0.6457206528107641
1.4734570956704223 13.042197932713462 391.2517938216442 58.13341860599069 0.7327422637094825
1.489265168068664 13.018429025706407 361.1020308057256 61.227511021837294 0.8170316314392257
1.5034973413826416 12.989584113527231 334.27382152872553 64.55289363714363 0.8989728937685222
1.516352383478214 12.955783432886465 310.1284441071921 68.11823937733554 0.9789584956394907
1.5280813193514882 12.91742334066141 288.1103973214964 71.93137629565706 1.0570871569515463
1.538853336316895 12.874740615456606 267.84754951769025 76.00421276338042 1.133974872613694
1.5488342272993956 12.828060350229014 249.11320638323969 80.34678368208832 1.2097770364051608
1.5580944353345905 12.777526109020192 231.68839988977052 84.97168442476432 1.2848391537965662
1.566759755770511 12.723391471015306 215.43816296142236 89.8929703965346 1.3594696938766901
1.5749645881167258 12.666118494957475 200.2340630048262 95.12557646650829 1.4338423869485606
1.5827556194108423 12.60585195101587 185.99081968247134 100.68540944156003 1.507764135090579
1.5901615144313823 12.542694480305885 172.62849558040432 106.58960597472016 1.5828379110123965
1.5972599511530436 12.47704594675424 160.12198791360106 112.86081619191275 1.6596899977295143
1.6040685990732877 12.409013592339313 148.4072288374274 119.51879457039648 1.738643468863258
1.610598555182639 12.338819258854663 137.43873416632817 126.58952609561086 1.8202473281281042
1.6168545741846938 12.266602260303763 127.20600121714669 134.09945638703857 1.9051498303044456
1.6228567119851256 12.192609483664295 117.67847708777094 142.0778693544836 1.9942785989746397
1.6285771170121448 12.116861186057509 108.80399071161798 150.55625898375413 2.089063375844914
1.6340333394344986 12.039712164478841 100.558003561434 159.57074667581549 2.1919762312870548
1.6391516620912705 11.960992481841513 92.91963289846151 169.16164114550608 2.3078052521941625
1.643958434534543 11.88128260087127 85.86897908567252 179.37670261154176 2.447350444650453
1.6482771414348338 11.800070838183448 79.38022990621317 190.27595300021562 2.6327768392625344
1.6522475537837344 11.717728535168145 73.38131600348375 201.88430277959455 2.704464455019843
1.6559232309928316 11.633730264255307 67.78817138091203 214.2094794243871 2.773497462950991
1.6593424458692418 11.548427211850047 62.595587714483756 227.30934506330973 2.846213072588651
1.6624951989878456 11.46221752257304 57.7871399293742 241.24503651601964 2.922917589184575
1.6653699927428134 11.375253328846899 53.34450844453836 256.08508084721933 3.003941137684652
1.667884506699867 11.287581657167001 49.249947047124806 271.90598005375404 3.0896378792099797
1.670014844193017 11.199418635519185 45.4971695830093 288.78867476276423 3.1803443911078637
1.6717155798964012 11.110760410193274 42.04755178720626 306.8260292136499 3.276447140147989
1.6729398887765605 11.021721858436813 38.89724988629765 326.1178151931839 3.37834693687581
1.6736261803356187 10.932319005930475 36.0186652395986 346.77667773533824 3.4864994664979663
1.6737435219154404 10.842574758692965 33.39171364921418 368.92479187214195 3.601383048073138
