M[M_sun], R[km], Lambda[1], P_c[MeV/fm^3], rho_c[fm^-3]
0.24162668629717493 15.618656898711224 2160425.4255784233 3.5677272577965504 0.1711233750220791
0.25364394954275776 15.277276337937316 1723178.0708502517 3.7848185600500917 0.17388816001582652
0.2660398227110635 14.981264880072155 1383028.1753859313 4.011399287482172 0.17666663457266843
0.2788151445048561 14.723502644815532 1093932.8600840317 4.24772556482779 0.1794574834850948
0.2919691939173657 14.498413625093159 905875.9826316262 4.494422526706805 0.18226727209047755
0.30550414757013233 14.301235863746038 738665.6123295755 4.751645173545601 0.18509169481392762
0.3194210989981432 14.128137869873616 605104.9256752284 5.020076805640652 0.18793739273652002
0.33371817038196466 13.976015521701774 497710.61047180224 5.299940049986559 0.19080096095177138
0.34839934917720977 13.842040571912847 411013.8815495248 5.591965200536936 0.19368873006223083
0.36346174577475565 13.7240074824057 340669.96758146415 5.896317422231394 0.19659572401494832
0.3789150985759719 13.620008168920567 283308.76624661114 6.2138616718048585 0.19952964198429296
0.3947475169580973 13.528467292908974 236406.6160298422 6.54485654477876 0.20248668332315303
0.41097211661527316 13.447876816739335 197872.57067133975 6.890002096688475 0.20547051965043348
0.42757940073681794 13.377071690455987 166089.03493538356 7.250004464022704 0.20848424363023588
0.44457425188138167 13.314942420031795 139808.30591686885 7.625124392011127 0.21152343032654794
0.46195515590914904 13.260584157004875 117982.90945172806 8.016307341744143 0.2145941869711438
0.4797199151249489 13.213174405310136 99816.38629671703 8.42425992559272 0.21769818717994185
0.4978765530636876 13.171992268066361 84646.22329900527 8.849425507763865 0.2208329351065594
0.5164144558876796 13.136408105557464 71941.1298347886 9.292672390296737 0.2240017680703439
0.5353330684078107 13.105844749381411 61278.294609504046 9.754887701080609 0.2272076395771102
0.554636786993423 13.07984801801436 52300.786678126155 10.236880982131453 0.23045190048908334
0.5743212959658263 13.057844200363903 44732.88932283667 10.739126670941364 0.23373128926604383
0.5943773273830962 13.039527714296034 38330.642446271326 11.262862936105751 0.23705191221945662
0.6148142450964672 13.02450675317093 32902.87571531456 11.809030420231798 0.24041542425103965
0.6356179190879255 13.012435399987266 28293.219878997596 12.378608073759125 0.24382345821277301
0.6567877593924405 13.003016285375052 24372.086649921726 12.972289500454172 0.24727401688801326
0.6783190920393384 12.995981740290377 21029.157684700695 13.591392277733522 0.2507717830487454
0.7002064490696013 12.991069556873002 18173.700084686792 14.237118400225661 0.2543194436322881
0.7224408346655926 12.987994273096135 15730.983951765253 14.910657484218067 0.257918983122516
0.745027298496381 12.986642767741602 13634.991364350317 15.613044206895967 0.2615703487500554
0.7679461189766514 12.98675980941964 11836.834909146366 16.3455347059673 0.26527533579988527
0.791191532992601 12.988142681971933 10289.519177388995 17.109749709377965 0.26903868348610527
0.8147644309686382 12.99067446373405 8956.818400170783 17.907144168015115 0.2728628242003826
0.838647567462924 12.994131776046594 7807.952105182388 18.73908699034281 0.27674887179263513
0.8628271508701068 12.998407951653823 6815.045671171047 19.60691534909935 0.2806972427289766
0.8873021950976053 13.003351025873856 5955.76606449706 20.512718384735066 0.2847143285225818
0.9120629614403265 13.008850931492576 5211.594994001717 21.458290091365644 0.28880314225580833
0.9370828662938159 13.014729286888299 4565.507544068456 22.44511903211101 0.29296364191320906
0.9623601600481526 13.020935675412828 4004.6338815781655 23.47522154984823 0.2971995551975592
0.9878856736899301 13.027328286088578 3516.84103090468 24.55102409242108 0.3015170169806253
1.0136248596529673 13.033796995196493 3092.079203007024 25.674473926020088 0.3059176964679692
1.0395903802897604 13.040239486046543 2721.6680510195133 26.847522084733708 0.3104027788744035
1.0657408543515516 13.046568821138619 2398.54106578358 28.07326994796557 0.31498103520605303
1.0920721523418824 13.052701712384074 2115.9682506258605 29.353777347713002 0.31965294520416704
1.1185687731296752 13.05853267837697 1868.77401885705 30.69178989318817 0.3244231256045182
1.1452000329797685 13.063986700470085 1644.3541730946513 32.0907179122362 0.3292997056522654
1.1719625439004124 13.069002217418278 1462.1971619718136 33.55248948490684 0.33428029935931525
1.1988177644516158 13.073458256001203 1295.5241182313073 35.08165275125678 0.33937851346505743
1.2257638201090322 13.077330691083827 1149.1704313086068 36.68023807137244 0.34459115376570765
1.2527584788328368 13.080495545748043 1020.2836475705493 38.353291281853664 0.349932618030571
1.2797997898491231 13.082937730654779 906.7704434378458 40.10304220411875 0.3553994314078377
1.3068427118520085 13.084520580118268 806.805425446564 41.93498104711492 0.3610062653315513
1.3338774080766058 13.085240814257803 718.6382810721908 43.85256716583276 0.3667549141778651
1.3608874432155507 13.085033518801247 640.6875634977066 45.86051658908143 0.37265328692385236
1.3878178853754288 13.083776812623153 571.8629467681311 47.964147937999776 0.37871126215676315
1.4146750108411035 13.081486316932029 510.8745286917899 50.1681994669204 0.38493440005124846
1.441397811177063 13.078035549250806 456.9266658444464 52.47792455618545 0.3913298486755604
1.4679912839618379 13.073441057310312 409.05862169719023 54.89972132330838 0.39790920861955414
1.4943995471586258 13.067575644520694 366.5464307435588 57.43977832501866 0.4046815387075964
1.5206115153345612 13.060432690639216 328.86662540047286 60.10472210975665 0.4116566076708685
1.546595335124928 13.051947072026346 295.31656640121 62.9016566451872 0.41884495259622406
1.5723111364331042 13.042070305678093 265.4931433185355 65.83820652047041 0.4262579421465562
1.5977351469278536 13.03074345791465 238.94925311863273 68.92256430646717 0.4339078451111689
1.622822074944564 13.01792502880067 215.2593362116544 72.16354250469149 0.44180790491304506
1.6475737817610694 13.003589606761512 194.1170749166626 75.57063056983286 0.449972420775677
1.6719232461140676 12.987656163442752 175.25354325390174 79.15377906226098 0.45841567336470146
1.6958596594299076 12.970112949439969 158.3782255066096 82.92314820348183 0.4671508072581065
1.719340770736682 12.950901544933767 143.2907197863894 86.89148711371018 0.4761994291615719
1.7423267406303529 12.929963867631997 129.79104703061765 91.07039516184226 0.48557597296367166
1.76480664566683 12.907320883661402 117.68996734180024 95.47391145392739 0.4953021648479203
1.786733249843413 12.882886972833093 106.8367272682998 100.1157517880637 0.5053957215889151
1.8080724397703443 12.856635763120119 97.09269358533332 105.01241345120356 0.5158822409563276
1.8287835131848016 12.828504480705625 88.33882649100345 110.1804338792883 0.5267842550697704
1.8488637326340398 12.798544644439103 80.4713696438965 115.63741656070177 0.5381250455064812
1.8682508021757294 12.766639678064639 73.38610025865063 121.40361397306744 0.549934115722135
1.8869212315839068 12.732794276088589 67.01701007817326 127.5004203699844 0.5622411691714113
1.9048449719177838 12.696983554113027 61.262690228252374 133.95029552019932 0.5750755820262259
1.9219882677285498 12.659171853564688 56.080980240028104 140.77885992797454 0.5884734416370249
1.9383038246688356 12.61928991077145 51.397354407413246 148.01381846510372 0.60247312572337
1.9538007100762778 12.577450373734674 47.16660419725095 155.68370752811143 0.6171105414337229
1.9684189056616765 12.533527605413045 43.34277419669409 163.82212248938606 0.632433126439842
1.9821357579911723 12.487532726203849 39.88312488602757 172.46278983787647 0.6484823026419366
1.9949255598996483 12.439464443864312 36.747408428229264 181.6450679062084 0.6653114888093619
2.006765218326145 12.389308637212356 33.906557728897816 191.4109106782243 0.6829749597664769
2.017613600567072 12.337042728572882 31.330876639508823 201.80634006516078 0.7015319329395739
2.0274525521840783 12.28266300221405 28.99473358095888 212.88133267662943 0.7210451997524383
2.036264729338028 12.226204048055056 26.872136235083556 224.6912779233551 0.7415848014555088
2.044012333872098 12.167616256854517 24.944745412595005 237.29740585423465 0.7632281219465477
2.050674488589025 12.106917650446423 23.190231897858148 250.76652248768204 0.7860575978513884
2.0562508025979347 12.044178112946836 21.59670403356563 265.1716848770232 0.8101612909566943
2.0606990901138227 11.979336353270897 20.143488036194995 280.59469592030825 0.8356391435179892
2.0640074574868086 11.91244568656608 18.823617207530884 297.1251661250158 0.8625977873007036
2.0661709401801214 11.843555501149178 17.620450935575906 314.86349190913273 0.891157828441088
2.0671673964756865 11.772671876351886 16.5253031318819 333.91908005413524 0.921445196815827
