M[M_sun], R[km], Lambda[1], P_c[MeV/fm^3], rho_c[fm^-3]
0.24162668629717493 15.618656898711224 2160425.4255784233 3.5677272577965504 0.1711233750220791
0.25364506928284447 15.277246332573473 1722995.4300058747 3.78484636559083 0.173888506598478
0.26604251856500294 14.98121402751261 1383038.0786912367 4.01145774062469 0.17666734094439906
0.2788193559760704 14.72344617006175 1116317.8457823598 4.247816643489528 0.17945853986031834
0.29197602839303083 14.498292137373696 905796.77197974 4.494548621229865 0.1822686761822568
0.30551274237044 14.301152397964433 738608.0783084874 4.751810565848106 0.18509348136645062
0.3194309482466273 14.12803640815846 605014.6498202096 5.020282714428215 0.18793952911966447
0.3337321939508892 13.975792352022838 497606.56943458074 5.300191896766706 0.19080349663095805
0.3484143116607475 13.841915244870783 410933.1668981476 5.592263614502655 0.19369161729944004
0.36347985100985875 13.723852546638525 340609.56885280146 5.896669108245864 0.19659902712442093
0.3789341518065011 13.619905201890898 283249.34473803744 6.214270886322716 0.19953337352796946
0.3947694385640277 13.528347004156576 236364.43569983903 6.545322863322634 0.2024907723068173
0.41099646286475006 13.447767931903364 197821.38739239253 6.890534522257576 0.20547505401000365
0.42760764896288833 13.376950161837351 166044.2856728979 7.250607993489814 0.20848923647484593
0.4446046205188747 13.314840534282814 139761.8342686403 7.625797357644914 0.21152878756570836
0.46198669445937574 13.260472167314152 116627.13462433829 8.017061482648344 0.21460002086073454
0.47975585132543525 13.213092664996006 99781.8606485992 8.425101123225145 0.21770451181016495
0.497916191485355 13.171903294193731 84614.61950091492 8.850350660796117 0.22083963360980038
0.5164574095183866 13.13633098161729 71919.83558195631 9.293696471865058 0.22400897766842892
0.535378323743164 13.105783338200093 61254.34117280424 9.75601765565767 0.22721537584426457
0.5546885450052891 13.079764773886142 52287.19859777505 10.238120030023312 0.23046012636506485
0.5743740445748435 13.05778822941661 44715.16005677137 10.740477702988754 0.23373996331028543
0.5944331255886889 13.039489755906276 37980.3128871514 11.264342125519079 0.23706115422167895
0.6148738237234647 13.024468207595321 32889.58543910271 11.810646506552196 0.24042525275224816
0.6356822044022097 13.012405983933723 28280.610811841365 12.380370341816393 0.24383389273270561
0.6568547537203409 13.003005000677112 24361.061337963165 12.974189857555624 0.24728487854992703
0.678389592960799 12.995976463494744 21019.046599329133 13.593457711957958 0.2507832828331441
0.7002817694332026 12.991053575270584 18164.229423697827 14.239359987644102 0.2543316043534338
0.7225195911254252 12.987991552104456 15722.161207133866 14.913087012624594 0.2579318289550189
0.7451104993142709 12.98664459000944 13627.84504117618 15.615650514570433 0.2615836704660551
0.7680350080034082 12.986760811942876 11749.634396858719 16.348353091356884 0.2652893847441769
0.7912825373826319 12.988156194454332 10285.501363689276 17.112794319400138 0.2690534883936516
0.8148599807579634 12.990684184238054 8951.736090174152 17.91043008759501 0.2728784156538347
0.8387471572690242 12.994136948334353 7803.781001568652 18.74259964435426 0.27676501062032177
0.8629308187313449 12.998426094184708 6810.585258199105 19.610700415520494 0.2807142239348918
0.8874169327280977 13.003369063622213 5952.3030421320955 20.516794083655622 0.2847321888671988
0.9121754605028515 13.008866418069802 5208.3566468653025 21.46267589065571 0.288821920978298
0.9371999891241884 13.014762457447533 4562.74760995104 22.449796660887074 0.2929830701201069
0.9624863890915865 13.020984659606912 4002.3176780111244 23.480249715752404 0.2972199760733097
0.9880115252836401 13.02735692813876 3515.0320089730653 24.55642646606572 0.30153847804648826
1.0137565796247425 13.033819844141982 3090.3305379617327 25.68022959390027 0.30593990869879784
1.0397251080262722 13.040273844565263 2719.924686252142 26.853701419474064 0.3104261232883425
1.0658792073193626 13.046602016853296 2396.8236217009303 28.079901879142128 0.3150055696032598
1.0922157341097465 13.052735513798726 2114.5917278917873 29.360838368512695 0.319678360543557
1.118717006870185 13.058564026293018 1867.294648903069 30.699364315531835 0.32444984487014583
1.1453512841011109 13.064022295741573 1650.9359445202344 32.098781012451724 0.32932740967042257
1.1721179464833078 13.069028144578269 1461.1743090565876 33.56113585426906 0.3343094385155439
1.1989774728168034 13.073488595797423 1294.6106162553674 35.0909232049072 0.3394091683420537
1.225925932706605 13.077351632264403 1148.332178664659 36.690105704406136 0.34462298522239754
1.2529253590748755 13.080515095391803 1019.525135815434 38.36379614485356 0.3499656968370928
1.2799699365434922 13.082950299474227 906.1103978254546 40.11430371200636 0.35543427075101525
1.307023083567798 13.08455166752108 806.2611036417851 41.946972259749984 0.3610425165840079
1.3340570819368234 13.085242976773241 718.0835106437667 43.86542254325985 0.3667931270078901
1.361066511036109 13.085031766831943 640.1950640485798 45.87420919185041 0.37269310315270504
1.3880086145350534 13.083778453520582 571.4071830588402 47.97873625927384 0.3787527852283217
1.41485306331537 13.081456889431761 510.46579142345723 50.18384349557211 0.3849782363435381
1.4415854708515983 13.078006779753528 456.56560743814725 52.494599454628116 0.3913756316991394
1.4681805584598258 13.073404147358328 408.72913593040846 54.91750093671607 0.39795706814125387
1.4945924773675618 13.067527678785774 366.26823705547787 57.45874248064257 0.40473161452677453
1.5208053481756678 13.060375151056297 328.6172616489188 60.12495715256847 0.4117090504433881
1.5467895979290922 13.051877869179183 295.0805949557713 62.92325602697567 0.4188999247401027
1.5725078191110582 13.04198665192924 265.2756789365208 65.86127144834401 0.42631561883804747
1.5979213232238076 13.030642043890172 238.7374009332459 68.94720445743917 0.43396841538106684
1.623030016206434 13.017828517656804 215.0700659390463 72.18987681384722 0.441871572854177
1.6477721143988093 13.003464103764273 193.94220595644362 75.59878810050641 0.45003940687386335
1.6721202490300007 12.987520880150496 175.11274702959722 79.18375291305871 0.45848560201568944
1.6960571478279942 12.969957006939817 158.24701651896285 82.95523086381252 0.4672245331181065
1.7195364995597342 12.95073220476342 143.1741911418927 86.92584376347361 0.47627723006949274
1.7425186015230603 12.929781035810592 129.6849136692335 91.10704010072939 0.48565749446417844
1.7649987185816212 12.907115813942104 117.58461295872763 95.51319775594934 0.49538836776676143
1.786909785282302 12.882635549812944 106.7476186736042 100.15771366278449 0.5054862734940981
1.8082608065053507 12.85639433902317 97.0139457539174 105.05726852654394 0.5159774908028328
1.8289634853487022 12.828231291843027 88.26568794842505 110.2284195366428 0.5268845803147414
1.8490451027748196 12.798257905416863 80.40743949387297 115.68898803213413 0.5382315743705138
1.868416774792812 12.766303678472623 73.32713764667116 121.45886510104236 0.5500465867714125
1.8870942203250929 12.73246630468664 66.95977627487238 127.55949355450772 0.5623594658476667
1.905012252346165 12.696632491688193 61.21146035946129 134.01364815459675 0.5752006597973448
1.9221502746224635 12.658795748486598 56.031651500149266 140.8469058105128 0.5886060208927507
1.9384592208596232 12.61888843522551 51.35446072748029 148.08696516000265 0.6026138270302831
1.9539498971430065 12.57702582038039 47.12828053462362 155.76216170140168 0.6172592199454814
1.9685594280400407 12.533070626152508 43.30892156030332 163.90635965291955 0.632590482161382
1.9822709810223664 12.487055585631222 39.850238157693475 172.55358576064017 0.648649947385899
1.9950522907527466 12.43895350472916 36.719126310012506 181.74275178099697 0.6654894213417528
2.0068833050088664 12.388773317582796 33.87803912899284 191.5161169676715 0.6831640903747759
2.0177236020059124 12.336478224947424 31.30627686090516 201.91976866297898 0.7017332575118927
2.0275531481321645 12.282075724404725 28.970581220233854 213.0034703825901 0.7212588723617497
2.0363549975457964 12.225583118289768 26.850647842941605 224.8232554633602 0.7418129277753471
2.0440907477703583 12.166966387298574 24.92472364256247 237.43986629841845 0.7634710300905204
2.050741582993251 12.106235767110636 23.171704926205884 250.92049527719317 0.7863166754093649
2.0563064235774977 12.043463321461466 21.57905916225684 265.3385013091019 0.8104386793894366
2.0607435557844886 11.97859019179996 20.128700388729627 280.77524634007045 0.8359352882291413
2.064039260514719 11.911669368927413 18.808211088554508 297.321051615754 0.8629151568946801
2.066187151965086 11.842741072935278 17.60759851837432 315.07628577157686 0.8914984695615296
2.067171626899354 11.77183218945898 16.5125351125912 334.1501860463375 0.9218102102698942
