M[M_sun], R[km], Lambda[1], P_c[MeV/fm^3], rho_c[fm^-3]
0.24162668629717493 15.618656898711224 2160425.4255784233 3.5677272577965504 0.1711233750220791
0.25364411547282084 15.277267741398296 1723194.859619838 3.7848217466278373 0.17388819973498085
0.2660400114465391 14.981275949759473 1382981.33221202 4.011405986313375 0.17666671552409013
0.278815782396968 14.723508535904699 1116406.6067117264 4.24773600255337 0.17945760454698223
0.2919698997157185 14.498404433305426 905854.9654206155 4.494436977229988 0.182267433000407
0.30550560112469904 14.30121162020807 738648.7491888728 4.75166412753913 0.18509189955323196
0.31942153254777284 14.12814238398082 605107.2300619456 5.020100402733812 0.1879376375654692
0.333719246693592 13.975955614747017 497684.6002681652 5.2999689114377215 0.19080125153869476
0.34840106676950655 13.842027091365793 411006.5920044222 5.591999398415543 0.19368906093611388
0.3634638228680922 13.723973854978068 340644.22333063406 5.896357724853074 0.1965961025457001
0.3789170773223716 13.620005400338385 283307.9728372079 6.213908566900274 0.1995300696110978
0.3947506004231336 13.52843483345801 236419.21549588707 6.544909983668315 0.202487151910022
0.41097497197908167 13.447884071528966 197873.18960267442 6.89006311102165 0.2054710392740985
0.4275825399031519 13.377057499987052 166081.2237157407 7.250073626363228 0.20848481579255426
0.44457744599805865 13.314932118787844 139798.12678031286 7.6252015112102836 0.2115240442449607
0.46195910928510503 13.260569358041641 117981.9772121079 8.016393762963126 0.2145948555091412
0.47972382878355563 13.213152840165582 99811.9554087619 8.424356322745433 0.2176989119517695
0.49788145313316845 13.171978721775584 84640.55520036828 8.849531525426404 0.22083370271973404
0.5164192329545408 13.136408205299096 71939.36420242931 9.292789744188067 0.22400259424905503
0.5353378602831524 13.105847029669109 61276.18358983304 9.755017186907098 0.2272085261056192
0.554644807665243 13.079833469631 52299.93163486198 10.237023443950747 0.23045284922922532
0.5743275197377787 13.057845065450046 44730.96309436756 10.739281489760936 0.23373228325082235
0.5943845703583057 13.039516077610461 38329.32722189361 11.26303244020791 0.2370529712841543
0.6148206644275062 13.024502540827037 32901.946205066146 11.809215610986428 0.24041655051981176
0.635625012539456 13.012456130223955 28292.40370490387 12.37881001500992 0.2438246539219036
0.6567949921389712 13.003025412626059 24371.10991606441 12.972507264853602 0.24727526154002188
0.6783292882320021 12.995970531368128 21028.301331387716 13.591628957627298 0.25077310081898363
0.7002153498848125 12.991063625927676 18172.296135875153 14.237375264679413 0.25432083713448594
0.722449134532656 12.98799325753357 15729.453545579692 14.910935883838366 0.257920455126252
0.7450377953658284 12.986649890271552 13537.847199394648 15.613342862698948 0.26157187528041403
0.7679575369537883 12.986763168476092 11836.32001345844 16.345857662432113 0.2652769456568621
0.7912019615997254 12.988145530427687 10288.9128130619 17.110098587390873 0.269040379961742
0.8147770893618604 12.990667021860784 8956.241832423058 17.907520695926724 0.27286461079840013
0.8386592430995375 12.994138591945484 7807.610801041841 18.739489498091352 0.2767507211074766
0.8628397300275755 12.99840766072481 6814.5522597496065 19.607349070333065 0.28069918856261866
0.8873201053519354 13.003368615780511 5955.475550790627 20.513185406987333 0.2847163750865042
0.9120758239820642 13.008853263135205 5180.454341783354 21.45879264512092 0.2888052940454554
0.9370965133090967 13.014731997659247 4565.244818209465 22.44565502389826 0.29296586811794584
0.9623793964471721 13.020947651063945 4004.526593275186 23.4757977060672 0.2972018951391571
0.9878990619691119 13.027345237916812 3516.524824335438 24.55164312503772 0.3015194761033426
1.0136416736418608 13.033787224910997 3091.796489950112 25.67513343882337 0.30592024165489207
1.0396052466820056 13.040242308375166 2721.398071308367 26.848230140496156 0.31040545378157475
1.0657559756841617 13.046576383782739 2398.330475768349 28.074029861129723 0.3149838464552828
1.0920884425565804 13.052704568237118 2115.8119851553533 29.35458642499001 0.31965585738558827
1.1185869631371244 13.058539097006742 1868.6216747050373 30.692657794242788 0.32442618718172694
1.145216926960224 13.063990923785827 1652.1172390553559 32.091641804396986 0.3293028800547302
1.1719806546138603 13.069008565380992 1462.0788096741537 33.55348020542227 0.3342836381895998
1.1988361629350002 13.073467766901489 1295.420324124778 35.082714976171474 0.3393820259548805
1.2257813986607229 13.077330926202626 1149.04985926411 36.681368718167946 0.34459480105724954
1.2527771301662967 13.080495466318519 1020.1693978224738 38.35449493902015 0.34993640823159783
1.279818956051329 13.082935203471562 906.7121224605415 40.10433255259652 0.35540342331495034
1.3068628055091904 13.084525918717038 806.716461508717 41.93635500041304 0.36101041900052455
1.3338999662632642 13.085235636641812 718.6182632151641 43.854040128362634 0.36675929258426404
1.3609076038849752 13.08503345992857 640.6247564211673 45.86208547447438 0.3726578490294581
1.387838969480557 13.083774635512068 571.8090517995018 47.965819447471475 0.3787160198122946
1.4146957827307218 13.08148273540103 510.82902304466 50.16999192923666 0.38493942272819204
1.4414188159292762 13.078033183966017 456.88045554442215 52.479835125842826 0.391335094384011
1.4680129917494251 13.073434478196358 409.0216668023667 54.901758460153 0.3979146922255688
1.4944221923481211 13.067569516124216 366.5338235978252 57.441951174158945 0.40468727622646133
1.5206339397737685 13.060424226253907 328.83800786904493 60.10704056291569 0.41166261636147256
1.546617577023532 13.05193826335962 295.28599378720196 62.90413140817875 0.41885125106478993
1.5723336123873082 13.042058751391027 265.4696375012795 65.84084918747865 0.4262645504607285
1.5977579757056488 13.030732875780565 238.91805826103615 68.92538744189392 0.433914784925578
1.6228446550091704 13.01791381189035 215.24354433031368 72.16655973343175 0.44181519960760796
1.6475966426731996 13.003573778720845 194.09458668176853 75.57385667694153 0.44998009560803526
1.671946103217944 12.987639149373045 175.23341286898858 79.15721325743694 0.45842368530275723
1.6958820019277872 12.970094337199718 158.35889587919235 82.92682399280116 0.46715925421125665
1.7193632822127494 12.950883439649717 143.2787765597107 86.89542341920948 0.4762083429568286
1.742346207501787 12.929943797509756 129.7830382306147 91.07459362197747 0.4855853129920749
1.764829539232476 12.907297077234453 117.6824475025313 95.47841251408896 0.49531204117895267
1.7867552467074368 12.882860782842416 106.81905014702743 100.1205593674565 0.5054060961366739
1.8080934707968765 12.856608975846726 97.08066698291192 105.01755247961401 0.5158931536939291
1.8288044877532292 12.828474695974455 88.33046360440383 110.18593154908429 0.526795749234891
1.8488845744720153 12.798510878382698 80.46579776570938 115.64332501799781 0.5381372503404029
1.8682616683011157 12.766572776128388 73.38691480905146 121.40994396793195 0.5499470012719949
1.8869411299639656 12.73275617265338 67.00873165281045 127.50720744152616 0.5622547907698406
1.9048636217228019 12.696943819608254 61.25575380158688 133.95755360814985 0.5750899117454565
1.9220067638613962 12.659128457775264 56.07489630699769 140.7866556579097 0.5884886306835048
1.9383221943562394 12.619243242331747 51.39344857246133 148.0221985215609 0.6024892451788992
1.9538176539587324 12.5774021333873 47.1617185158891 155.69269558473135 0.6171275747007348
1.9684359524287547 12.53347608046131 43.34279900520782 163.83177301340385 0.6324511536989086
1.982151805217681 12.487478214489508 39.88046855217403 172.47319168664427 0.6485015085183718
1.994941010807558 12.439405660033996 36.74508639759209 181.65625878724035 0.665331873154332
2.0067779783368342 12.389248768560448 33.902512207749965 191.42296326340403 0.6829966268434036
2.0176265329055902 12.33697727201335 31.327626115203124 201.81933452003787 0.7015549968151835
2.027463791862768 12.28259523211312 28.991991482823725 212.8953247606044 0.7210696780662328
2.036275161937906 12.226136452315272 26.870139135071973 224.70639714513854 0.7416109353902991
2.044021590138869 12.167541888140814 24.943484182015357 237.31372587078158 0.7632559490739425
2.050682318405202 12.10683936043298 23.18827752171741 250.78416120653253 0.7860872770967935
2.0562550907597483 12.044097577543594 21.592807188997572 265.1908094173566 0.8101931153029214
2.060704524629155 11.979250859667324 20.142134334036168 280.615378974676 0.835673068541091
2.0640114123901485 11.91235947221093 18.82140014227136 297.1476057082361 0.86263414344627
2.0661734448263864 11.843462838900864 17.619152528681376 314.8878682109108 0.8911968501057852
2.0671683582553557 11.772575130594333 16.523621186733468 333.9455538480904 0.9214870100586675
