M[M_sun], R[km], Lambda[1], P_c[MeV/fm^3], rho_c[fm^-3]
0.24162668629717493 15.618656898711224 2160425.4255784233 3.5677272577965504 0.1711233750220791
0.2536437140964336 15.27728060898408 1723160.6070428668 3.78481664493704 0.1738881361448662
0.2660396020292118 14.98127322419709 1382996.1956003073 4.011395261530877 0.17666658592142298
0.2788144297762393 14.723539560256373 1116482.837976683 4.247719291832576 0.17945741072780352
0.29196795220590355 14.498461719377605 905926.4651335838 4.494413842057993 0.18226717538489742
0.3055046809919777 14.301210149438248 738650.8179778821 4.7516337823575485 0.18509157176735624
0.31942016944605506 14.128148613838384 605090.9974374328 5.020062624001648 0.18793724559654174
0.3337181212509155 13.975972951883964 497664.4713820388 5.2999227045315775 0.190800786311821
0.3483983191161142 13.842049292380711 411019.1566284252 5.59194464795738 0.19368853121036983
0.3634594568158215 13.724038269587853 340648.37420144887 5.89629320078399 0.1965954965219885
0.3789139723949644 13.620016137625834 279401.9597609918 6.2138334883750925 0.19952938498534856
0.39474482681104944 13.528485303447292 236407.45709977573 6.544824428626962 0.20248640170788854
0.4109703273716642 13.447886009697609 197880.41777687563 6.8899654278141 0.20547020736291183
0.4275775438920864 13.377094616547803 166088.77505097145 7.249962898329654 0.20848389976790965
0.44457187946110227 13.314953540001264 139807.46230032574 7.625078044381445 0.21152306136961424
0.4619531833942921 13.26060756146308 117987.57317145306 8.016255403765234 0.2145937851888869
0.47971790523320534 13.213160160340179 99819.38218615389 8.424201992260803 0.21769775160227514
0.4978738627248159 13.171999950547452 84650.20587536617 8.849361792687091 0.2208324737821802
0.5164117213766071 13.136410984991901 71944.12003546886 9.292601862368283 0.2240012715493307
0.5353294797355305 13.105854860964651 61280.04229298328 9.754809882104082 0.2272071067872049
0.5546354102883575 13.079836569616388 51817.03624082865 10.236795364853341 0.23045133031141055
0.574317225746814 13.057873004006085 44732.699863539994 10.739033627368018 0.23373069189748166
0.5943736284300482 13.039528878774874 38331.82261965811 11.262761066999778 0.23705127573943904
0.6148099224097144 13.024509870709782 32904.14401836112 11.80891912380133 0.2404147473830484
0.6356124904843624 13.01244427969962 28294.098371181888 12.37848671066803 0.24382273961290513
0.6567823784629464 13.00302332565402 24179.14193885729 12.972158628020866 0.24727326887485124
0.678313574110452 12.995981535786537 21029.890337911806 13.591250037546121 0.2507709910934904
0.7002011766573829 12.991068757414267 18173.652429049547 14.236964029618347 0.2543186061642093
0.7224353669942273 12.987996439724663 15731.368389446741 14.910490171522317 0.2579180984772245
0.7450215071336432 12.986659775588956 13635.331060634737 15.612864720751176 0.26156943133594107
0.7679416305852717 12.986753932951293 11837.625878282404 16.345340615767128 0.26527436830891693
0.7911851956038551 12.9881356420226 10289.816071549954 17.1095400410276 0.2690376639399171
0.8147575964128608 12.9906715855027 8957.28212925569 17.906917882838705 0.2728617504934007
0.8386410722046964 12.994130760330794 7808.274730248533 18.738845092001817 0.2767477603949199
0.8628215961899682 12.998401051734335 6815.3549160684515 19.606654692347707 0.28069607332651964
0.8872953313188965 13.003345294532078 5956.192079244279 20.512437715044427 0.2847130985844789
0.9120551956881963 13.008844706344448 5211.6746954221135 21.457988068300843 0.2888018490805068
0.9370747294051525 13.014727551872088 4565.823697322042 22.44479691378342 0.2929623040170626
0.9623514819539112 13.020929521539466 4005.0581220551658 23.47487529393702 0.2971981489494211
0.9878765026777168 13.027323762913767 3516.9837197568363 24.550652069143915 0.30151553910875284
1.013618457584389 13.03378088176036 3092.177443950693 25.674077575419457 0.30591616687466855
1.0395811044884589 13.040235019516428 2721.727576866482 26.847096561394444 0.31040117132385153
1.0657312612516676 13.046561737003591 2398.6184629268605 28.072813260047216 0.31497934571885994
1.0920631646232555 13.052701363807804 2115.961599567104 29.35329111378486 0.3196511950605749
1.1185593618271226 13.05852956748551 1868.8492183019825 30.691268308185574 0.3244212856796237
1.1451893821067638 13.063987740386363 1652.3298410041523 32.09016267848725 0.3292977979237924
1.1719522220867236 13.068998318870738 1462.2774275027361 33.551894089683216 0.33427829281602384
1.1988068755620283 13.07346320051524 1295.5530136416533 35.0810143844672 0.3393764025591459
1.2257525380124623 13.077324180522462 1149.2268975151076 36.67955858548582 0.3445889618494195
1.252746505761246 13.08048885084562 1020.3129696995214 38.352563654267236 0.3499303152114026
1.279787964023622 13.082935898983312 906.8548172568088 40.102266743453264 0.35539703239160336
1.306830974496911 13.084522545183598 806.8540054660517 41.93415534309545 0.3610037691032068
1.3338680415100914 13.085238776087095 718.693490518759 43.85168196112963 0.36675228289169326
1.360874573106415 13.085033983125404 640.6926563330577 45.859573738464 0.37265054524233343
1.3878048811807877 13.083777298621015 571.888773595956 47.963143414357916 0.3787084029582111
1.4146611195315713 13.081487761793868 510.8849905710768 50.16712225556876 0.38493138158633
1.4413836982170123 13.078040328009326 456.9322583184524 52.47677636713685 0.3913266961786222
1.4679787365937582 13.073440441250654 409.0803539778683 54.898497072618945 0.39790591315687485
1.4943863253724232 13.067579866336098 366.59084376855293 57.4384725169443 0.40467809065484306
1.5205985332240397 13.060436231846415 328.8959472224317 60.10332879988335 0.41165299665638166
1.5465814601453662 13.051952816619124 295.33579542570453 62.900169399882934 0.41884116743868344
1.5722980094255168 13.042074069372289 265.5081733239007 65.83661837224915 0.4262539707864244
1.5977216819079223 13.030748754862532 238.95865594646338 68.92086770480448 0.43390367453523637
1.6228080597182273 13.017932827092773 215.2666818073149 72.16172926177597 0.4418035210713228
1.647560790305917 13.003597426252608 194.12696739028465 75.56869180067362 0.44996780848979273
1.6719094495807263 12.987664396650592 175.26029149863336 79.15171524174794 0.45841085849505614
1.6958471922293268 12.970122101760357 158.38636180105436 82.92093919640226 0.46714573096627127
1.7193272163742201 12.95091321226278 143.2995200411755 86.88912154902971 0.47619407232145056
1.7423137268716966 12.929977970023883 129.79801690794102 91.0678720548992 0.48557035997944564
1.7647932234194923 12.907333971340371 117.69531412127061 95.47120649950031 0.49529622957392033
1.7867204726983106 12.882902619621522 106.83781824294178 100.11286263089562 0.5053894869130889
1.8080601729739596 12.85665244800973 97.10318777781214 105.0093251100032 0.5158756828573153
1.8287712606262068 12.828523801932976 88.34569764654613 110.17713001311829 0.526777347564463
1.8488510988088023 12.798564199873338 80.47783855518337 115.63386583312823 0.5381177109285762
1.8682390622458713 12.766660851486726 73.39526878503102 121.39980992392616 0.5499263720721119
1.8869091504662567 12.732817298803061 67.02136203368164 127.49634164257849 0.5622329831980524
1.9048327341314368 12.69700821841726 61.266513730589175 133.94593373753904 0.575066970512933
1.9219766600582413 12.659197634555738 56.08326766269192 140.77417505263296 0.5884643137182913
1.938291954953312 12.619316970089626 51.39956747817825 148.0087824428628 0.6024634386840318
1.9537909133414149 12.577479724985185 47.169332151565364 155.67830613260142 0.6171003052485441
1.968409044134431 12.533559353411892 43.346571791667884 163.81632298956663 0.632422292925982
1.9821261698896968 12.487566824332372 39.886062950652615 172.45653883695712 0.6484707608522094
1.9949175221865114 12.43949942227256 36.75035246525926 181.63834274454265 0.6652992388341381
2.006756608611499 12.389345420499943 33.90804976194657 191.40366768532164 0.6829619389512691
2.01760621206185 12.33708150520141 31.33193379469517 201.79853106749118 0.7015180727390046
2.0274456196014783 12.282703193317039 28.99640136202917 212.8729241667502 0.7210304895674698
2.036258704075138 12.226246929809562 26.87429556126314 224.682192076691 0.7415690963532465
2.0440067312943664 12.167661264032937 24.945484436070526 237.28759840844245 0.7632113993505446
2.0506697969330547 12.106964872718976 23.190737012204192 250.75592258963394 0.7860397622603738
2.05624502916012 12.04422930346626 21.596242261565006 265.1601921019064 0.8101421663111837
2.060696370609473 11.97938777748002 20.14508480978381 280.5822665852173 0.8356187565155377
2.064004946467673 11.912502310789186 18.823750944412318 297.11168123984913 0.8625759393704968
2.0661705070186587 11.84361018347286 17.62123871236829 314.84884319522234 0.8911343787312979
2.067166729330281 11.772729616290261 16.525801183175453 333.903170900028 0.9214200695777289
