M[M_sun], R[km], Lambda[1], P_c[MeV/fm^3], rho_c[fm^-3]
0.24162668629717493 15.618656898711224 2160425.4255784233 3.5677272577965504 0.1711233750220791
0.2536421545228301 15.277351079710497 1723176.6820100055 3.7848055496541004 0.1738879978475169
0.2660382282142303 14.981281434516363 1383040.695279143 4.01137193708032 0.17666630405920314
0.27881205802536174 14.723581806188989 1116446.8210818882 4.24768294916192 0.17945698920759115
0.2919651811203922 14.498503328263864 905910.0686991465 4.494363527559688 0.18226661512128142
0.30550363199772235 14.301213003547213 738666.4680143957 4.751567787682284 0.18509085889891067
0.3194159801151535 14.1281981237345 605163.0376925868 5.0199804630719855 0.1879363931451853
0.3337121380986695 13.976045373365615 497692.30389134685 5.299822214350434 0.19079977454244026
0.34839273091458217 13.842089294439853 411047.2225260633 5.59182557768356 0.1936873791727155
0.36345402937193927 13.724051465058043 340689.43313053076 5.896152875431061 0.19659417855657776
0.378905836464311 13.620062025104538 279423.9394613209 6.213670209898964 0.19952789608224633
0.39473622486752924 13.528523532825615 236433.38468828224 6.544638366610116 0.2024847701953583
0.41096011500346696 13.447955634074765 197900.8595269141 6.889752990469676 0.20546839815734083
0.4275663128052765 13.377118534116757 166105.15645275134 7.249722092287535 0.2084819076412365
0.4445605032306274 13.314998990391029 139828.06222120437 7.6248095352573975 0.21152092386433602
0.4619405640521181 13.260633557517568 118004.13602022022 8.01595450829543 0.21459145751916442
0.47970277458064886 13.213210208916166 99833.30652819497 8.423866364250733 0.21769522814883877
0.4978577739441724 13.172033869792065 84658.56296916853 8.848992669692318 0.22082980117398393
0.5163946201209263 13.136451276532298 71952.56098560704 9.292193271065484 0.2239983950410863
0.535311396792877 13.10587865985726 61288.88480267648 9.754359052312104 0.2272040201678109
0.5546162115813786 13.079853648135048 52310.89013394693 10.236299358070914 0.23044802709973244
0.5742963367883355 13.057872285437101 44741.66506459496 10.738494598764706 0.23372723116687824
0.5943499026816021 13.039558985268378 38336.953251427425 11.262170910712477 0.23704758843227636
0.6147859110310259 13.024542349766836 32909.65565611535 11.808274353695088 0.2404108261050273
0.6355863848615658 13.012465210439409 28301.74746327689 12.3777836231265 0.24381857657940056
0.656756234822172 13.003050858804075 24377.46092583074 12.971400451718374 0.24726893545001102
0.6782859865759049 12.995989813839756 21033.6518644301 13.59042600671045 0.2507664031105684
0.7001719241726242 12.991072467034213 18178.159722489556 14.236069726224459 0.254313754524651
0.7224038575919041 12.98799629638717 15734.384181990146 14.909520893691006 0.25791297353995835
0.7449893308292408 12.98665402930935 13638.346564846384 15.61182492130432 0.261564116570895
0.7679070408655133 12.98676039501417 11839.349528110568 16.344216214367382 0.2652687634499488
0.7911489545476837 12.988123521307676 10293.605906374769 17.10832539492181 0.2690317575272183
0.8147223530333491 12.990655803228542 8959.528408786398 17.905606975182145 0.27285553033030474
0.8386012324894467 12.994122403033337 7809.530046469579 18.737443737030855 0.2767413218939088
0.8627790776187273 12.998391218835053 6816.864843145863 19.60514467007267 0.28068929880889276
0.8872521461211151 13.003337221361924 5957.20179412846 20.510811758281164 0.2847059733898337
0.9120117260721835 13.008821761968873 5213.089934516463 21.456238412247426 0.28879435755996374
0.9370280937975969 13.014719869489177 4566.9344010971745 22.442930846597193 0.2929545534363486
0.9623042978088748 13.020922905266117 4006.0051978289653 23.472869399268298 0.297190002415162
0.9878272458746714 13.02731076358089 3517.831899664796 24.54849690614578 0.30150697766926515
1.013566586433719 13.033776527313707 3093.2929526022294 25.67178148607019 0.3059073058236679
1.0395273020971085 13.040230012747553 2722.544837571953 26.844631477433918 0.3103918586805352
1.0656757214978183 13.046555392084842 2399.159689078552 28.070167643420834 0.31496955843255664
1.0920042315216445 13.052685577650209 2116.506265049248 29.350474340550637 0.31964105640643925
1.1185011680803516 13.058517869215532 1869.3326854199688 30.68824675138721 0.3244106269422255
1.1451292918665061 13.063974575161094 1652.7399995781602 32.08694619931078 0.3292867464181525
1.1718902072293567 13.068990347064782 1462.7690067886633 33.548444962128336 0.3342666689005439
1.1987435092699836 13.073444858145 1295.924020550456 35.07731633084987 0.339364174098378
1.2256867214142537 13.077319412860888 1149.5580911679804 36.67562233660493 0.344576264119848
1.2526813646992387 13.080482372731488 1016.163150846058 38.34834392527105 0.3499169480349993
1.2797191196373792 13.082926812260318 907.0682885034041 40.09777453360998 0.3553831349950986
1.3067620933673805 13.084522548558315 807.0970135760415 41.929372085012254 0.3609893085893609
1.3337969865909791 13.085233030891075 718.832619029828 43.84655403132413 0.3667370400323413
1.3608029328955504 13.085037848683765 640.9151534235396 45.85411188086228 0.3726346629023649
1.3877327567963267 13.08378094458977 572.0733051746012 47.95732430184541 0.37869183988555016
1.4145875887336685 13.081495841988861 511.04895773277354 50.160882085756285 0.38491389594283454
1.4413100501606437 13.078051289392743 457.07087114000416 52.47012504532121 0.3913084341409514
1.4679024034925199 13.073459590642031 409.2031463773135 54.89140515024843 0.3978868229773079
1.4943097238022627 13.067596823830844 366.69694520957813 57.430908160231475 0.4046581165855271
1.5205212624890632 13.060460866537188 328.9866128026501 60.095257576261844 0.4116320786208591
1.5465036358333528 13.05197968175332 295.42730938070713 62.8915540431585 0.4188192406708685
1.5722195002464254 13.042108728509202 265.59164158746944 65.82741852407086 0.4262309654335331
1.5976419344666901 13.030787539265502 239.03035649862167 68.91103962979629 0.4338795152207704
1.6227234762750362 13.017946795559368 215.33610665771238 72.15122553334031 0.4417781264137393
1.6474822069595774 13.003644868590467 194.19352262587012 75.55746095410706 0.449941090571963
1.6718312896706236 12.987720174491582 175.31605175728322 79.13976002721274 0.4583829671163221
1.695768149104321 12.970181508747208 158.43532073827402 82.90814298525969 0.46711632531033426
1.719233289842354 12.950947434491555 143.3521131196379 86.8754184773694 0.47616304160617945
1.7422358021550641 12.93005584692529 129.84220346120745 91.053256418636 0.4855378455685823
1.764717043155153 12.907415888848986 117.73783554748232 95.45553751790358 0.4952618483295835
1.7866451066801134 12.88299328002702 106.87399961613696 100.09612666106172 0.5053533714162568
1.807983999605222 12.856749846211205 97.13288015256853 104.99143537721042 0.5158376939722314
1.8286972527761751 12.8286286123109 88.37456572688244 110.15798203585253 0.5267372982011528
1.8487786139546512 12.798676379638565 80.50105170415688 115.61329777130501 0.5380752244103418
1.8681675077343163 12.766784532839159 73.42212827604185 121.3777745267297 0.5498815160784921
1.8868410728802854 12.732948999493747 67.04172283727004 127.47271520990294 0.5621855651361912
1.9047666168614155 12.697147303939156 61.28926472238959 133.92066774731464 0.5750170876032097
1.9219123837048213 12.659349899892929 56.10287042063002 140.74703760733988 0.5884114396550115
1.9382309912423756 12.619475782866521 51.41825220407206 147.97961105202276 0.6024073260623838
1.9537413740305225 12.577686138649687 47.185016085410204 155.64701839495345 0.6170410118537545
1.9683523745000504 12.533740247290659 43.36122527078023 163.7827293270985 0.6323595396853088
1.9820765896967354 12.487761120487294 39.895340432645135 172.42032998064934 0.6484039051580315
1.994868724420206 12.439700919965034 36.76368054683711 181.599387449266 0.6652282812236459
2.006703429706764 12.389545625938036 33.920539572819706 191.36171301601672 0.6828865165390892
2.017563317179103 12.337305786735357 31.343959295097754 201.75329800954165 0.7014377885230174
2.027406403187141 12.282939231586502 29.005698157947887 212.82421864669973 0.7209452821741001
2.0362229936384706 12.22649404229561 26.882535360299304 224.62956335275203 0.7414781263510057
2.043974895575963 12.167921185871945 24.953488852697152 237.23079011914504 0.7631145359987942
2.0506437399695927 12.107237199634476 23.199212286978536 250.69442428235803 0.785936126500828
2.0562175591482745 12.044490407615836 21.60350724100006 265.09362232720053 0.8100313903384508
2.060679785590957 11.979684351541234 20.150425640576813 280.51027224757024 0.8355006690452612
2.0639988245968994 11.912823751355615 18.830397998284738 297.03357319511684 0.862449390342544
2.066163165150233 11.843931749969384 17.62672695212007 314.76399433646344 0.890998552396911
2.0671652533810434 11.773063760417536 16.530651926592718 333.811021689243 0.921274527260121
