M[M_sun], R[km], Lambda[1], P_c[MeV/fm^3], rho_c[fm^-3]
0.24162668629717493 15.618656898711224 2160425.4255784233 3.5677272577965504 0.1711233750220791
0.25364770586304186 15.27717779616568 1723023.4019426766 3.7848936563855555 0.1738890960554204
0.26604763930969483 14.981115240132596 1382836.1031606582 4.011557157302179 0.17666854233627483
0.27882859833266077 14.723241315417246 1116320.1001749318 4.247971551517758 0.1794603365600044
0.29198731306708464 14.498143724725 905656.3206251088 4.4947630876305915 0.18227106431540396
0.3055283170595121 14.30090846002783 738379.2382319547 4.752091875199029 0.18509652004432756
0.3194495014068939 14.127815647229424 604867.2539223211 5.020632941146223 0.1879431628570389
0.33375151444159756 13.975598707692969 497464.405293114 5.300620264237987 0.1908078095806037
0.3484397499690867 13.841700575128979 410803.9713953154 5.592771194536436 0.1936965282758973
0.36350870045946265 13.723653762941005 340455.39348950837 5.89726730774233 0.19660464554068424
0.37896759665145396 13.619691957109668 283137.09744178096 6.214966947634892 0.19953972076902413
0.39480716900255947 13.528140456076855 236257.60770777127 6.5461160660314555 0.2024977276230093
0.411038510839015 13.44757065439172 197723.03252876003 6.891440183569275 0.20548276700178011
0.4276532362355232 13.376784999623307 165957.57866808336 7.251634615966692 0.20849772945949635
0.4446562810076229 13.314676360581982 139697.62861658918 7.626942105901069 0.21153790049789806
0.46204206443071366 13.260326780326615 117878.5724923836 8.018344329728277 0.21460994472003514
0.47981748139162805 13.212943274955713 99725.81453324133 8.426532077310764 0.2177152705844517
0.4979826478603456 13.171770486065627 84564.63209346127 8.851924447457325 0.22085102849765484
0.5165295772514408 13.13620422198556 71873.85635907692 9.29543856764209 0.22402124213130625
0.5354561228481058 13.105668901332107 61215.22813871869 9.75793987809628 0.22722853639657092
0.5547713764313883 13.079669786625383 52246.5538057481 10.240214344517629 0.23047394619470196
0.5744635297219012 13.057696414866856 44683.26081617923 10.742776062204966 0.23375471948839607
0.5945281688247025 13.039416907143032 37951.57241059924 11.266858534137105 0.23707687678826206
0.6149732330588418 13.024414016434472 32865.01726786245 11.813395837623995 0.2404419732723223
0.6357886677485302 13.01235143956195 28027.40423453487 12.383368396597564 0.2438516444375295
0.6569680877717472 13.002953482749717 24341.440854443514 12.977422868023238 0.24730335711200158
0.678510370501173 12.99592264933768 21003.48414533056 13.596971603455367 0.2508028472395738
0.7004091400781013 12.991028697669906 18149.497583509907 14.243173610558094 0.2543522934438661
0.7226524379320801 12.98798657330817 15709.251507341027 14.917220428910303 0.25795368388502454
0.7452511876725995 12.986643105707019 13615.970498126588 15.62008473282166 0.26160633524842214
0.7681825236822549 12.986760188862185 11818.992644019932 16.35314818241819 0.26531328707046714
0.7914381478289169 12.988149514345212 10274.253740482538 17.11797436122553 0.2690786771829392
0.8150232814166232 12.990703208767663 8943.371951863766 17.916020754992843 0.2729049429708855
0.8389170473123773 12.994173740635953 7795.632631526598 18.748576135696396 0.27679246950571923
0.8631081779392827 12.998454423858146 6804.018018496051 19.617140470620175 0.2807431164005939
0.8876001815401753 13.003416786522298 5946.373263959749 20.52372871468096 0.28476257749558337
0.912366791488077 13.00892078108857 5203.045896679882 21.470138234103043 0.2888538725719419
0.9374011112368346 13.014815173793313 4558.207206665295 22.45775562348671 0.2930161271195996
0.9626930517182573 13.021020105735822 3998.0759494166027 23.488805219387316 0.2972547225156589
0.9882245467538042 13.027417230047465 3510.9683933755846 24.565618802478284 0.30157499483524836
1.0139784908999017 13.03387239551614 3086.9541783052327 25.69002317032906 0.3059777039963729
1.0399505163694094 13.04033234092577 2717.03263842027 26.896830652290184 0.26836845331504816
1.0423643110886747 13.030125072717196 2665.665894870159 29.095537053388654 2.8624069402889267
