M[M_sun], R[km], Lambda[1], P_c[MeV/fm^3], rho_c[fm^-3]
0.24162668629717493 15.618656898711224 2160425.4255784233 3.5677272577965504 0.1711233750220791
0.253632963589493 15.277564201078786 1723496.1939974716 3.784616993890227 0.17388564759088254
0.26601582167732585 14.981782548738584 1383523.7965919175 4.010975570891365 0.17666151420772894
0.278778793361563 14.724219835878388 1117105.097424613 4.247065378979635 0.17944982632413506
0.2919203988964754 14.49918447298863 906587.6705210387 4.493508564543606 0.18225709490967076
0.3054419557909784 14.30207744803388 739335.6931550299 4.750446421214537 0.1850787460008989
0.31934295974443816 14.129032967199855 605694.0049877258 5.018584450445625 0.18792190897537542
0.3336257759054785 13.97694743574516 498328.8164406554 5.298114825235593 0.1907825839671247
0.3482909320614332 13.84295779733661 411585.4163370141 5.5898025672069585 0.19366780598984337
0.36333694223923224 13.724905580631713 341165.41587243974 5.893768821111612 0.19657178701388983
0.3787722549761773 13.620904863880197 283791.0808310549 6.210896287706155 0.19950260125186767
0.39458506829961826 13.529353559206777 236843.88368159556 6.541477474546053 0.20245705344211246
0.41079265679965826 13.448695980973543 198244.69454829022 6.886144143822713 0.20543766370490157
0.4273796094526008 13.377860817653715 166431.42932219568 7.245631458021692 0.20844806687229492
0.4443550210800598 13.315678723523579 140114.6964443866 7.62024843599186 0.21148461458140513
0.46171624771206815 13.261261408749187 118253.30088307409 8.010843435463691 0.214551919238686
0.4794576016330701 13.213811568038423 100064.60919755958 8.41816550095208 0.21765236562649362
0.4975926649088648 13.17258180955383 84859.12726808178 8.842723049454449 0.22078440644465913
0.516104838494584 13.136948102988152 72139.24074981919 9.285253495141491 0.22394953858593677
0.5350007955700203 13.106341771846903 61450.76095364611 9.746702113512782 0.22715159671173688
0.5542834762101694 13.080255914343617 52453.61178184547 10.227875394909862 0.2303919267912785
0.5739378876963372 13.058225950896833 44865.42414357448 10.729340220095827 0.23366845722015242
0.593975796563719 13.039876288563256 38448.05275778239 11.252148539146019 0.23698496847336128
0.6143818799295981 13.024810048935764 33008.81517191584 11.797324841506834 0.240344234802065
0.6351557264685775 13.01266181611096 28390.36575647977 12.365844135054411 0.24374788198458025
0.6562961448713425 13.003213204532528 24457.042452911803 12.958525811825824 0.24719534928787976
0.6778042660939736 12.9961267004742 21102.131218925595 13.576433522152332 0.25068849670535975
0.6996639781152902 12.991167913242629 18238.89127701332 14.22088444887597 0.25423137365391774
0.7218668665286275 12.988067018925463 15787.720153288476 14.893063063090132 0.2578259547857454
0.7444258305090693 12.986673368203103 13685.717324318342 15.594170126029148 0.26147387696833685
0.7673165961456656 12.986736363619658 11883.02753021258 16.32512555459401 0.26517360129908135
0.7905291077357935 12.988095023871496 10330.22780124316 17.087703159617927 0.2689314785802103
0.8140678946786516 12.990570737612291 8993.054628866174 17.88335111199349 0.27274992785084506
0.8379250611880014 12.994021317625359 7840.413181022759 18.713595214262238 0.2766315037577352
0.8620782721098318 12.998270753428187 6843.4937754829025 19.57950981581951 0.28057429138491535
0.8865169618188851 13.003176992742386 5981.350106014196 20.483209620691603 0.28458501654313717
0.9112461219836172 13.00864833333322 5234.362711854305 21.42653731107079 0.2886671860457778
0.9362383574073669 13.014543574604552 4585.999017911983 22.41125444026565 0.2928229876782581
0.9614811973238684 13.020713976100254 4023.259759385798 23.43882052519184 0.29705171982063133
0.9869747046990094 13.027096212708338 3532.953306720812 24.51191547869418 0.30136165702401896
1.0126856953910206 13.03355135983644 3090.0659720278563 25.632761082786253 0.30575655111711747
1.0386114886719169 13.03999752250984 2734.7283799784996 26.80279197432015 0.31023379657179173
1.06473864611104 13.046333668194526 2409.871413598504 28.02526547928923 0.31480344580247643
1.0910369286954147 13.052461716390999 2126.1929935002295 29.302668545173656 0.31946898489599007
1.1175045515148794 13.058307626652214 1877.8917264999375 30.636967140254015 0.32422973479111716
1.1441074119069616 13.063780776627993 1660.4186993212363 32.032024146011686 0.3290970203395569
1.1708392170622612 13.068801910211006 1469.701704595133 33.48991257100679 0.3340694087075222
1.1976646212786883 13.073281065687425 1302.2436823819603 35.01456180958312 0.339156661909338
1.2245841641103998 13.077173228167727 1155.1445463611165 36.60882764227876 0.34436079477554826
1.251556623568651 13.080374415223627 1025.640422167138 38.2767413879976 0.3496901268937538
1.278567312348813 13.082844328287393 911.6564928167686 40.02155064189553 0.355147323738891
1.3055868123996996 13.084466092994505 811.2069971904143 41.848190708036384 0.36074382980388786
1.3326067623783657 13.085252674026977 722.5726307408016 43.759549076886756 0.3664784163121044
1.359584528080774 13.08507128367005 644.2693993913889 45.76144407843491 0.3723651975208756
1.3864949936179383 13.083861526718367 575.0503222986719 47.858536464397424 0.3784105103629958
1.4133227552750858 13.081606354690072 513.7817829676665 50.055016625641734 0.3846172492569787
1.4400437261939822 13.078258748794848 459.5076490462596 52.35728801552078 0.39099862593350104
1.4666097893862295 13.073697605592672 411.4004714909161 54.77109752026001 0.39756297647423444
1.4930089127101016 13.06791883226082 368.7189593602638 57.30259050688331 0.40431928728387717
1.5192082657721793 13.060857823628247 330.7783518974093 59.95834647018491 0.4112772487320282
1.5451805696851133 13.05244595995549 297.0528446750822 62.745418074990525 0.4184473130135564
1.570889119008187 13.042654732982394 267.0597361360301 65.67137393030498 0.42584075671738936
1.596305248642206 13.031422179276868 240.33502859617124 68.74434547330915 0.43346974865479837
1.6214025145282116 13.01870693072591 216.52225549585052 71.97307838811732 0.4413474235656865
1.6461330991740262 13.004462689070966 195.29696572402523 75.3669890374236 0.4494879623960366
1.670489127156385 12.988635573660115 176.30984570945319 78.93622644548013 0.45790667992270184
1.694428926669805 12.971211287065636 159.34983126288193 82.69113903379613 0.4666176508618891
1.7179210969302612 12.952129822162902 144.16865241301292 86.64304531801908 0.4756368307300206
1.7409249087823735 12.931335500095724 130.58935077200772 90.80541726784587 0.48498649468438637
1.7634045941768293 12.908785214337968 118.41588742602259 95.18984837757371 0.49467886703019753
1.7853526950826482 12.88450058090172 107.49694878175069 99.81235629616117 0.5047410072798302
1.8067004348905358 12.858362768891443 97.69030621008412 104.68770198533164 0.5151920322290205
1.8274524281850488 12.830431008527576 88.88275057743772 109.83222637072821 0.5260541369614118
1.8475383678952586 12.800568832519435 80.96962457778538 115.26459707443261 0.5373549290979633
1.8669660559937233 12.768850191306708 73.84592988565588 121.00421385448003 0.5491210834445059
1.8856578232127301 12.735140847713591 67.43190058609471 127.0722003732624 0.5613817350548176
1.9036169602767083 12.699495417780389 61.643911062568584 133.4915792008042 0.5741686913252745
1.9208000978863513 12.661860868532733 56.42658570459244 140.28704554809477 0.5875152001974627
1.9371767491365848 12.622216553396981 51.71686929108294 147.4851675506353 0.6014562393873669
1.9527243854099983 12.580567718660982 47.458464369973505 155.11669438426915 0.6160359431873522
1.9673862565944118 12.536810599822838 43.61205924994707 163.21173434181236 0.631290410144169
1.9811687784184386 12.491043875727854 40.125944703395255 171.80669629239412 0.6472708976459878
1.9940171320667501 12.443164833860108 36.973065133286234 180.9392439954708 0.6640258207691506
2.0058983253938427 12.393161464769907 34.11280304316082 190.6507799853922 0.6816084637035761
2.016813040463387 12.34110119884421 31.52198411086294 200.9868547208508 0.7000774272889874
2.0267234009737227 12.286943196127087 29.16904746256817 211.99762642120044 0.7194971368643972
2.035599363618368 12.230742136051504 27.033867994391183 223.74244593110288 0.7558376031041122
2.0432725536777068 12.172516769543964 25.10674030050671 236.31429319072237 0.8138668994964342
2.0496662842340942 12.112225102266818 23.37196598348341 249.79950861584 0.8787691931410655
2.0547028718976277 12.049797006996911 21.81068684860108 264.2900374238634 0.9513284196097095
2.058331411514847 11.985184059392758 20.406323367919132 279.8897274460392 1.032419310759655
2.0604981015667856 11.918330617302617 19.141928751583762 296.7161911429521 1.1230166087238338
2.06115514871732 11.849227526273488 18.010597543778168 314.90243415754634 1.2242164773429502
