M[M_sun], R[km], Lambda[1], P_c[MeV/fm^3], rho_c[fm^-3]
0.24162668629717493 15.618656898711224 2160425.4255784233 3.5677272577965504 0.1711233750220791
0.2536439967130143 15.277278045043795 1723257.1997182127 3.784822063374348 0.1738882036830733
0.2660408316560243 14.98124338597784 1353335.0824188564 4.011406652179068 0.17666672357068405
0.27881565398118646 14.72349567770029 1116437.4198100949 4.247737040066885 0.1794576165805755
0.2919701111780548 14.498404885537328 905879.9674872621 4.49443841361784 0.1822674489949191
0.30550560262319065 14.301221786082763 738628.5358112877 4.751666011574925 0.1850919199044143
0.3194216120438715 14.128142463105757 605094.1890877169 5.020102748297293 0.1879376619015956
0.333721314502686 13.975896881153766 497655.3868254859 5.299971780282892 0.19080128042320535
0.34840123704578274 13.842025654833005 411005.69649211975 5.592002797706672 0.19368909382519067
0.3634641396006336 13.723981338504757 340644.5816299161 5.896361730961975 0.19659614017192267
0.37891732529689737 13.620004073345942 283303.63144256815 6.213913228308456 0.1995301121175277
0.3947493635914546 13.528468913683062 236411.9830418602 6.544915295537491 0.2024871984879387
0.4109751844692026 13.447860520139487 197861.38473826944 6.890069175899619 0.2054710909251443
0.42758362963676516 13.377047273214753 166087.58549993313 7.250080501164226 0.20848487266602106
0.44457789647078183 13.314931722852014 139799.53441729522 7.625209176934405 0.21152410526905377
0.46195947394707276 13.260565827024761 117980.88682944592 8.016402353322027 0.2145949219625123
0.47972389035020707 13.213158764870547 99812.38712458838 8.424365904727916 0.2176989839948824
0.49788203225002464 13.172004199344153 84643.97010280873 8.849542063703327 0.22083377902136161
0.5164196929580382 13.136402120718913 71938.02912480682 9.29280140930559 0.2240026763722096
0.5353376680582433 13.105848507159314 61275.079084188124 9.755030057960708 0.22720861422766525
0.5546445175334197 13.079827714252884 52297.96664397381 10.23703760484219 0.23045294353523813
0.57432812394303 13.057864917276701 44730.09141802367 10.739296878961701 0.23373238205425825
0.5943849796196294 13.039518293312735 38328.730407801944 11.263049289154957 0.23705307655668037
0.6148213696811033 13.024527539890329 32902.262757540346 11.809234019218962 0.240416662472579
0.6356253483429289 13.01243724952417 28291.96998963572 12.37883008827738 0.24382477277720974
0.656795361903973 13.003018558111352 24370.5608086462 12.972528910976097 0.24727538526038167
0.6783296003781026 12.995973873885813 21028.340598755614 13.591652483992387 0.25077323180748134
0.7002162552234877 12.991065776312158 18172.7532085451 14.237400797436441 0.254320975650939
0.722450095356566 12.988009129489477 15729.420921546909 14.910963557242184 0.25792060144596957
0.7450375270218882 12.986648158590741 13634.042245317432 15.61337254961583 0.261572027020241
0.767958948782716 12.986760975534024 11836.427572389352 16.345889764895492 0.26527710567959045
0.791203641728943 12.988136483672982 10288.899218098122 17.11013326652258 0.2690405485946162
0.8147787485920267 12.990666900573611 8956.457091893442 17.907558123531047 0.27286478838970646
0.8386599187197536 12.99413456560853 7807.375826365509 18.739529508159837 0.2767509049330395
0.8628416238395514 12.998401537661938 6814.570837738644 19.607392183107837 0.28069938198244926
0.8873208899555735 13.003365030707217 5955.299011916093 20.51323182997702 0.284716578519243
0.9120770673762937 13.008844051666621 5211.202563809271 21.458842600044427 0.28880550793797155
0.9370969350289116 13.014733780454627 4565.119579283844 22.445708302658236 0.29296608940758245
0.9623807877170151 13.02094436204919 4004.6224311695064 23.475854977292254 0.297202127734619
0.9879013634711139 13.027339621123016 3516.6261342417733 24.551704658308257 0.3015197205458152
1.0136431973641835 13.033788212920328 3091.7780049131975 25.675198995948204 0.30592049465246235
1.039607148610197 13.040241122664428 2721.432674368709 26.84830052294606 0.3104057196737967
1.0657588508299005 13.046570835762187 2398.2966401116587 28.074105398374474 0.31498412590039726
1.0920913227259852 13.052697520908042 2115.830505508014 29.35466684930707 0.3196561468637489
1.1185882199242188 13.058540644352899 1868.582852408245 30.692744065842565 0.32442649151038544
1.1452184329757178 13.063991517012404 1652.1118814671397 32.0917336417013 0.32930319559866217
1.1719810814095215 13.069005862436285 1462.0401991653212 33.55357868570004 0.33428397007828964
1.19883805965483 13.073463058956476 1295.4899237500435 35.08282056424338 0.33938237510600927
1.2257833599110444 13.077333081673943 1149.0697529807028 36.68148110761892 0.3445951636082209
1.2527793422785227 13.080494266381672 1020.1651134348625 38.354614585966885 0.34993678498836295
1.2798207614214936 13.082933931292759 906.6990425281397 40.10446081698792 0.35540382012212696
1.306865282162396 13.084524376090174 806.758487678012 41.936491575438474 0.3610108318875174
1.3339033520511157 13.0852362925742 718.5909759975372 43.85418654529467 0.3667597278111073
1.3609103163961067 13.085034950906405 640.6252661807752 45.86224142651394 0.37265830251680465
1.387841062242526 13.08377381926097 571.8057777155046 47.96598560075238 0.3787164927381675
1.4146978922289417 13.081483370242081 510.80548830733574 50.17017010573149 0.384939921998366
1.4414215273784892 13.078030417535404 456.8723397854341 52.48002504269453 0.39133561582453
1.468015560692372 13.073434972888775 409.0153210666726 54.90196095831448 0.397915237314201
1.4944244112534062 13.067569020000645 366.52786189812383 57.44216716270205 0.40468784655521434
1.52063643787069 13.060424414818145 328.8321025985219 60.1072710251308 0.4116632136459772
1.5466199445663342 13.051939406269524 295.2875935089213 62.904377408282386 0.41885187715461153
1.572336036768023 13.042057755079636 265.46276903602296 65.84111187799695 0.4262652073507072
1.5977601191722803 13.030731420174218 238.9165691945217 68.9256680717996 0.43391547476831266
1.622846834382391 13.01791192735014 215.23744836865106 72.16685965711767 0.44181592472720255
1.6475980395920315 13.003572630312803 194.09005135149903 75.57417736412872 0.4499808585152538
1.6719484683317567 12.987637346450203 175.23620780865198 79.15755462956072 0.45842448172001643
1.6958845653831178 12.97009195314452 158.3585879881042 82.92718938056836 0.4671600938712815
1.719365467901619 12.95088135267164 143.27992645850512 86.89581470358746 0.47620922902342916
1.7423481367986509 12.929942133699173 129.7811337607683 91.0750109658336 0.485586241428536
1.7648308218957272 12.907295897221625 117.67872730521329 95.47885993795377 0.49531302292681695
1.7867574680408045 12.882857958318196 106.81909321382047 100.12103726091806 0.505407127410031
1.8080961372146034 12.856605441019484 97.08089267292019 105.0180633208519 0.5158942384663685
1.8288066425650338 12.828472689207347 88.33022916070654 110.18647804119668 0.5267968918045269
1.8488864866019565 12.798507729457933 80.46314755693122 115.64391234466632 0.5381384635546292
1.8682638346560074 12.766570138206735 73.38946884992421 121.41057319777897 0.5499482821533764
1.8869430444440283 12.732752691423437 67.00851694303772 127.50788210738345 0.562256144818833
1.9048655407787185 12.696939989844765 61.25533467879404 133.9582750957091 0.5750913361859183
1.9220085849587127 12.659123556814249 56.075538402442184 140.78743059023577 0.5884901405463678
1.938322378213312 12.619239081802588 51.39190257124411 148.02303153943555 0.6024908475302263
1.9538193597431182 12.577397355027015 47.16092712356988 155.6935890414715 0.6171292678906937
1.9684363254345558 12.533469934384202 43.33776952947295 163.83273232345317 0.6324529456980531
1.9821528125581662 12.487473007295222 39.879310989123546 172.47422568311472 0.6485034176797997
1.9949433375459897 12.439399149632303 36.74495224361408 181.65737121853164 0.6653338994633538
2.006779422684004 12.389242614331103 33.902714471647386 191.42416135366753 0.6829987806646391
2.017628020190126 12.33697112609821 31.328015301122054 201.82062623836705 0.7015572894878004
2.0274652061369385 12.282588468857737 28.991658536606955 212.89671564990485 0.7210721113438496
2.0362761211867286 12.226126545621476 26.869906454213766 224.70790007966437 0.7416135332484067
2.0440222435816127 12.167534569831364 24.942713659080482 237.3153481726207 0.7632587152476054
2.0506826754336718 12.106831547878247 23.18784772661617 250.7859145966913 0.7860902273845811
2.0562563738778294 12.044089546698444 21.59360024622982 265.19271050896674 0.8101962788298118
2.0607054555106616 11.97924280049369 20.141987317844322 280.6174349939439 0.8356764408912247
2.0640115331862194 11.912350600271155 18.820517885302323 297.1498363396442 0.8626377574688381
2.066174641720802 11.843452750076404 17.619063542793384 314.89029136696746 0.8912007291020339
2.0671684582591614 11.77256574479393 16.523409465170996 333.948185511145 0.9214911665602465
