M[M_sun], R[km], Lambda[1], P_c[MeV/fm^3], rho_c[fm^-3]
0.24162668629717493 15.618656898711224 2160425.4255784233 3.5677272577965504 0.1711233750220791
0.2536442552875062 15.277254894241029 1723159.821532881 3.784824105380057 0.17388822913568938
0.26604036929984104 14.981265068742998 1382987.191398782 4.011410944892954 0.176666775445598
0.2788158306511822 14.723488769567592 1116396.2331290136 4.247743728728791 0.179457694158974
0.29197051349145614 14.498384104458282 905841.3649630785 4.494447673754355 0.18226755210868834
0.30550605913505385 14.301230389976192 738624.345560897 4.7516781576231795 0.18509205110491653
0.31942214832234567 14.12814646176385 605106.2887595533 5.020117869739423 0.18793781879239405
0.333722230029502 13.975924713159637 497673.1273833497 5.2999902752393035 0.19080146663672773
0.34840233480149185 13.842016393348818 410999.92435215396 5.59202471236626 0.1936893058555507
0.36346592303880987 13.723962802989966 340635.45033427683 5.89638755768436 0.1965963827419648
0.3789182704191883 13.620003307571059 283293.3252996302 6.2139432796490714 0.19953038614956994
0.39475176128258577 13.528441992285488 236396.65826296818 6.544949540306827 0.20248749876830335
0.4109773238641545 13.447849922797944 197861.66390079417 6.890108275211296 0.20547142391128992
0.4275859207174248 13.377037384176502 166080.14919168077 7.250124821939056 0.20848523932043278
0.44458027671410355 13.314917824018716 139799.67207384083 7.625258596684985 0.21152449868204518
0.4619619951426932 13.260561495175084 117979.7392969444 8.016457734072791 0.21459535037739286
0.4797272935968112 13.213139905602374 99808.87319826109 8.42442767835021 0.21769944844616412
0.4978842130607877 13.171977313164128 84640.30742946597 8.849610002437014 0.2208342709268215
0.5164229561336755 13.136392943200098 71936.38214789006 9.292876612644573 0.22400320580840444
0.5353416894616001 13.105840177253617 61274.75616640967 9.755113035827533 0.22720918233806428
0.5546488647702498 13.07983054192176 52297.880168883705 10.237128898145583 0.2304535515130251
0.5743309157391482 13.057852266277909 44728.291314259324 10.739396091036909 0.23373301902651314
0.594388763546631 13.039519358485549 38327.49124613317 11.26315791205522 0.23705375523452688
0.6148259704934894 13.024497549880902 32899.00464315328 11.809352694667519 0.24041738421731185
0.6356308401359597 13.012449965319695 28291.206597111588 12.378959498034193 0.24382553902198242
0.6568009082090607 13.003014084815751 24369.017561059307 12.972668460769023 0.24727618286977293
0.6783330833549899 12.995974964408886 21026.961255133436 13.591804155525713 0.25077407627394366
0.70022020564055 12.99106956196296 18171.386511433764 14.237565403988267 0.2543218686495162
0.7224546911381095 12.987999327469103 15728.56702858434 14.911141964346886 0.2579215447515832
0.7450440877225182 12.98664031350142 13633.29879320062 15.613563937655217 0.26157300526894567
0.7679645747719537 12.98676290842777 11835.82509411444 16.34609672575352 0.26527813732756017
0.7912101616292592 12.988142188180412 10288.385478843313 17.110356838945265 0.26904163575159973
0.814786292876311 12.990656619279331 8956.149242717773 17.90779941513419 0.2728659333011102
0.838667350316864 12.994129040701523 7757.397199645879 18.739787448700575 0.2767520900363622
0.862848774551034 12.998407462809054 6814.330827119411 19.60767012656025 0.2807006289394305
0.8873284024316997 13.003364067490985 5955.134982257076 20.513531114144 0.28471789002886744
0.9120857057299819 13.008848306996246 5211.080956271964 21.459164654341087 0.28880688688120715
0.9371054163966469 13.014736171431958 4565.149842331493 22.446051785494628 0.29296751603973537
0.96238970711351 13.020951003510003 4004.3294794351013 23.476224199292368 0.297203627254868
0.9879107021500249 13.027331636495449 3516.4084347647668 24.552101357452422 0.3015212964431931
1.0136523692667851 13.033793849588312 3091.700335507299 25.675621636629348 0.3059221257042469
1.0396171036612831 13.040243358192125 2721.3124493979312 26.848754272225683 0.3104074338568687
1.065767912585328 13.04657674871242 2398.2127780719015 28.074592380341166 0.314985927458448
1.0921003621669332 13.05270744097191 2115.5997855974542 29.355185337963476 0.3196580131045583
1.118598614836388 13.058540505489917 1868.4982611849134 30.693300251650967 0.3244284534918645
1.1452286198571742 13.063994911414275 1651.9824947242005 32.092325709334894 0.3293052298847349
1.171994236658411 13.0690099216919 1461.9869625912963 33.55421358030314 0.33428610973856243
1.1988497363043895 13.073469952264503 1295.4197741708335 35.0835012825171 0.33938462605679737
1.2257954992745697 13.077330049489651 1149.0094450085542 36.68220567411144 0.34459750094756525
1.2527912716490635 13.0804989193921 1020.1229283433108 38.355385941263 0.34993921391224325
1.279834320438199 13.082932568178235 906.6505339317384 40.1052877286875 0.3554063783106721
1.3068780689497224 13.084520268870676 806.7091526234445 41.937372065533985 0.3610134937424698
1.3339159408815715 13.08523695230768 718.5552079109408 43.85513048592349 0.3667625336908263
1.3609234542631339 13.08503288871434 640.5893175881051 45.8632468397404 0.3726612261218921
1.3878543249415236 13.083773066994572 571.7609261837039 47.967056781154156 0.3787195416633755
1.4147115020997343 13.081483979745883 510.7939792215023 50.17131879961452 0.3849431407652149
1.4414344100513816 13.078030898875781 456.8276597720496 52.48124942647497 0.39133897752365415
1.4680282377521425 13.07343195183797 408.98796616316685 54.90326645364008 0.3979187514728293
1.4944385709267978 13.067567281584292 366.50968184953115 57.44355963039163 0.4046915234370971
1.5206503494226096 13.060420851884313 328.8212557270366 60.10875680449539 0.4116670643118718
1.5466342478534807 13.051933401463806 295.2781575011528 62.90596336037039 0.41885591352876433
1.5723507804341865 13.042052943631738 265.4451204762136 65.84280543319935 0.4262694422939712
1.5977745951706075 13.030724907255744 238.90687685985034 68.92747728230631 0.43391992215862357
1.6228615127948165 13.017901693094064 215.21956533718964 72.16879325477463 0.4418205995482153
1.6476137958602246 13.003563625680059 194.08561007669098 75.57624482431484 0.4499857769540413
1.6719620868430685 12.987628074263137 175.2196515094645 79.15975544574563 0.45842961619899686
1.695899254046745 12.970078813884728 158.35071393982446 82.92954502605264 0.46716550713774363
1.7193801824813273 12.950869165474932 143.27073053341326 86.89833730510233 0.47621494147471677
1.7423610856786402 12.929923209509003 129.76816726406364 91.07770157337441 0.4855922270399373
1.7648456898056675 12.907279082287841 117.67214499233332 95.48174447221776 0.49531935223907736
1.7867718082834714 12.882843333292348 106.81383733451422 100.12411823358532 0.5054137760153827
1.8081101852044232 12.856587314980331 97.0801037181626 105.02135670895235 0.515901231982903
1.8288202078613867 12.828453348016517 88.32432017859047 110.1900012718401 0.5268042579425957
1.8488995604271339 12.798488231023917 80.45761016744773 115.64769883758481 0.5381462851423806
1.8682769088170612 12.766548705578112 73.38335242524893 121.41462984245908 0.5499565399953507
1.8869554425777424 12.732728858977325 67.00420251518831 127.51223168035786 0.5622648743770867
1.9048790443034673 12.696913157479809 61.25234765283261 133.96292653062113 0.5751005195626925
1.9220204457263905 12.659097041522436 56.06869771620986 140.7924265867811 0.5884998746475196
1.9383342101431262 12.619209741524198 51.38890480639065 148.0284020172948 0.6025011779115865
1.9538309168464296 12.577366105588027 47.15825699693082 155.69934917270052 0.6171401839159699
1.9684478167482404 12.533437542527773 43.338428102422014 163.8389170156485 0.6324644987544724
1.9821620590957938 12.487437422573699 39.875901424113906 172.48089188461853 0.648515726092009
1.994953512962613 12.439362021362227 36.74381749153385 181.6645430957274 0.6653469631371095
2.0067886123899172 12.389203450661133 33.90177405703916 191.43188548170596 0.6830126664222508
2.01763620123736 12.336929095805607 31.325820356402666 201.8289539951953 0.7015720704347049
2.027472723136912 12.282544813556072 28.989987499525366 212.90568277138 0.7210877987863845
2.036282775459076 12.226080807891995 26.867779983736032 224.71758956830936 0.7416302817602036
2.0440280637732235 12.167486257892909 24.940699562072993 237.32580723504364 0.7632765489098223
2.050688283623508 12.106781227072895 23.186783318573 250.7972188002554 0.7861092480535159
2.0562607676297047 12.044036758798077 21.592211450918395 265.2049669617217 0.8102166742792809
2.0607085805811707 11.979187622581147 20.140627654987473 280.6306902842926 0.8356981826525384
2.0640146817581804 11.912292200342394 18.819693587480703 297.1642173774397 0.8626610573268771
2.0661760198413943 11.843393565948093 17.618069619142787 314.9059136378167 0.8912257372849992
2.067168634448355 11.772503522819164 16.522654095087287 333.9651520564232 0.9215179638632354
