M[M_sun], R[km], Lambda[1], P_c[MeV/fm^3], rho_c[fm^-3]
0.24162668629717493 15.618656898711224 2160425.4255784233 3.5677272577965504 0.1711233750220791
0.25364175493338154 15.277373108845417 1723259.5864497838 3.7847986339229944 0.17388791164626494
0.2660375974534241 14.98128983883722 1383071.2772977543 4.01135739891264 0.17666612837402657
0.2788113702948523 14.723572991323818 1116562.1718669669 4.247660296790507 0.17945672647421915
0.2919642152623313 14.498499837813387 905955.5617389941 4.494332166653618 0.18226626591031383
0.3054981179410088 14.30131869343363 738728.0610763928 4.751526653492103 0.1850904145711509
0.31941295633698713 14.128238549307893 605161.4524428458 5.019929252682727 0.18793586181763133
0.33370877436863555 13.976117948431806 497760.03595203336 5.299759579651096 0.19079914391494768
0.3483887323694699 13.84212950095392 411070.33756396576 5.591751362383433 0.19368666111927085
0.3634494788301628 13.724124467103334 340694.4124865043 5.896065412323102 0.19659335708455866
0.37890151956388135 13.620089603142281 283367.7564395584 6.213568440694951 0.19952696806964385
0.39472907717093847 13.528595246183361 236448.78760017102 6.544522397064651 0.20248375329911172
0.41095401692396777 13.447986424223984 197912.52692817256 6.889620581990556 0.2054672705111696
0.42756009342932155 13.37713674357973 166116.8602232354 7.249572002541231 0.20848066598723003
0.44455344919543016 13.315020235974448 139844.22622551527 7.624642179161128 0.2115195916022001
0.46193208839910244 13.26064468757609 118015.66641022217 8.015766967017965 0.21459000673576262
0.47969369495594844 13.213231830931724 99844.9868740926 8.423657175581905 0.21769365534248958
0.49784829261899083 13.172066021600315 84667.93067418132 8.848762605012535 0.2208281354074032
0.5163835385311338 13.136475795640823 71959.03696903268 9.291938607555158 0.22399660219409717
0.5353000277253687 13.10590112385291 61296.087490617014 9.754078063538484 0.2272020963699307
0.5546034423243603 13.07986061892162 52317.06708720023 10.235990212707149 0.23044596831220776
0.5742842935141084 13.05787947781544 44746.74694622408 10.738158640081172 0.23372507420806296
0.5943371911322964 13.039589620219814 38341.40370611615 11.261803086875574 0.23704529026228713
0.6147720339533551 13.024527627396827 32913.652893759434 11.807872492103458 0.24040838211605892
0.6355705568226292 13.012466598089118 28304.551954652663 12.377345415649506 0.24381598192041298
0.6567395441322659 13.003049858605845 24380.632887577358 12.97092791065259 0.24726623459905359
0.6782682677427465 12.995990488443995 21036.14336162716 13.5899124225814 0.2507635436117353
0.7001530925333959 12.991074422510339 18179.825375574183 14.23551234570066 0.2543107307081064
0.7223842029209278 12.988004850669176 15735.179507469546 14.908916786551792 0.2579097793977934
0.7449680046010086 12.986652586754744 13639.937143967527 15.611176862733009 0.2615608041253527
0.7678811655497575 12.986778989926137 11840.565798204625 16.343515429311285 0.26526527021220714
0.7911267956773408 12.988132522324564 10293.554119636367 17.107568366838812 0.2690280763560019
0.8146977237501225 12.990653709965365 8960.509323550172 17.904789954410706 0.272851653625164
0.8385764147127587 12.994119657390375 7810.718245649004 18.73657034716062 0.2767373091193591
0.8627543989436945 12.998389007247827 6817.964384321105 19.60420355634335 0.28068507662511866
0.8872255868874233 13.00333052072813 5958.8090154324545 20.509798391871087 0.2847015326610998
0.9119826044041028 13.008825752855932 5213.869723341206 21.45514795424302 0.2887896885345713
0.9369979931461125 13.014717898815794 4567.545608635688 22.441767839077727 0.29294972296522875
0.962273497558122 13.020915614581178 4006.690660856077 23.471619249320643 0.29718492518476886
0.987794977453799 13.02731261128159 3518.3390279882515 24.54715373042869 0.3015016418697766
1.0135344378323279 13.033758643272542 3093.729576545263 25.67035048333839 0.3059017833085303
1.0394935898569615 13.040219777305115 2723.0120657565035 26.843095155951808 0.3103860547346205
1.06564434857171 13.04655143855782 2399.5321566144084 28.06851881298715 0.314963458691816
1.0919705512995224 13.052679905975795 2116.8779816214583 29.348718844273424 0.3196347376977215
1.1184645826430466 13.058512180486181 1869.6488757686113 30.68636363369966 0.32440398412255966
1.14509110506873 13.063965141769977 1653.0166943331126 32.08494160558821 0.32927985883156624
1.1718518798141393 13.068989352744913 1462.9369925382368 33.54629538257415 0.3342594245958154
1.1987037411751291 13.073448300364491 1296.1709680625027 35.075011621843956 0.3393565530505035
1.225646782607053 13.077313947719112 1149.7339003678655 36.673169185354 0.34456835063365215
1.2526393578106212 13.080483819691057 1020.7784135832449 38.34571411189236 0.349908617362728
1.2796775525149684 13.08292756518792 907.294650561273 40.09497491254537 0.3553744739028177
1.3067192107953485 13.084512966279203 807.2469124288997 41.92639108580935 0.36098029657715114
1.333753647235864 13.085229018196378 719.0083040177524 43.84335823822178 0.3667275404824986
1.3607584844242748 13.085034909680223 641.022571302217 45.850707989077 0.37262476484743706
1.3876881097428408 13.083784478334167 572.1713781666258 47.953697775042976 0.3786815176196021
1.4145416059620843 13.081500988059704 511.1576544877194 50.15699316569864 0.3849029987602651
1.4412629948215456 13.078055340165848 457.14580435572543 52.465979904525206 0.3912970531373756
1.4678560916196866 13.073464551166015 409.2857374899716 54.8869854380457 0.397874925906926
1.4942629226996575 13.067606364610464 366.7685687848903 57.426194039700405 0.404645668710073
1.5204722576369993 13.060473253153416 329.06058370820284 60.09022759117664 0.4116190425049461
1.5464552666183797 13.051996055407784 295.4867982332993 62.88618497166372 0.4188055759570542
1.572170348966642 13.042127046770522 265.6427389286929 65.82168521760404 0.4262166285949302
1.5975934429626062 13.030810596360174 239.07747513720622 68.9049148356001 0.4338644592887692
1.622674107762841 13.017974269087215 215.38189897743658 72.14467969870343 0.44176230067812366
1.6474321044426021 13.003676113722163 194.23216219717875 75.5504620102398 0.449924440250366
1.671782146541826 12.987757314387476 175.3466224998609 79.13230968732715 0.45836558555860646
1.6957192149677571 12.970220570860064 158.47034620328253 82.90016857629742 0.4670980001417642
1.7191821947698118 12.950984241510374 143.39190836345523 86.86687895872682 0.47614370379797716
1.742187277565116 12.930103618877794 129.87365918105905 91.04414823544408 0.48551758321358207
1.764668812862378 12.907467389961125 117.76277157509777 95.44577294907147 0.4952404226852436
1.7865983492733921 12.88304759555592 106.89729254187596 100.0856972049597 0.5053308651024578
1.8079377921053927 12.856808845638568 97.15429941743047 104.98028696406733 0.5158140202935542
1.8286516508159896 12.828694233595806 88.39347385645759 110.14600853107572 0.5267121878646549
1.8487335298972027 12.798745807602183 80.51893752828276 115.60048039831236 0.5380487481406745
1.8681242965022693 12.76686025805498 73.43483191753091 121.36404281099983 0.5498535633373786
1.8867987615324708 12.733030379530174 67.05659997434084 127.45799207523379 0.5621560159223882
1.9047250583263886 12.697234293921397 61.30006652786621 133.90492295864837 0.574986002501669
1.9218722209823118 12.659442723500383 56.11430990956771 140.7301266746166 0.588378490727164
1.9381904700954262 12.61957389218729 51.426114634123174 147.96143273118972 0.6023723591578336
1.9536943144490435 12.577764160395414 47.200083835508224 155.62752134205422 0.617004062986828
1.9683163291751549 12.533852902891562 43.36941682427342 163.76174797787485 0.6323202743931604
1.982040653571627 12.487881723165938 39.90835866702906 172.39776652833777 0.648362244210375
1.9948359505805044 12.439826903011294 36.77077971728966 181.57511267479268 0.6651840643853539
2.006675198450258 12.389682164711257 33.92829258452087 191.3355693258236 0.6828395177136826
2.0175356801468216 12.337446720527996 31.34817083454279 201.72511156232846 0.7013877603595777
2.027381749790809 12.283090022223169 29.01174467355104 212.79386852167727 0.7208921864461637
2.0362009711615574 12.226648821162115 26.888509206779673 224.59676871988702 0.7414214400473691
2.043955234086093 12.168082878166652 24.95847419692748 237.19539125134708 0.7630541776774034
2.0506259583523416 12.107406965560255 23.20346168053038 250.65608867926093 0.7858715013393439
2.0562032434300663 12.044667910682357 21.607689041734574 265.0521412772062 0.809962363461262
2.0606691445082514 11.97986920514092 20.156129781577313 280.46541128444494 0.835427086624438
2.063991348143114 11.913016661884916 18.83373804372457 296.9849029708805 0.862370535858496
2.0661577588100712 11.844132522335189 17.63009930996811 314.71112415398187 0.8909139176335225
2.0671638546631583 11.773272979030677 16.533354940433416 333.75360294532965 0.9211838389406868
