M[M_sun], R[km], Lambda[1], P_c[MeV/fm^3], rho_c[fm^-3]
0.24162668629717493 15.618656898711224 2160425.4255784233 3.5677272577965504 0.1711233750220791
0.2536438851638165 15.277301351117588 1723225.8628978324 3.7848178418914316 0.17388815106432526
0.2660396844101565 14.981247404801962 1383030.2069189975 4.011397777768463 0.17666661632866923
0.2788151183195535 14.723492539914696 1116425.3360249219 4.247723212482159 0.1794574562014304
0.2919690912201832 14.498427795220675 905874.3783357498 4.4944192700009875 0.18226723582630242
0.30550457752433763 14.301230378165158 738667.8201267257 4.751640901898334 0.18509164867198458
0.3194206311018082 14.128139600125724 605147.057518786 5.020071487585022 0.18793733755964026
0.3337178699962102 13.97595905102536 497671.3274267069 5.299933545511739 0.1908008954625028
0.348398962869589 13.842043846775882 411015.8508428902 5.591957493402008 0.19368865549358028
0.3634608877600369 13.724013060846517 340666.25808717904 5.896308339283864 0.19659563870598296
0.3789145573800653 13.620013784549899 283307.26010803797 6.213851103127386 0.19952954561067993
0.3947464546029773 13.528468761606828 236409.06992679695 6.544844501343464 0.20248657771849535
0.41097154537277425 13.44787517495215 197872.84795724132 6.8899883459967235 0.20547040254377227
0.4275790605928659 13.37707187220699 166092.32747809868 7.249988877039054 0.20848411468311476
0.4445734285936092 13.314944995993958 139812.61293321225 7.625107011815565 0.21152329196901584
0.46195468102791815 13.260589208402681 117990.49081667022 8.016287865183813 0.2145940363042035
0.47971898450534706 13.213184461039043 99817.27465384906 8.42423820079179 0.21769802383980957
0.49787532564447895 13.171995940644194 84645.68122652295 8.849401614824393 0.22083276211146896
0.5164139666643555 13.136407027688048 71943.0469179352 9.29264594255576 0.2240015818765986
0.5353322351005059 13.10585073333348 61279.49053712148 9.754858519215052 0.22720743978261174
0.5546371234101991 13.079835172374478 52302.897964685864 10.236848875921819 0.23045168667425187
0.5743199842737148 13.057866550923968 44732.42035455903 10.739091779888758 0.2337310652546782
0.5943768064982947 13.039519326148826 38330.11996919516 11.262824735498489 0.23705167354137116
0.6148120868249135 13.02450996877097 32903.60204195192 11.808988684398475 0.24041517042753835
0.6356163709795981 13.012436754815994 28294.14038625922 12.37856256294923 0.2438231887398906
0.6567852494180085 13.003026411761264 24178.319972554065 12.972240423660548 0.24727373638518577
0.6783157199224611 12.995984314129505 21029.209432544423 13.591338938054202 0.2507714860677015
0.7002030817154634 12.991061809041073 18173.56966094284 14.23706051166139 0.25431912958400166
0.7224370892869134 12.988010069992876 15730.792164880477 14.910594742393599 0.2579186513828393
0.7450248204984504 12.986656105341932 13634.981596035457 15.612976900049405 0.2615700047221022
0.7679445497535652 12.9867643770438 11837.104476928753 16.3454619226236 0.2652749729931716
0.7911890808251898 12.988130179985495 10289.101175088163 17.109671084251826 0.26903830115874156
0.8147618815244092 12.990673165996364 8956.956396765245 17.90705931160329 0.272862421562776
0.8386458617410208 12.994127957272756 7808.310768530481 18.738996279016817 0.2767484550210275
0.8628256711129462 12.998403635892327 6815.285400516828 19.606817603393655 0.2806968042056402
0.8872980422137436 13.003348465779947 5955.769034040417 20.512613134201473 0.28471386729842424
0.9120602606935821 13.00884997861682 5211.67607837547 21.458176833340694 0.28880265731774357
0.9370804490966821 13.01473141999243 4565.588358928336 22.444998238385356 0.2929631402048422
0.962351684527058 13.020950199873518 4004.7204362860084 23.47509170455213 0.2971990278572309
0.9878808365768686 13.027334162387167 3516.799478353479 24.55088458438545 0.3015164627814273
1.0136241636163055 13.033789587598154 3092.1927126201113 25.674325295260033 0.30591712287324146
1.0395870362439599 13.040240229215916 2721.7246963083235 26.847362514217814 0.31040217604572823
1.0657371959871318 13.046564022443494 2398.5786225614575 28.07309869075223 0.31498040165115254
1.0920683262928617 13.052696481773452 2115.860210094294 29.353595010765424 0.3196522889031112
1.1185646279203691 13.058536022655458 1868.7543278668852 30.691594299604315 0.324422435635477
1.145195979009704 13.063987554462104 1652.2469683895026 32.09050970038923 0.32929899025686726
1.171958515947503 13.06900309763226 1462.1990215228757 33.552266212519086 0.33427954690834816
1.198813216060637 13.07346547915702 1295.5275322784764 35.08141336454081 0.3393777218780856
1.2257592254552343 13.077327469658973 1149.173481080388 36.67998326500492 0.3445903317998092
1.2527538112484036 13.080489791188572 1020.2856857054644 38.353018919290484 0.34993175739119226
1.2797957637553514 13.0829351301637 906.8113611817424 40.10275140721392 0.35539853177936315
1.3068396200160375 13.084522947515813 806.8380465253879 41.93467140895151 0.36100532924847334
1.3338751716817698 13.085237586225114 718.6727089702986 43.85223521489954 0.3667539274480192
1.3608823458604717 13.085034426599108 640.6925602043206 45.8601630209189 0.3726522587956643
1.3878130775496393 13.083775160004425 571.8693193116023 47.96377124243544 0.37871018995958705
1.414669476200868 13.081486191365196 510.8771468673826 50.167795513428224 0.38493326812904677
1.4413928570383379 13.078034797319194 456.9308875212381 52.47749398602294 0.39132866649121484
1.4679866843458254 13.073441717407906 409.06241861174254 54.89926222998704 0.3979079728228992
1.4943957084966792 13.06757570473397 366.57335180361747 57.43928864762374 0.40468024568948524
1.5206075636175327 13.060432989944585 328.8808343084994 60.10419961912044 0.4116552535419035
1.5465897942809235 13.051948486415704 295.32079605979095 62.901098928683474 0.41884353316338163
1.5723058348411911 13.042071981873672 265.4938229065799 65.83761096527573 0.42625645288747777
1.5977300993971826 13.03074475676255 238.94725059647064 68.9219280811164 0.4339062811458647
1.6228168881836789 13.017928280733512 215.262698358546 72.16286253873444 0.4418062609727287
1.6475687318943064 13.003590666957594 194.12264815421756 75.56990353137365 0.44997069116841215
1.6719181489238648 12.987657974697157 175.25308275391635 79.1530051293882 0.4584138677881636
1.6958552884040337 12.970115290071922 158.38355199286784 82.92231982543026 0.46714890364775663
1.7193357265126508 12.950905841015825 143.29772304981566 86.89060002630694 0.4761974203450588
1.7423218281951507 12.929969911201159 129.7952188447735 91.06944899584018 0.48557386809258823
1.7648011753063204 12.907325551959287 117.69015700862674 95.47289709478538 0.49529993911746734
1.7867291976726936 12.882891986174862 106.83421816227012 100.11466835255727 0.5053933835820957
1.808068815719271 12.85664155354886 97.10036652469263 105.01125532129772 0.5158797816650451
1.82877981316351 12.828511128507396 88.34198173685917 110.17919492707371 0.5267816647502607
1.848858930669699 12.798551239714332 80.47560243787646 115.63608503489051 0.5381222950336294
1.8682466531405173 12.766647953543321 73.38773003720394 121.40218745107792 0.5499312118461264
1.8869161488364457 12.732802923137298 67.01675053347041 127.4988908429694 0.5622380994228966
1.9048404102487775 12.696992241365024 61.263540030471006 133.94865984676449 0.5750723526989934
1.9219843455703458 12.659181143186062 56.08276116958257 140.7771030939047 0.5884700186561665
1.9382985358091762 12.619298563495535 51.39851750902187 148.01192994994074 0.6024694930704945
1.9537968388236657 12.577461684946009 47.167363247528044 155.68168199691326 0.6171067028493439
1.9684149033841696 12.533540230143169 43.344295490243915 163.8199476678612 0.6324290638551594
1.9821323288170227 12.48754581099521 39.88427349421298 172.46044570195141 0.6484779744512535
1.9949217453329031 12.439478171843005 36.74748740902257 181.64254595841368 0.665306895046485
2.0067621492630416 12.389322279538717 33.90731863707761 191.40819454189918 0.68297007693563
2.017611215229897 12.337057000623068 31.332259570132088 201.80341167497045 0.701526735335848
2.0274498443304325 12.282678207973918 28.994008541612704 212.87817946711866 0.7210396834010497
2.0362626113734894 12.226220055986458 26.87334341762809 224.68787070984155 0.7415789120058364
2.0440105561475996 12.167632925552782 24.945638697699 237.29372803809974 0.7632218509321878
2.050672763744432 12.106935688611282 23.190611741307446 250.76254749857324 0.7860509094587538
2.0562490853074746 12.044196786688403 21.596802115856388 265.16737505497167 0.8101541191624051
2.0606983519046387 11.979358847222143 20.14450325979216 280.59003488399657 0.8356314983335914
2.0640064713065884 11.912465951439303 18.823272556567265 297.1201092523298 0.8625895942608562
2.0661713494859257 11.843575305021993 17.6210326446867 314.85799859481676 0.89114903472532
2.06716768634243 11.772693201157173 16.525287547707396 333.91311406823746 0.9214357740176611
