M[M_sun], R[km], Lambda[1], P_c[MeV/fm^3], rho_c[fm^-3]
0.24162668629717493 15.618656898711224 2160425.4255784233 3.5677272577965504 0.1711233750220791
0.25363864744113185 15.27744060428007 1723319.9850506797 3.78473762466328 0.17388715119527443
0.2660298361769313 14.98147810640756 1383336.1019783127 4.011229147605403 0.17666457853266734
0.2788001206281809 14.723806423706716 1116687.5995160693 4.247460466895707 0.1794544087485767
0.2919496822750585 14.49874794003007 906202.2536691561 4.494055516966983 0.1822631853518461
0.3054788045357388 14.301577464702564 738918.2961611837 4.751163793359699 0.18508649498919197
0.31938948694257735 14.128514259536797 605313.8912150245 5.01947751180686 0.18793117483168825
0.3336799154082309 13.976421713776066 497972.256201831 5.29920706835148 0.19079358104294258
0.3483564723246173 13.842391408599367 411232.01100208674 5.5910967038727595 0.19368032711808975
0.36341155540287756 13.724372154544353 340860.65830102284 5.895293902876364 0.1965861109045661
0.3788562280057121 13.620411340573373 283497.2493495142 6.212670747919918 0.199518782192428
0.394682683581777 13.528815587738356 236587.96136084222 6.543499455679245 0.20247478348508785
0.4108997126097594 13.448211394797127 198029.70629472425 6.888452649609849 0.20545732390891167
0.4275003825695493 13.377362325617426 166222.64138156784 7.248248124243876 0.20846971388135696
0.44448561555010596 13.315267955404744 139934.41247036087 7.623166016478629 0.2115078403980779
0.4618600762530393 13.26086524251648 118091.97473728366 8.014112779374722 0.21457721025698887
0.47961598151040163 13.213406046018175 99920.26407912867 8.421812069681097 0.21767978272552624
0.4977620822353988 13.17224286682872 84731.64367850914 8.846733386070971 0.22081344299524774
0.5162916404251923 13.136629990811182 72022.85320779077 9.289692446042372 0.2239807890770153
0.5351986683426457 13.106057406923297 61351.0675866455 9.751599736892565 0.227185128433858
0.5544958878796548 13.080002261627413 52364.4787937397 10.233263573690541 0.2304278099600225
0.5741657051443623 13.058010367638179 44785.53253037426 10.735195536942925 0.23370605016806095
0.5942178922814588 13.039668582792583 38376.86118575146 11.258558972631706 0.23702502097778497
0.6146400520338714 13.024625607175011 32946.89120956187 11.804328211101417 0.24038682697406422
0.6354306555573095 13.012549463489272 28334.028130309507 12.373480617548548 0.2437930981640777
0.6565877826770073 13.003086098815215 24406.15238838507 12.966760342620853 0.24724241448917586
0.6781119938269341 12.996038585990327 21058.060626659935 13.585382923897365 0.2507383245765879
0.6999892133616709 12.991096106511714 18199.512511873603 14.230596641626388 0.2542840627735925
0.7222110494263774 12.988029554504811 15753.268949213933 14.903589043139402 0.25788160961006407
0.7447863803948529 12.986657509802304 13655.41497881809 15.605461552905213 0.2615315912526278
0.7676942368856551 12.986751932115766 11854.68819594386 16.337335183593133 0.2652344632373613
0.790926824164722 12.98811351392358 10305.625077833327 17.10089218314719 0.26899561233545505
0.8144888374631872 12.990626894265551 8972.129409255824 17.897584775898967 0.27281746556832076
0.8383561577014158 12.994089135795507 7820.273070873033 18.728868125626086 0.2767019213966444
0.8625257696850909 12.998343727351873 6826.444796901877 19.59590418301428 0.28064784257113196
0.8869868945242867 13.003279119611923 5966.032792890731 20.500861942319474 0.28466237175354625
0.9117348570620819 13.00877101084059 5220.425579846253 21.445531770963814 0.2887485148224913
0.9367436418948976 13.014650618068929 4574.161210173425 22.431511969602386 0.2929071259222348
0.9620073259420565 13.02084703824087 4012.2215536762465 23.46059504369825 0.2971401526101257
0.9875187024646657 13.027242976692458 3523.266981367768 24.535309325976634 0.3014545896736914
1.0132503409401525 13.03369471576285 3097.958596039622 25.657731714822127 0.3058530850505884
1.039198513130283 13.040143418538202 2726.8432711635073 26.829547824863024 0.31033487535722887
1.0653409974779486 13.046481032851498 2402.9735708813237 28.053979538979796 0.3149096715951019
1.0916570605546234 13.052600760695661 2120.0217670875345 29.33323914008723 0.319579020267238
1.1181421112056151 13.058443127132781 1872.4699673907242 30.669758774300583 0.32434540940506135
1.1447598723706203 13.063901745355416 1655.4170582901174 32.067190430527575 0.3292186390314342
1.1715115078878597 13.06892455911981 1465.1807990974169 33.52734132964712 0.3341955474832067
1.1983611496619453 13.07340291889474 1298.223290256474 35.05468994721195 0.33928935478171385
1.2252902289427303 13.077269304429123 1151.5315933111679 36.65153883771629 0.34449857448047877
1.2522734813996168 13.080443003614448 1022.4087970559937 38.32252635140274 0.3498351636207594
1.2793051309633665 13.082897895582471 908.7193067423435 40.07029015980363 0.3552981075244778
1.306338032940033 13.084499130410427 808.614668165523 41.900107357337426 0.3609008368840131
1.3333649016516573 13.085226913364549 720.1625631071436 43.81518101102362 0.3666437831910769
1.3603638925311952 13.085047425320347 642.162955707041 45.82069627677389 0.37253749486484256
1.387287988396156 13.083808791840669 573.116342721007 47.921723458650746 0.3785905083936159
1.41412630287657 13.081529191971269 512.0299603222643 50.12270583901582 0.3848069218923584
1.4408581527090945 13.078132101451134 457.9527070853667 52.42943397071496 0.3911967116957108
1.4674395443616668 13.073546263044998 409.994164088116 54.848019168039805 0.397770035716001
1.4938422180895667 13.067709582006467 367.4202300972292 57.38463260870123 0.4045359236339001
1.520048029810511 13.060604894277201 329.6194713054609 60.04588190661309 0.41150411264443515
1.5460274448979123 13.05214729918568 296.0108239334428 62.83885038424442 0.4186851056688055
1.5717410596116415 13.042303573072006 266.1268421536775 65.77114010245451 0.42609023431228416
1.597156393734215 13.031008562576346 239.50712243689009 68.85091902888671 0.43373172712370656
1.6222500302105625 13.018230010134193 215.77874290384807 72.08697277335442 0.4416227837800612
1.6469989527952822 13.003939435639273 194.57734383435448 75.48876137234286 0.4497776558950104
1.6713524066729744 12.988056517125774 175.67348560092145 79.06648166559977 0.4582117352339451
1.6952897707358834 12.970556440950862 158.7789807189304 82.82987029934334 0.46693645490606556
1.7187559078079417 12.951355347043046 143.64851765568233 86.79160004099755 0.47597323408725256
1.7417691492909024 12.930530268604388 130.11940366929002 90.96385733345619 0.4853389655106776
1.7642502186185685 12.90792786930925 117.98347366208309 95.35969713677326 0.4950515531332664
1.7861801455732982 12.883538597286519 107.1017477155026 99.99376155048817 0.5051324719486238
1.8075254594510892 12.857340307542206 97.33175946855462 104.88201504704593 0.5156053396717731
1.8282122096882045 12.829314457753274 88.57713623956482 110.00675904245382 0.5551791436775012
1.8466200209377968 12.799297117831873 81.15093617467332 115.64480461119979 0.6837320248266888
1.8621383178857536 12.765710164351152 74.91309729060475 121.75588106773624 0.8109345515251539
1.8749104247362736 12.727752103270644 69.58782283092724 128.41598369401638 0.939361096581746
1.8850995548785086 12.685066562053786 64.97658122802653 135.66249349961396 1.069566834116323
1.8929326444964367 12.637644535642647 60.94605481290107 143.53716777284168 1.2019742998059997
1.8985509858688259 12.585371395772562 57.38461369613613 152.085570704831 1.3371571423403004
1.902166888798737 12.52844216579525 54.192416673280796 161.35801416151676 1.4756676752765243
1.903920018605144 12.466994598540104 51.32121791659276 171.4101069008412 1.6181230577121712
