M[M_sun], R[km], Lambda[1], P_c[MeV/fm^3], rho_c[fm^-3]
0.24162668629717493 15.618656898711224 2160425.4255784233 3.5677272577965504 0.1711233750220791
0.2536373990022516 15.277456563082053 1723413.3743179867 3.784691435592894 0.17388657547079442
0.2660244513017409 14.981646627013605 1383428.7103379946 4.011132052678218 0.17666340519777382
0.2787923579020649 14.723960590904568 1116964.7100760913 4.247309185065252 0.17945265410732028
0.29193824849296646 14.498910770400737 906363.3095621148 4.493846082440604 0.18226085324978766
0.30546478221009765 14.301776969206974 739081.7333214771 4.75088909945582 0.1850835277707689
0.3193724991554002 14.128688865521813 605450.7304263256 5.019135539230275 0.18792762673421687
0.3336609912306163 13.976501439428846 498093.7166933926 5.298788819328394 0.19078936996928075
0.34833119069604795 13.842611455366212 411363.76210293727 5.590601138425632 0.19367553238606341
0.36338262073113947 13.724580560520659 340976.42716212006 5.894709893911957 0.1965806257687829
0.3788256605570472 13.620560245721476 283614.7420339229 6.2119912343725865 0.1995125858470639
0.3946449028905684 13.529018955429363 236689.34966675768 6.542725147322694 0.20246799384684025
0.4108580795597852 13.448408612528487 198117.87990093543 6.887568607045833 0.20544979503146246
0.4274528259468008 13.377602820162684 166309.41355988203 7.247246059310809 0.20846142405497295
0.44443528375128566 13.315416053872486 140002.92260039583 7.622048702705344 0.21149894586201218
0.46180306519877584 13.261026782430035 118149.77719446892 8.012860739516855 0.21456752471645751
0.4795551748400293 13.213565949304968 99963.98792402714 8.420415549659275 0.21766928284726134
0.4976969813473884 13.172374866296892 84782.42056945186 8.845197538291428 0.2208023228011066
0.5162209732929175 13.136748058002432 72066.14395608618 9.28799243072472 0.22396882086319544
0.5351229990453918 13.106160988128709 61384.07672357559 9.749724038488015 0.22717228640971543
0.5544142518312866 13.08010185933864 52401.10913899987 10.231199977405963 0.23041406721377872
0.574078411893707 13.058097280718103 44816.18000374363 10.73295301070374 0.23369165245495768
0.5941243406226475 13.039746573665967 38403.398921276064 11.256103813756884 0.2370096811007058
0.6145409686702329 13.024685745376804 32967.02678409202 11.801645929857559 0.24037051422881414
0.6353252958961779 13.012583250385703 28352.52267461365 12.370555820827732 0.24377578022566515
0.6564750154452039 13.003129431231121 24426.343650240626 12.963606460614034 0.24722438819293507
0.6779945507051672 12.99608317193669 21076.117746715867 13.581955201638888 0.2507192399373945
0.6998636662375817 12.991123096835398 18214.273912873236 14.226876718591347 0.2542638820095765
0.7220795551550596 12.988028999158976 15766.6454533443 14.899557379870084 0.2578602926866122
0.7446489944585472 12.986653345398715 13667.060899024045 15.601136666426973 0.26150948530176166
0.767549665153104 12.986745785596442 11865.18029399335 16.332658549382284 0.26521115138876056
0.7907752680831936 12.988105053370628 10246.339744954128 17.095840354149033 0.26897104700172986
0.8143298401812323 12.990607861453269 8979.930896234448 17.892132751546313 0.27279159610260584
0.8381919117657249 12.994058025406975 7827.769371109186 18.723040078381995 0.27667514453507047
0.8623531309744408 12.998311064174931 6833.011072888897 19.589624394776074 0.28061966912176234
0.8868071855152142 13.003242934949853 5971.941127883733 20.49410022037772 0.2846327408395759
0.9115485123179832 13.008722360005528 5225.84548748626 21.438255856420856 0.2887173614634285
0.9365489494582677 13.014601588841327 4578.728011873278 22.42375215569778 0.29287489607304307
0.96180621753119 13.020793556170432 4016.2060882395554 23.45225403435535 0.2971062772928288
0.9873108647073223 13.0271868072642 3526.999795791517 24.526347903434935 0.30141899019612023
1.013033829328362 13.033640939215106 3101.2192154174845 25.64818454677697 0.3058162406904214
1.0389762847511663 13.040089357644996 2729.834658333727 26.819298301864087 0.31029615450496584
1.0651109638287848 13.04642541499791 2405.692612618985 28.04297973681576 0.3148689785438166
1.0914191084760643 13.052547494597514 2122.435123346738 29.32152801752362 0.31953686741667486
1.1178975685312844 13.058391118574823 1874.5949081035492 30.657196647455546 0.32430109568861
1.144513944936014 13.063869309241568 1657.364724360514 32.05371842840894 0.3291720476073702
1.1712533797540663 13.068876698245415 1466.8909769915074 33.51300243795907 0.33414722393981633
1.19809516907144 13.073364804882518 1299.820073854658 35.039316727726465 0.3392385197125646
1.2250194579849885 13.077236108433459 1152.9188364250058 36.635175866282715 0.3444457900675676
1.251997666955595 13.080415637628327 1023.6850817156102 38.30498556267279 0.3497795982473861
1.2790225327912874 13.082879225564652 909.8479817006353 40.05161723989915 0.3552403397485128
1.3060508923503797 13.084478940246001 809.5644185183033 41.88022520234473 0.3608407301173369
1.3330715275020975 13.085229599186201 721.132478873756 43.793866958265305 0.3665804268034628
1.3600657974846921 13.085052058425285 642.9700182276393 45.797994944401374 0.3724714824740462
1.3869839569456301 13.08383932358156 573.8657334201141 47.89753799053222 0.3785216687441116
1.413818375868774 13.081560333240628 512.7279467598515 50.09677134648138 0.3847342505862367
1.4405466825926505 13.078183785837357 458.5580518040822 52.401791582249295 0.39112081605369203
1.4671184869389846 13.07359845466976 410.55337762206597 54.818546628712056 0.3976907009406513
1.493523979491767 13.067788104939314 367.9017533880981 57.35319776777549 0.40445291833478164
1.5197263835562507 13.060702989800863 330.0566503181013 60.012341832248936 0.41141718747671846
1.5457028138274527 13.052261881692857 296.4086149478799 62.80305038993108 0.4185939918370523
1.5714142219062484 13.042441854503076 266.5023191177246 65.73291267535654 0.42599464192494546
1.596827646157639 13.031162487639016 239.8286130947189 68.8100826490861 0.433631343382187
1.6219217395978822 13.018407832046103 216.06597075647022 72.04333061161731 0.4415172709842663
1.6466610449072878 13.004136381076206 194.84715746154478 75.44209985251287 0.4496666492451342
1.6710258123673376 12.988284039365194 175.9185162686041 79.01656887597339 0.4580948404057723
1.6949574870307056 12.970808231782359 158.99603267522306 82.77807078971833 0.4668037437679684
1.7178284329253162 12.951532370878144 144.16789616116213 86.77208621067008 0.5424816175788333
1.7384654861752253 12.92935612454445 131.55364790137656 91.08589899605279 0.6317288962300958
1.7569115462315261 12.903350988659527 120.70383252378437 95.73851959301554 0.7207714304310142
1.7733232400562926 12.873227184392396 111.25036331007533 100.74945901020078 0.8097912348492419
1.7878211988533719 12.838757658926445 102.91450980552406 106.14034725684702 0.8992148567189696
1.800581593520512 12.800060915596033 95.50039726794351 111.93438557935976 0.9892862120944519
1.8117193835188508 12.75714720312648 88.85632189047166 118.15716843826851 1.0803458756690636
1.8213581718591125 12.710133897145504 82.8481003504179 124.83680318123011 1.1727427851737138
1.8295882405074706 12.659120384610695 77.39962958715385 132.003932041211 1.266821503601664
1.8365122923722166 12.604277737662716 72.41530670740038 139.69318015830214 1.3630026657315772
1.8421963304028 12.545726679142762 67.84771369369233 147.94051633630104 1.4615958401975928
1.846712741248999 12.483628100479422 63.643424930247186 156.7877071103659 1.5630524597625184
1.8501178255319306 12.418126728284644 59.767718162922215 166.27961482072772 1.6677764106463115
1.8524630460499112 12.349404681176656 56.174724812672224 176.4652986833825 1.7761684945241256
1.8537935773786283 12.277573103949068 52.85214704039511 187.3993697016816 1.8886215424012232
1.8541401330956397 12.202778519765191 49.76959286899348 199.1411886767543 2.005107868976436
