M[M_sun], R[km], Lambda[1], P_c[MeV/fm^3], rho_c[fm^-3]
0.24162668629717493 15.618656898711224 2160425.4255784233 3.5677272577965504 0.1711233750220791
0.2536377195375428 15.277473775439674 1723404.005505985 3.7847182674695263 0.17388690991719252
0.2660279107389631 14.98152082687916 1383237.6301643106 4.011188456273991 0.17666408680194162
0.27879718077049587 14.72385661388475 1116750.0476625392 4.247397066168364 0.17945367339568238
0.29194502000865596 14.498795766740415 906234.1824624182 4.493967744601157 0.18226220798618173
0.30547314502417316 14.301648432176478 739006.9693659106 4.751048670748429 0.18508525144527546
0.31938308271278065 14.128547925950935 605375.5134140074 5.019334192446147 0.18792968783800465
0.33367249596790616 13.976411011940868 498037.8810145931 5.2990317810120136 0.19079181619028845
0.34834558965493284 13.842445561886128 411293.75805376156 5.590889012466465 0.1936783176465999
0.36339983052980807 13.724474149762905 340911.9479742659 5.895049143685737 0.19658381207445116
0.3788449091900971 13.620434206134059 283541.50265575125 6.212385961297002 0.19951618528133244
0.3946664759451124 13.528910386750825 236627.1327236038 6.543174938858494 0.2024719379109706
0.4108823111559197 13.44829365860299 198053.5005629682 6.8880821409406305 0.2054541685016067
0.4274808779719622 13.377445042905466 166267.26044551842 7.247828149683846 0.2084662395394521
0.4444652636881547 13.315323450051594 139961.5469833206 7.622697738223394 0.2115041126020643
0.46183639364174445 13.260924731713343 118115.46183235156 8.0135880336816 0.21457315092481388
0.47958907241979426 13.213490672350304 99936.22889379013 8.421226767995098 0.21767538207508427
0.49773552468133586 13.172286984549913 84750.23863715581 8.846089687662865 0.22080878234374188
0.5162613080281817 13.136686166821873 72040.70173500896 9.288979939345237 0.22397577298544785
0.5351705430659927 13.10606444640815 61363.64014138908 9.750813594936831 0.22717974608989985
0.554462533968248 13.08003852718671 52380.33397368213 10.232398676378002 0.23042205008131852
0.5741296432398874 13.05802702043703 44797.17366840656 10.734255642834727 0.23370001575674354
0.5941789044127446 13.039699062071715 38389.35876605391 11.25752995498501 0.237018591656907
0.6145986491219368 13.02464948042634 32955.55605580455 11.803203996141459 0.24037998987139644
0.6353873043433094 13.01254185608769 28340.500989867196 12.372254752793278 0.24378583972789897
0.6565415010995643 13.003104877384152 24413.616654239708 12.965438457093105 0.24723485913356394
0.6780633164078648 12.996063708094429 21066.64960519921 13.583946257787712 0.25073032560459524
0.6999374282479203 12.991115779657957 18206.5318368036 14.229037498464306 0.2542756043458442
0.7221547525805988 12.98802816281678 15758.674677946112 14.901899232220936 0.25787267494275906
0.7447276049345415 12.986662406538796 13660.07727472444 15.603648835611192 0.2615223258442437
0.7676336342662046 12.986746196189161 11858.800407399487 16.33537502780968 0.2652246923524048
0.7908629127047511 12.988105637129845 10309.639395315677 17.09877476001536 0.26898531602378456
0.8144217052061883 12.990620498962087 8975.157969084215 17.895299605282812 0.27280662259714467
0.8382885919787945 12.994076589495592 7823.568251048223 18.726425339722983 0.27669069805935104
0.8624527190907975 12.998331452758258 6829.187703942197 19.593272041820036 0.280636033813598
0.8869124106473899 13.003259944758842 5968.737184723781 20.498027788990683 0.28464995205421706
0.9116564535659265 13.008755201855191 5192.005214824313 21.4424820824343 0.28873545693935804
0.9366602877251624 13.014640112980834 4575.960287753209 22.428259444078407 0.29289361678291537
0.9619229035812449 13.02082972378532 4013.735898251188 23.457098894996605 0.2971259537114413
0.9874314454245356 13.027220206474148 3505.5316877627847 24.53155311359777 0.3014396680250679
1.013160192744051 13.0336720022516 3099.2898192445123 25.653729970975274 0.30583764155039106
1.0391051277722616 13.040121909454788 2728.110453883107 26.825251666359893 0.3103186452440113
1.0652442637115853 13.046458399503505 2404.0971032682955 28.049368875166977 0.314892614744788
1.0915565683820552 13.052578429759116 2121.013286881743 29.328330302301204 0.31956135146525005
1.1180384825081122 13.058423061043522 1873.3005762964008 30.664493205336523 0.32432683476934027
1.1446556613068357 13.063892474313322 1656.264712424856 32.06154345024335 0.329199109576882
1.1714033837382012 13.068906229086677 1465.9247172268672 33.521330957859576 0.33417529191058737
1.1982454126675117 13.07338738545498 1298.8811852408091 35.048245990374866 0.3392680463634143
1.2251760515888823 13.077256577688836 1152.1026336347416 36.64467998252342 0.3444764488753545
1.2521580949328341 13.080432204922452 1022.9078577772497 38.31517375594786 0.3498118722102075
1.2791866165221417 13.082891282969193 909.1825778226334 40.062462976507625 0.3552738928342529
1.3062187841069717 13.084494456440838 809.0115632688518 41.89177326191317 0.36087564165093566
1.3332416274155756 13.085230720631762 720.5668524855001 43.806246655567726 0.36661722566615357
1.3602383815945576 13.085046786489855 642.5062703208993 45.8111803664262 0.3725098238901902
1.387159410529392 13.08381570851934 573.4364241200974 47.91158538762714 0.3785616521708422
1.413997561113737 13.08154086708527 512.355460309771 50.11183455447223 0.3847764593550269
1.440727077570067 13.078154828129005 458.1988228262637 52.41784671523347 0.3911648974335281
1.4673024351924682 13.073561362971777 410.24245330038065 54.83566468664796 0.3977367796739992
1.493708743025181 13.067745626880502 367.62642630347557 57.37145549726809 0.4045011287997666
1.5199132724002222 13.060643591866516 329.80918979051165 60.03182224061955 0.41146767447762433
1.5458915607811048 13.052195333681864 296.18199790462745 62.823843310537434 0.41864691147310595
1.5716033118157513 13.042359896504461 266.2684783632822 65.7551153898649 0.4260501625457765
1.5970188739553504 13.031072701725368 239.64245675690967 68.83380057309205 0.433689646639342
1.6221125353530779 13.018306624289698 215.89200515685684 72.06867805079715 0.4415785529892737
1.646861508900765 13.004024504976828 194.70054079661278 75.46920083737456 0.4497311218458725
1.6712159274383134 12.988151703547121 175.77885795933733 79.04555808428968 0.4581627325943349
1.6951407693227318 12.970646237975451 158.86742575509933 82.80758477908591 0.46688524284542
1.7186349657982898 12.95151276445396 143.72809505139452 86.76773599227693 0.4759191937582357
1.7416338544412635 12.930658645827952 130.19448702683803 90.93840481784623 0.48528234303217965
1.7641165986537364 12.908068963157419 118.0537891534829 95.3324112678082 0.49499168184411857
1.7860473843094289 12.883696067469172 107.16647095673063 99.9646185790163 0.5050695826805195
1.8073901809257553 12.85749715218911 97.39219896012952 104.85086402782706 0.5155391904171668
1.828127227933274 12.829475678523444 88.61804813841019 110.00700992947294 0.5264206857753299
1.8482108062696085 12.799565789872739 80.7192943201885 115.45168824190223 0.537741394889757
1.8676119844302013 12.767740423292055 73.61971264310972 121.20463946694679 0.5495290765436953
1.8862987505259692 12.73397994863868 67.22193311150464 127.28708334719366 0.5618130034689163
1.9042391625408468 12.69824996498874 61.452483163862304 133.72214868741148 0.5746251348598546
1.9213915669814805 12.660494282493515 56.25262210799868 140.5338293316192 0.5879960288548981
1.9377396612976967 12.620730757151522 51.556147761758275 147.75042854568665 0.6019664821089056
1.95326112348678 12.578991925237688 47.31309507861751 155.40121461426622 0.616575189084047
1.967909954283572 12.535173224767695 43.47730029567665 163.51805797764717 0.6318639809440237
1.9816523439512617 12.489271482582334 40.00523510605686 172.1358792806763 0.6478786980417275
1.9944816283713211 12.441325306464757 36.85889033372344 181.2933690274965 0.6646708644252071
2.0063321267287844 12.391220723145011 34.009565928914036 191.0321413878483 0.6822940416705136
2.0168252130601902 12.339619447037792 31.484295107812 201.49925240148067 0.8113830748884278
2.0249327017770025 12.286342274383484 29.328606260723202 212.9556636238295 0.969695809832444
2.030481438699367 12.230275279438485 27.490627622621624 225.49843044600763 1.1343280067268453
2.033510765031922 12.170895861582563 25.911094672816795 239.22926251320933 1.3061770042902003
2.034125288359594 12.107941903171254 24.54235453881679 254.2614219434954 1.4862178535700679
