M[M_sun], R[km], Lambda[1], P_c[MeV/fm^3], rho_c[fm^-3]
0.24162668629717493 15.618656898711224 2160425.4255784233 3.5677272577965504 0.1711233750220791
0.2536445512808986 15.277259124721112 1723175.5396394292 3.784829030193211 0.17388829052110955
0.2660402911284088 14.981275542126127 1382995.976428216 4.011421297871578 0.17666690055523476
0.2788169388460766 14.72346934166712 1116429.0284182485 4.247759860169887 0.17945788125938117
0.29197127569428183 14.49839596137084 905904.0736488675 4.494470007000151 0.18226780079456356
0.3055076576731208 14.30120087796802 738608.5541792765 4.7517074510378645 0.18509236752970243
0.31942472433790936 14.128103037239365 605078.2603253163 5.020154339148075 0.1879381971765847
0.33372249779000884 13.97595967605284 497666.16711920867 5.300034880835627 0.19080191574106864
0.3484049824480496 13.84199405351289 410986.0081910055 5.592077565562781 0.19368981722476647
0.3634687222010463 13.723943290958033 340648.26152933034 5.896449845964469 0.1965969677666732
0.37892276310672235 13.619960982294918 283291.31546498457 6.214015756849247 0.1995310470543673
0.3947553416401001 13.528413940712213 233275.29546003664 6.545032131220424 0.20248822297904076
0.4109809401652178 13.447836169187221 197851.49899311873 6.890202574330958 0.20547222700216405
0.4275911101435624 13.37700596931546 166064.91857374605 7.25023171422619 0.2084861236129301
0.44458555373718966 13.314921029067012 139792.315237208 7.625377786740279 0.21152544751152427
0.4619679297489123 13.260566485114175 117973.55772842687 8.016591300958979 0.21459638362524172
0.47973312021065406 13.213134702612885 99803.10669268788 8.424576663684352 0.21770056860759918
0.497891812169224 13.171958231054242 84636.5210987066 8.849773856919963 0.22083545730328769
0.5164301069508963 13.136389249184475 71931.60792865438 9.293057988087236 0.22400448270282824
0.5353495453451075 13.105832078078919 61270.70076251864 9.755313162100943 0.22721055250846506
0.5546576900901778 13.07980001137806 52300.75803881724 10.237349079857257 0.2304550178373317
0.5743410751183902 13.05782422603762 44724.63614622927 10.739635371514362 0.2337345552812982
0.5943984026534461 13.039528512776132 38322.25746456211 11.2634198899223 0.23705539207698123
0.6148362968759835 13.024490384857273 32897.78148441532 11.809638917690092 0.24041912493084167
0.6356416350996481 13.012424763304763 28288.83800244524 12.379271610544533 0.2438273870633158
0.6568131637792233 13.00302026039075 24368.309530698174 12.973005029488846 0.24727810655855895
0.6783456168627143 12.995972132379677 21025.181286811978 13.592169960075937 0.25077611297567437
0.7002348012094464 12.991048378074046 18170.265592135984 14.237962405915903 0.2543240224043493
0.7224692365381815 12.988004013249618 15727.533996422844 14.91157225123893 0.2579238198405793
0.7450587001236472 12.986651755949287 13632.186822543614 15.614025532718795 0.26157536463672254
0.7679800474204654 12.986764405487824 11834.746131608392 16.3465958803231 0.2652806254878972
0.7912256898615457 12.98814887457607 10287.201977016712 17.110896058386846 0.2690442577931491
0.8148005929923926 12.990677994720528 8955.052283589386 17.908381370925195 0.2728686946397267
0.83868493066634 12.994133709860712 7806.390511797964 18.74040955955714 0.27675494831385933
0.8628669122180659 12.998401488575938 6813.236653108115 19.608340481942502 0.2807036364012596
0.8873492423939173 13.003360683773694 5954.536141867459 20.5142529407335 0.2847210531849036
0.9121052715168592 13.008857420419227 5210.319423007394 21.45994139978668 0.2888102126802698
0.9371266994587367 13.014746730189252 4564.60600315852 22.4468802140319 0.2929709568602435
0.9624111932118555 13.020951980145629 4003.9372942471277 23.477114707793344 0.2972072438744863
0.98793279875712 13.027342909859955 3516.045085027919 24.553058137819622 0.301525097277387
1.0136760941633622 13.033794149289982 3091.652957701816 25.676640985129005 0.30592605956642255
1.0396410406318648 13.040257113303847 2721.020402697811 26.84984865144685 0.31041156822450194
1.0657929882572208 13.046582330104947 2397.8072939831322 28.075766913477057 0.3149902725672438
1.0921258878955726 13.052711485661225 2115.3382882199016 29.356435862052855 0.3196625142234544
1.1186249145585034 13.058544885962327 1868.2776794985355 30.694641697727484 0.324433185529823
1.145256589064925 13.064000907429648 1651.8418961470895 32.09375369896548 0.3293101363164543
1.1720211666541778 13.069014550792827 1461.8075381820597 33.555744864826174 0.3342912703252871
1.1988786138699317 13.073472299175561 1295.1773997885764 35.08514308987489 0.33939005506863457
1.2258242682777079 13.077338262004401 1148.85159889129 36.68395323963301 0.34460313832342054
1.2528199783812546 13.080502462677085 1019.9946963101722 38.357246357523195 0.34994507218469495
1.2798645544600984 13.082937640389375 906.5480827372926 40.10728214284201 0.3554125483617755
1.3069080333714183 13.08452099353967 806.5480547784896 41.93949570671964 0.3610199138315043
1.3339463769685578 13.085237469781063 718.4654793536416 43.857407165488226 0.36676930115990464
1.360954957590135 13.085032759611332 640.4928847251437 45.86567178697529 0.372668277539047
1.3878869912395206 13.083774419097884 571.6912178174067 47.96964035449622 0.37872689534710263
1.4147442481747736 13.081480862166794 510.70816500822053 50.17408933101452 0.3849509040995166
1.441467814160418 13.078026443020187 456.78237493779875 52.48420251748814 0.39134708560514875
1.468063072561837 13.073424170157603 408.9335962360916 54.90641518124321 0.39792722728125063
1.4944724877114497 13.067557294855682 366.4505640593874 57.44691813086356 0.404700391728714
1.5206852179696242 13.060409911762793 328.7776293136949 60.11234036826485 0.41167635176539086
1.546668640239681 13.05192195781804 295.2273622197661 62.90978853632741 0.4188656489056899
1.5723847521796894 13.042038565479434 265.41217154834555 65.84689014352573 0.42627965661497913
1.59780935503016 13.030706838162759 238.87581261402661 68.931840949007 0.43393064889768074
1.62289603447677 13.017882937160708 215.18340903562202 72.173456939237 0.44183187484638436
1.6476486456770685 13.003542034154218 194.057828391032 75.58123138138944 0.44999763985514873
1.671998158380634 12.987603605979936 175.19653394441372 79.16506365353808 0.45844200018704684
1.6959349196011138 12.970052112362286 158.33559525086667 82.93522667892195 0.46717856355948967
1.7194146595158213 12.950838264217005 143.24850455428924 86.90442165320614 0.4762287195296157
1.7423933866120247 12.929888055690821 129.7618496540947 91.0841911491826 0.48560666395738356
1.764878558990607 12.907244330549895 117.65389578160124 95.48870179778088 0.49533461816485813
1.7868053604109773 12.882804866486806 106.80364429465055 100.13154936701947 0.5054298120789431
1.80814367573739 12.856543498256315 97.06338480762668 105.02930018765569 0.5159180999765798
1.828852923582043 12.82840651782682 88.31079387726959 110.1984991309754 0.5268220247055511
1.8489321758112636 12.798434937474747 80.4446249441951 115.65683168800558 0.5381651504598455
1.8683084183869336 12.766494590601289 73.3717936816725 121.42441430186692 0.5499764575691007
1.8869860036972939 12.732671086928423 66.99487537918542 127.52268584826875 0.5622857981378335
1.90490881492387 12.696850845617998 61.24365805718092 133.9741456335706 0.5751226695554152
1.9220489233056715 12.659031049040669 56.062417641325084 140.8044767811967 0.5885233530086986
1.9383628262380352 12.619138877640328 51.38115605418296 148.04135547221622 0.6025260945266024
1.9538565743492384 12.577292404423988 47.15443563351152 155.71324248407944 0.6171665131317731
1.968473951867829 12.533355864204728 43.332224831602815 163.8538343840051 0.6324923645225344
1.9821860884695006 12.487351653681964 39.87105224773567 172.4969706760632 0.648545413822393
1.994975233069838 12.43927290353528 36.73827952914418 181.68184160179223 0.665378472605764
2.0068096639697104 12.389107879674722 33.89612614083161 191.45051604718492 0.6830461588132524
2.0176557434206472 12.336829955165749 31.32142910804101 201.8490405501753 0.7016077220884193
2.0274903204832024 12.282440947919113 28.985390745653326 212.9273115145767 0.7211256369786005
2.036298840846716 12.225971285695248 26.86440917297819 224.74096071410654 0.7416706793421021
2.0440413546685123 12.167371368141342 24.936808757340653 237.35103465175092 0.7633195639727381
2.0506998905515457 12.106660794046945 23.183022028745906 250.8244847677376 0.7861551262914408
2.0562713803554065 12.043908773579833 21.58998445453338 265.2345298429406 0.8102658686311964
2.0607154444860885 11.979056505792165 20.13757118621318 280.66266245602543 0.8357506244556381
2.064020077327216 11.912157455957393 18.818143702469104 297.1989049695186 0.8627172574414065
2.066178754763477 11.84325038631261 17.61500923126371 314.9435952228845 0.8912860580912954
2.067169404503824 11.77235309345472 16.521276129188728 334.00607618864 0.9215826002610752
