M[M_sun], R[km], Lambda[1], P_c[MeV/fm^3], rho_c[fm^-3]
0.24162668629717493 15.618656898711224 2160425.4255784233 3.5677272577965504 0.1711233750220791
0.2536442017849762 15.277265893342024 1723199.163685292 3.7848227862219477 0.17388821269301993
0.2660406131600064 14.981245425534988 1383006.7114038388 4.0114081717522465 0.17666674193382914
0.2788155151886199 14.723497762997503 1116391.235456309 4.247739407778558 0.17945764404246284
0.29197023765236413 14.498400707070791 905849.6596703775 4.4944416916020655 0.18226748549603422
0.3055057814857757 14.30120515171464 738647.5142456713 4.751670311138461 0.1850919663479063
0.31942180484958305 14.128147552185002 605112.5541066772 5.020108101115363 0.18793771743914908
0.33372076470030193 13.975910659287633 497663.53547890775 5.299978327285038 0.19080134634065352
0.3484016256359397 13.842022376455462 411003.6530675212 5.592010555242809 0.19368916888148682
0.36346298948574834 13.724020538044208 340641.6199639384 5.896370873321071 0.196596226038894
0.37891779014172616 13.620001073166094 283294.52309305733 6.2139238661308465 0.1995302091216591
0.3947498815349485 13.528454615643861 236420.7853684871 6.5449274177820325 0.202487304783647
0.4109758288985439 13.447864536282337 197865.52239315983 6.890083016591886 0.20547120879828765
0.4275840258987906 13.37704303967692 166082.41579288058 7.250096190189049 0.20848500245730264
0.4445788019831455 13.314927334013747 139805.46059711787 7.62522667093233 0.21152424453252583
0.4619604559379757 13.260592092429539 117980.31795977878 8.016421957438201 0.21459507361620014
0.4797255910317745 13.21314258316388 99808.69757599392 8.424387771838667 0.21769914840498558
0.4978823502334724 13.171981260377912 84641.96388290676 8.849566113184009 0.2208339531498773
0.5164202500671894 13.13640503402991 71935.0601016715 9.292828030362081 0.22400286378610695
0.5353390888801456 13.105846175017518 61274.08554414958 9.755059431098237 0.2272088153317129
0.5546460145295923 13.079815590991476 52297.83433227044 10.23706992153455 0.23045315875180247
0.5743283686699862 13.057841232679914 44729.537228532434 10.739331998794343 0.23373260753446257
0.5943856894496458 13.039522511692295 38328.91134133375 11.263087740293892 0.23705331680009226
0.6148230868235278 13.0245000902216 32901.82747598452 11.809276028824772 0.2404169179610738
0.6356270436474847 13.012435844687904 28291.76827058463 12.378875897682887 0.24382504401809893
0.656797654754118 13.003014611433688 24369.716114993957 12.972578309816615 0.24727566760389713
0.6783288934531513 12.99597990894349 21027.28207523968 13.591706173762804 0.25077353073773867
0.7002181836002167 12.991064214305034 18171.921283896052 14.237459066024945 0.25432129176087537
0.7224535152668917 12.987999336332233 15729.178069508369 14.911026711034717 0.2579209353638767
0.7450403809107049 12.986640272267937 13633.945073095803 15.613440298478688 0.26157237330748834
0.7679612703080778 12.986760742545327 11836.297708105401 16.345963026317403 0.26527747086940406
0.7912053327008295 12.988135866346868 10288.718961685478 17.110212408203534 0.269040933433811
0.8147807987524269 12.990666096169258 8956.292126597677 17.907643537549802 0.27286519367311807
0.8386629496446123 12.994134726006623 7807.393442040947 18.739620815665667 0.27675132444378503
0.8628438357186389 12.998402351811624 6814.541282852291 19.60749057135663 0.2806998233884714
0.8873239118870676 13.003355418859925 5955.28155777346 20.51333777252993 0.2847170427759365
0.9120811176776009 13.008851863695398 5211.145206205087 21.458956602891636 0.28880599606514956
0.9371000212447612 13.014734562063584 4565.076539932203 22.44582989089667 0.29296659441590306
0.9623839805391532 13.020944820599414 4004.470133635798 23.475985676815665 0.2972026585442182
0.9879047125377701 13.027330088311295 3516.5798250388293 24.551845084333625 0.30152027839175066
1.0136467066116157 13.03380127789535 3091.705879731747 25.675348604893795 0.3059210720221965
1.0396109378324683 13.040245182646197 2721.366184426448 26.848461143869553 0.31040632647072275
1.0657616955985114 13.04657273841458 2398.211101103045 28.074277783168366 0.3149847636267085
1.09209367968428 13.052700463439582 2115.743212903001 29.35485038699496 0.3196568074867326
1.1185913937749188 13.058536851039554 1868.5326013416461 30.692940947747726 0.3244271860240635
1.1452239324238118 13.063988553540556 1652.1040534982715 32.09194322522671 0.32930391570701234
1.1719861251865527 13.06901011828815 1462.0294196293708 33.553803429312396 0.3342847274874353
1.1988418498696451 13.073463265214015 1295.3912620483409 35.08306152872426 0.33938317191022194
1.2257880062376212 13.077330387111331 1149.0445233038556 36.6817375936904 0.34459599099258426
1.2527836124376293 13.080495179709377 1020.1565614057008 38.35488763454661 0.34993764479216427
1.2798259308572004 13.082936933169401 906.6787740474995 40.1047535316579 0.35540472568352627
1.306869506122207 13.084526642605695 806.7221705067944 41.93680325601681 0.36101177414512514
1.3339072196918669 13.085233483544398 718.5909864245538 43.854520686348735 0.366760721051125
1.360916261803393 13.085033776179369 640.6157324880647 45.862597327887705 0.372659337429654
1.3878458708539205 13.083773486951504 571.7955612875218 47.96636478265199 0.37871757201225636
1.4147031127260616 13.081481827096137 510.79824861682766 50.170576726143544 0.3849410613935711
1.4414265035017526 13.078031209094053 456.8639480273316 52.4804584561017 0.3913368058153602
1.4680208632833156 13.073432243367572 409.0088997828684 54.90242308388434 0.39791648127312357
1.4944293717222594 13.067567750173664 366.5146078833115 57.44266007506034 0.40468914811541107
1.5206416479062002 13.060423839752433 328.82464758619545 60.10779696828007 0.411664576722754
1.546624914042207 13.05193643405912 295.2797701682139 62.904938810910174 0.4188533059689328
1.5723406506707367 13.042056291078772 265.45794045150365 65.8417113703268 0.42626670645507686
1.5977652569938137 13.03072968090783 238.9147732545506 68.9263085041595 0.43391704907526124
1.6228519637389074 13.017907165116801 215.23564717274644 72.16754412042026 0.4418175795406628
1.647604124529155 13.00357027882357 194.09391915315987 75.57490921248262 0.4499825995651442
1.6719537737533865 12.9876331227238 175.2300254668906 79.15833368366711 0.4584262992443337
1.695890538590122 12.970086352949085 158.35816126251865 82.92802324157108 0.46716201008143715
1.7193705884269006 12.950877475200254 143.27623257955986 86.89670766411965 0.4762112511396896
1.7423526792788158 12.929937927043886 129.77584286991151 91.075963397578 0.4855883602385898
1.7648354952020866 12.907289403613053 117.67535410273543 95.47988101633763 0.49531526340078685
1.786762705249226 12.882854183635805 106.81712732031839 100.12212787503293 0.505409480907976
1.8081011101320459 12.856599186119462 97.08494593069815 105.01922912625875 0.5158967140565935
1.8288114505664608 12.828465605589212 88.3296733602157 110.18772520675385 0.5267994992959513
1.8488911864106123 12.798500667681935 80.46180644261324 115.64525270029438 0.5381412322668356
1.86826852047829 12.766562212544688 73.38855769639332 121.41200918222582 0.5499512052914806
1.886947581583048 12.73274426971688 67.00867164225147 127.50942178308794 0.5622592349356866
1.9048723913676215 12.696928940497852 61.25699730015447 133.9599216250148 0.5750945869460107
1.922012752039617 12.659113865255792 56.07357883265598 140.7891990879632 0.5884935862524666
1.9383263841870542 12.61922682965639 51.39007273005156 148.02493259654062 0.6024945043081514
1.9538230671207828 12.57738653821278 47.15994484903326 155.69562802856424 0.6171331319753399
1.9684405838849182 12.533458377488005 43.337624452435584 163.8349215971054 0.6324570352794296
1.9821585135615285 12.487459322841024 39.87912827937892 172.4765854018366 0.6485077746424133
1.9949463422952265 12.439386564195358 36.744356607593865 181.65990993672972 0.6653385237737528
2.006782566773963 12.38922810155832 33.90170079760088 191.42689555796022 0.683003695976488
2.017630058622215 12.336956770545164 31.327277036786533 201.82357411544976 0.701562521678838
2.027468088713204 12.282572661153065 28.990711419600167 212.89988984952674 0.7210776644161818
2.0362790544089093 12.226110161479786 26.8701934935984 224.71132998289517 0.7416194619177956
2.0440245982356906 12.167516987975667 24.940284284902802 237.31905048959095 0.7632650280381402
2.0506847437239912 12.106813613602222 23.187127591753068 250.78991607658185 0.7860969603511113
2.0562581990424844 12.044070409568997 21.593286170581255 265.1970490656053 0.8102034984401232
2.0607060340286756 11.979223001071148 20.141367854787127 280.6221271186391 0.8356841370678073
2.064013136244356 11.912329868383186 18.821297990677415 297.15492695557157 0.8626460051787826
2.0661752415875685 11.843431741728883 17.618656305363753 314.89582135337656 0.8912095815226102
2.067168838062462 11.77254405025154 16.52333511265881 333.95419134233305 0.9215006522908656
