M[M_sun], R[km], Lambda[1], P_c[MeV/fm^3], rho_c[fm^-3]
0.24162668629717493 15.618656898711224 2160425.4255784233 3.5677272577965504 0.1711233750220791
0.2536441408458801 15.277290767278716 1723251.106667985 3.7848224434830935 0.17388820842094546
0.2660403683081936 14.981251163918014 1382909.67600139 4.0114074512451765 0.17666673322692641
0.27881558588890987 14.72348506671403 1116475.0271364274 4.247738285125739 0.17945763102138193
0.29197012568728137 14.498400073336965 905861.6057152229 4.494440137342515 0.1822674681889934
0.3055051536461717 14.30124125302308 738692.5151916516 4.751668272495908 0.18509194432667594
0.319421640301076 14.128145553094043 605107.6998521272 5.020105563070898 0.18793769110595815
0.3337202074726873 13.975933853465207 497678.07616704586 5.299975223016709 0.19080131508582235
0.3484014413851282 13.842023930912415 411004.6219955965 5.592006876998211 0.1936891332934585
0.3634648883422629 13.723966530804343 340649.951854977 5.896366538460795 0.19659618532496895
0.3789174739496404 13.620004984314953 283299.3505816348 6.213918822194597 0.19953016312703384
0.39475139194026454 13.528425977119193 236404.0003892555 6.544921670004885 0.20248725438340626
0.4109750872094346 13.44786121209164 197866.34949258884 6.890076454010224 0.20547115290858833
0.42758361185216354 13.377047864253255 166076.61076761238 7.250088751217717 0.20848494091659928
0.4445783682284173 13.314925717966034 139799.03424761564 7.6252183761301975 0.21152417850056732
0.4619600096159848 13.260565422635947 117981.04809795396 8.016412662120178 0.2145950017094003
0.47972456700368066 13.213154142166093 99812.51164744514 8.424377403518069 0.21769907044970935
0.4978824281333942 13.171977468151386 84639.00872071288 8.849554710089095 0.22083387058659798
0.5164196668298928 13.136405500741917 71937.5565796363 9.292815407950135 0.22400277492353993
0.5353381408386343 13.105850526307215 61274.401918024916 9.755045503782304 0.22720871997793585
0.5546454016947437 13.07980700157435 52298.88733917911 10.237054598526882 0.23045305670654892
0.5743277593994636 13.057845404920325 44729.1028835712 10.739315346672708 0.23373250062268347
0.5943849729159185 13.039524677184886 38328.408450646944 11.263069508627252 0.23705320288830917
0.6148225939524222 13.02450011743757 32900.70272457903 11.809256109904403 0.240416796820804
0.6356264680122031 13.012456432269365 28060.16764583601 12.378854177080234 0.2438249154087989
0.6567971756329972 13.003021019021464 24369.77063286916 12.972554887276454 0.24727553373026243
0.6783297890453207 12.995969202675134 21027.5300862198 13.591680716669822 0.25077338899946533
0.700216929834696 12.991057661828671 18171.89708107981 14.237431437876182 0.25432114187682
0.7224507301960421 12.988001492688317 15729.446431305976 14.910996766556496 0.2579207770361327
0.7450388105661049 12.986645936062306 13633.923984758228 15.6134081752385 0.2615722091147927
0.7679601645909567 12.986758982494697 11836.400161116899 16.34592828928571 0.2652772977140134
0.7912048779856343 12.988136711628268 10288.823304813155 17.110174883034507 0.26904075096162117
0.814779446066312 12.990660613024403 8956.17689136284 17.907603038338188 0.2728650015072548
0.8386612105472758 12.994125235953128 7807.452667947157 18.739577522044346 0.27675112553199577
0.8628430303204639 12.998401685701106 6814.505634652785 19.60744392038526 0.28069961409498406
0.8873223434567802 13.003359491710418 5955.2226593136 20.513287539668216 0.2847168226477477
0.9120784865968079 13.008844360841055 5211.12818386887 21.45890254822281 0.2888057646187112
0.9370985246005458 13.01473933920091 4565.224777317424 22.44577223959719 0.2929663549652267
0.9623824624052941 13.02094448673019 4004.599666314862 23.47592370537892 0.29720240685980004
0.9879022797836212 13.027337908891813 3516.480882749446 24.551778501052656 0.30152001388798394
1.0136454073489307 13.033794900848848 3091.807027513246 25.675277667509317 0.30592079826116797
1.0396088960575718 13.040241898023064 2721.383357237102 26.848384985128625 0.3104060387567134
1.065760480877557 13.04657641720335 2398.30789885756 28.074196046558967 0.31498446124744856
1.0920931772918918 13.052701163135833 2115.8322332932153 29.354763362213134 0.3196564942509515
1.1185855508458724 13.05854937552614 1868.5179846527535 30.69284759577118 0.3244268567189172
1.1452211979342566 13.06399827172864 1652.0586049038895 32.09184385074445 0.3293035742660793
1.1719845422708102 13.069002973213227 1462.0515278184153 33.553696866635114 0.3342843683602258
1.1988403048830505 13.07346198193869 1295.4039247437622 35.08294727487896 0.33938279410372985
1.2257857579938805 13.077329551733582 1149.0515628234757 36.6816159802417 0.34459559868642414
1.2527816897106046 13.080495388788812 1020.1523223787431 38.35475816794013 0.349937237114232
1.2798240905948195 13.082934920025034 906.7161783027839 40.10461474032036 0.3554042963094951
1.306868541041065 13.084517922515104 806.7236363103746 41.93665547194156 0.3610113273714765
1.3339042039909863 13.08523895885568 718.5123294502915 43.85436225257518 0.3667602501040141
1.3609123324660728 13.085033735750496 640.6119302274565 45.862428576396844 0.37265884672324173
1.3878436351139751 13.083775502787217 571.8044727028155 47.96618499263313 0.3787170602718252
1.4147008781776922 13.081482177028622 510.8147851200423 50.17038392607306 0.38494052114652655
1.4414227691981563 13.07803290796952 456.8610361436059 52.480252952053725 0.39133624157824015
1.4680182319537642 13.073432914338326 409.0064169368195 54.902203965878925 0.3979158914468605
1.4944271803204037 13.067572021155913 366.52009513139296 57.44242635940631 0.40468853097731844
1.5206392466058543 13.060424377512856 328.82763614109615 60.10754759097567 0.41166393041637517
1.546622617283777 13.051939021740717 295.2849752211833 62.904672620384126 0.4188526284928809
1.5723384130738571 13.042057334560917 265.45709362357434 65.84142711944908 0.42626599565076523
1.5977628091661418 13.030730286909925 238.915059355974 68.92600484143647 0.4339163026133945
1.622849492631149 13.017909416430763 215.23746006681003 72.16721958028415 0.4418167949063609
1.647602456778597 13.003568994794515 194.0956081665412 75.57456220456967 0.44998177404154277
1.671950864234637 12.98763714835535 175.2329078519717 79.15796429299316 0.4584254374601175
1.695888129447399 12.970088495542152 158.3580043415301 82.92762786402388 0.4671611015049852
1.719368078796931 12.95087859102684 143.27583844537878 86.89628426432985 0.4762102923474824
1.7423503137311993 12.929937810718107 129.7767728251291 91.07551179931147 0.4855873555986741
1.764833843292093 12.907293054988527 117.67663457231828 95.47939686902768 0.495314201073484
1.7867602359394212 12.882857136838878 106.81843195570875 100.12161075711384 0.5054083649899411
1.80809878860112 12.856602457422017 97.07897943521947 105.01867635612325 0.5158955402480522
1.8288092006699115 12.828468552752437 88.33074335772595 110.18713385941193 0.5267982629459622
1.848889442108019 12.79850461351834 80.46186790185575 115.64461716653769 0.5381399194734001
1.8682663505463544 12.766566658395215 73.38686762707242 121.41132830571222 0.5499498192764123
1.8869456183303253 12.732748259973388 67.00856385928091 127.50869174097689 0.5622577697469948
1.9048677710362774 12.696934470553717 61.25461060569896 133.95914091786906 0.5750930455876976
1.9220107913778686 12.659118458639512 56.0735908887031 140.78836054902138 0.5884919524597276
1.9383243548091442 12.6192318005386 51.390928458074754 148.02403120405305 0.6024927704348545
1.9538194321060534 12.577393082034883 47.15925861066694 155.69466123603317 0.6171312998067162
1.9684389450692596 12.533463253497732 43.33681261381974 163.83388354560532 0.6324550961906007
1.9821548996711158 12.487466552700054 39.879890479489774 172.47546653311278 0.6485057087736493
1.994944521639427 12.439393243578019 36.74537965001997 181.65870619467103 0.6653363311409021
2.006781133434577 12.389234826131165 33.90317629520363 191.42559912535697 0.6830013653640488
2.017628893122254 12.33696340241098 31.32745669801115 201.82217636899054 0.7015600408167493
2.027466088115347 12.282580350115657 28.990636371281607 212.89838479127346 0.7210750314068125
2.036277477720156 12.226117678750187 26.869329516780255 224.70970368166243 0.741616650817398
2.044023535837682 12.167525390014477 24.941743442623576 237.31729502218755 0.7632620348049575
2.050684546416777 12.106821585842354 23.187300773658112 250.78801875974523 0.7860937678895452
2.0562567754304752 12.044079157868845 21.592992108734226 265.1949919222889 0.8102000752341272
2.0607052031353152 11.979232522628706 20.142260479570048 280.6199023294094 0.8356804878956554
2.064011827370557 11.912339959406781 18.82047455489561 297.15251321985573 0.8626420944944272
2.066173978704478 11.843442113048878 17.618499046809475 314.89319928805253 0.891205384111747
2.0671692164049875 11.772554142393322 16.52383678291168 333.9513436529113 0.9214961545928958
