M[M_sun], R[km], Lambda[1], P_c[MeV/fm^3], rho_c[fm^-3]
0.24162668629717493 15.618656898711224 2160425.4255784233 3.5677272577965504 0.1711233750220791
0.25364429785468295 15.277263145771263 1723150.1229795252 3.7848255260088277 0.17388824684314166
0.2660405965375613 14.981262475196331 1382994.098179311 4.011413931347307 0.17666681153513636
0.27881619567648613 14.723475822405728 1116382.134358153 4.247748382054523 0.17945774813054008
0.2919708746938145 14.498371123992563 905859.771689324 4.494454116068003 0.182267623845346
0.3055062646767178 14.301208259002948 738619.654618048 4.751686607682269 0.18509214238168187
0.3194231417193247 14.12812170454972 605111.2948903143 5.0201283897992655 0.18793792794207528
0.33372145917081825 13.975958142409112 497670.2572385041 5.300003142277012 0.19080159618644718
0.34840309853084594 13.84200994964506 410995.909285026 5.592039958517886 0.19368945336626175
0.363466624283274 13.723950216594465 340630.91822550754 5.896405525490624 0.19659655149940364
0.3789194900149234 13.619987326453888 283293.35698690126 6.213964186559928 0.19953057679542338
0.39475162672162856 13.528461603939297 236406.45582630904 6.544973364625772 0.20248770767539542
0.4109773554780204 13.44788396528787 197856.57323183966 6.890135476883968 0.20547165557214914
0.42758593165079983 13.377044748091475 166075.18416196277 7.250155656238852 0.20848549440469283
0.44458204854433575 13.314906499446314 139795.32229009847 7.625292978398533 0.21152477238259237
0.4619636750088757 13.260555066069763 117977.21177828407 8.016496262923209 0.2145956484292001
0.47972896311435254 13.21313945089559 99807.20650817615 8.424470654798712 0.21769977156897688
0.49788624851273405 13.17198128389537 84639.43413131383 8.849657268030569 0.22083461314991387
0.5164252013358196 13.136390744656982 71934.43409436663 9.292928932318796 0.22400357414217273
0.535344549166184 13.105837269754613 61274.42494827734 9.755170764346085 0.22720957757805976
0.554651342425352 13.079811015701447 52303.89652001099 10.237192411829986 0.23045397448938645
0.574334055383503 13.057832309348184 44325.954513112134 10.739465113924291 0.23373346217483074
0.5943915891854971 13.039517268254299 38323.79527400982 11.26323348219394 0.23705422739812113
0.6148287946115171 13.024497744439946 32899.404190954185 11.809435258518741 0.24041788634328204
0.6356338781457195 13.012443594238466 28290.806654231972 12.379049529913848 0.2438260721074225
0.6568046972256413 13.00301800196935 24369.48814416795 12.972765547234594 0.24727673777619796
0.6783371127582558 12.995998736119592 21026.699818183894 13.591909675288466 0.25077466377971225
0.7002253849032353 12.991052546977478 18171.552096761403 14.237679922865292 0.25432248992001316
0.7224554175085194 12.988026371534593 15728.176237091715 14.911266084511706 0.25792220102168206
0.7450482389602636 12.986655262617477 13633.24014752852 15.613697088886395 0.26157368584971674
0.7679694738620377 12.986761129617804 11835.730178624333 16.346240711281794 0.26527885505930576
0.7912142180020774 12.98814510594314 10288.258450015866 17.110512381452985 0.26904239210214365
0.8147906580010035 12.99066159940198 8955.469869319584 17.90796728521866 0.27286672983265775
0.8386715317890495 12.994137295437245 7806.9594517403675 18.739966901773492 0.27675291453038076
0.8628518096580552 12.998414434548927 6813.612396313148 19.607863496062453 0.2807014964664351
0.8873342029773373 13.003356435432831 5954.9263668026715 20.513739330821604 0.2847188024666332
0.9120911472702986 13.008851296242481 5210.675462681385 21.45938871267831 0.28880784623412276
0.937111060749864 13.014744153308474 4564.880032006698 22.446290752117804 0.29296850857104106
0.9623959020955137 13.020951290574653 4004.21399805913 23.47648107321611 0.297204670496197
0.9879171449314653 13.027333235290882 3516.309384784873 24.552377347840604 0.3015223928219865
1.0136592492588514 13.033798095519458 3091.6077843565363 25.67591567512326 0.3059232604554235
1.039625616463748 13.040249463696686 2721.221740417045 26.849069953694688 0.310408626444614
1.0657756800188865 13.046580372632196 2397.85952530402 28.074931182578972 0.3149871808352482
1.0921076319920722 13.05270767445144 2115.611451147278 29.35554606014872 0.31965931148294063
1.1186051391102863 13.058541103852463 1868.407086897417 30.693687200672127 0.32442981847961033
1.1452387330589662 13.064001895172515 1651.9868328289722 32.09273762221948 0.32930664517683456
1.1720018268675876 13.069010769564525 1461.9340434325 33.554655289002284 0.3342875983424206
1.1988574887899255 13.073464221011236 1295.3927459025604 35.08397487193536 0.33938619208861315
1.225803749695482 13.077333511547224 1148.9498749216439 36.68270976986887 0.3445991270824464
1.2527997039127983 13.080498820509488 1020.0720362478617 38.35592258921979 0.3499409037652126
1.2798439353619908 13.082931236038409 906.6338277651133 40.10586302875438 0.3554081580968837
1.306885847835876 13.084528329449267 806.6800717727995 41.93798464154886 0.36101534565256765
1.3339253019036554 13.085231730489944 718.524981165371 43.85578720627283 0.3667644858033353
1.360932754182255 13.085031895956575 640.5594784902898 45.86394632830917 0.37266326013963175
1.387864034164148 13.08377387046279 571.7420814698976 47.967802025831595 0.37872166287029774
1.4147210804914332 13.081480975838009 510.76757134909093 50.172117972732956 0.3849453801363635
1.4414441966926688 13.078031895636014 456.8109235400735 52.482101259303306 0.3913413163374466
1.4680392534154247 13.073428573637345 408.96585389309354 54.90417471821973 0.3979211963577299
1.4944483894838234 13.067564769859162 366.49427246243715 57.44452840431507 0.4046940815340025
1.5206607418409313 13.06041761017181 328.80359315158125 60.10979049826425 0.4116697433161951
1.546644319115031 13.051928761259877 295.2600757601419 62.90706674748306 0.4188587217366892
1.5723599724908615 13.042047806713727 265.43062483028115 65.84398368327308 0.42627238865332573
1.597784557554445 13.03071871487067 238.8937813522807 68.92873599757375 0.4339230163248712
1.6228717372445105 13.01789668709475 215.20957329987527 72.1701385103386 0.4418238519461251
1.6476235771863061 13.003556595543447 194.07777171614825 75.57768321259134 0.4499891988456637
1.6719725467543247 12.987624051552276 175.20846061877577 79.16128661430149 0.45843318839772
1.6959093310593167 12.970069341841606 158.34932928987953 82.93118391478917 0.467169273299287
1.718937724315161 12.951050909676981 143.52485210572507 86.94913553145723 0.6062292469913904
1.7331501015606325 12.92742086653009 133.91389820513015 91.75423002089265 0.974691940338889
1.7388056514023524 12.894159419471308 127.93518637086972 97.51593232998496 1.3188726846808356
