M[M_sun], R[km], Lambda[1], P_c[MeV/fm^3], rho_c[fm^-3]
0.24162668629717493 15.618656898711224 2160425.4255784233 3.5677272577965504 0.1711233750220791
0.2536406204864919 15.277409394774322 1723173.7393855948 3.7847747730380483 0.17388761423184496
0.2660344282756119 14.981388927760925 1383145.816263769 4.011307239133464 0.1766655222226975
0.2788069910303657 14.723682371054622 1116595.0035939754 4.247582141713371 0.1794558199931016
0.2919586863863376 14.498573128033067 906059.6754450015 4.4942239660295735 0.18226506107125304
0.30549043545161414 14.301466966891411 738818.2113313677 4.751384734105916 0.18508888157092288
0.31940373466911676 14.128334018060198 605285.4491850786 5.019752569754538 0.187934028664058
0.3337002245612541 13.976113583680567 497823.816081592 5.299543482432573 0.1907969681745273
0.34837495541739155 13.842255611675068 411143.7163980463 5.5914953119859385 0.19368418376123805
0.3634351219046005 13.724188254474159 340772.7035134477 5.895763657212681 0.1965905229367034
0.3788840637732579 13.620206267766562 283416.45542563405 6.213217330172754 0.199523766364446
0.39471217423870314 13.528658932335137 236500.79456316284 6.544122296322687 0.20248024495611433
0.41093275433306636 13.448083883848469 197957.24264537133 6.889163768435515 0.20546338009524048
0.42753576586429837 13.377247726879895 166158.67550377615 7.249054190667153 0.20847638226229961
0.4445267866181052 13.315114535393352 139872.998232646 7.624064800743866 0.2115149952987456
0.461903089052643 13.260728421652216 118040.62848542648 8.015119952968014 0.21458500155899785
0.4796625764216533 13.213310219404443 99864.5287171003 8.422935482004188 0.21768822921569428
0.4978146048025323 13.172125458307033 84693.17954212366 8.847968893392995 0.22082238859615086
0.5163481684192758 13.136527462079325 71983.17323659216 9.291060035508762 0.22399041699211797
0.5352606207131827 13.105954195208609 61315.72646123859 9.753108675834087 0.22719545942857958
0.5545625628178086 13.079921532172019 51852.69105186915 10.234923692325056 0.23043886570251398
0.5742331049673305 13.057991300541264 44761.039447069976 10.736999621293856 0.23371763294842932
0.5942885504931519 13.039625077067214 38353.83964262497 11.260534143104811 0.23703736187864421
0.6147209484989342 13.024586964355317 32926.707821079886 11.806486129250448 0.24039995071681727
0.6355158876369732 13.0124804435731 28315.52352394679 12.375833672172043 0.24380703077510707
0.6566815315232408 13.003060360315823 24390.596870591125 12.969297728569707 0.24725691714675543
0.678206955078981 12.996011638819772 21044.919666387083 13.588140657778403 0.2507536788999964
0.7000893606966552 12.991087557399405 18187.748156290196 14.233589501134327 0.2543002991824896
0.7223175332127652 12.988002712252069 15743.372203861532 14.906832755095746 0.2578987603379037
0.7448970542509317 12.986644165136118 13645.952078837208 15.608941217783777 0.2615493769913341
0.7678086079369596 12.986758164119172 11846.157192343957 16.34109790239984 0.2652532194468903
0.7910483619732718 12.988115544970297 10229.776928254078 17.104956828651712 0.2690153773301391
0.8146154373414133 12.99064991186797 8964.6891529174 17.901971471632308 0.2728382801259117
0.8384914490438882 12.994100815447663 7814.528732241647 18.733557419393755 0.2767234662752011
0.8626647682354487 12.998372061030912 6821.201945600642 19.60095701778618 0.2806705114540974
0.8871321905900897 13.003311812222957 5961.650200267761 20.506302621991086 0.28468621365545793
0.9118853003904647 13.008805516129945 5216.317439352259 21.45138626306032 0.28877358206226383
0.9368981211737849 13.014694576814904 4570.030109957235 22.43775589395685 0.2929330596292518
0.9621687483563767 13.02088823846689 4008.7221561887063 23.46730671654199 0.2971674107077764
0.9876877553215166 13.027276016465812 3520.4480455024027 24.54252031801178 0.3014832355218284
1.0134261710272796 13.033744396547997 3095.48620945717 25.665414123297207 0.30588273294444207
1.0393783103623089 13.040190337787914 2724.465070646593 26.837795517261373 0.3103660336539516
1.065524924857449 13.046528581345525 2400.974973458752 28.062831096681457 0.31494241735599265
1.091847460202723 13.052646939498839 2118.092200593088 29.342663204403806 0.31961294111237265
1.118338511325282 13.05848917192701 1870.7760912958477 30.679867793663295 0.32438106962591146
1.1449634803185673 13.063955835002764 1653.8800042148762 32.07802676165235 0.3292561001088874
1.1717183930926194 13.068955733008854 1463.8642571399055 33.538880449688904 0.33423443550748055
1.1985672640591294 13.073422459896923 1296.9942397041582 35.06706161583226 0.3393302645358743
1.22550677014418 13.07729639271467 1150.415532793187 36.6647071707398 0.34454105348439845
1.2524966011250784 13.080465993466083 1021.3927666778206 38.3366427608268 0.34987988131119013
1.2795325899751322 13.082913643518054 907.8559973187505 40.08531786594721 0.35534459822685377
1.3065705203587354 13.084509313295356 807.8272628450369 41.91610843866913 0.36094921057703205
1.333601301825267 13.085232860655369 719.4721782797357 43.832334745253824 0.3666947729604671
1.3606047483166268 13.085041334326547 641.443282322849 45.83896674142363 0.37259062289418904
1.3875307375676178 13.083796051590202 572.5443425526721 47.94118863984092 0.37864591258278035
1.4143812856124838 13.081518117913276 511.4849174670187 50.143579026855605 0.3848654108649583
1.4411085770119645 13.078099928700016 457.4740228222423 52.45168204987167 0.3912577965854402
1.4676913465562305 13.073499134012835 409.56276004240357 54.87174058133387 0.3978338894943855
1.49409830459084 13.067648552127176 367.0423543554967 57.409933769547855 0.40460273263824914
1.5203067684521636 13.06052166453123 329.2881171537737 60.072877912311995 0.4115740776748516
1.5462881726649547 13.052056928114526 295.701959159668 62.86766580040823 0.41875844319386957
1.5720019927192814 13.042195904806995 265.8300402638677 65.80190982649503 0.4261671777950681
1.5974240948795602 13.030891870575037 239.24778793474795 68.8837892414403 0.4338125284811428
1.622512071902669 13.018094943336642 215.52300976603593 72.1221019876182 0.44170771499023764
1.6472629807554535 13.003779555188517 194.37032636109015 75.52632159253321 0.44986701076872926
1.6716129977546554 12.987873234036405 175.48268852052874 79.10661246823521 0.4583056342404602
1.6955508767040575 12.970353655267573 158.596725897604 82.8726639464988 0.4670347945825935
1.7190237183541586 12.951161670563392 143.48772279336478 86.83742539291038 0.476077005962833
1.7420221133705427 12.930265000412755 129.9739068671941 91.01273347148008 0.4854476969271211
1.7645080737007444 12.907651629137577 117.84655892190875 95.4120944940933 0.4951665246349879
1.786434384098589 12.883240705530508 106.9746457858275 100.04972573840172 0.5052532402382036
1.807776357708213 12.8570168593847 97.22519717428776 104.94183603416936 0.5157323696633195
1.828502142628352 12.828944047508276 88.46110737629112 110.1047121599303 0.5266255828317149
1.8485784973938648 12.798989045015652 80.58269617220778 115.55627383479434 0.5379574326349585
1.8679714178713005 12.767121116475531 73.48687116327913 121.31668304184356 0.5497571562027955
1.8866498199267843 12.73331546130472 67.10513907208173 127.4072133259118 0.5620541033776697
1.9045804981917795 12.697535914355928 61.34609196089643 133.850620963764 0.5748787935031474
1.9217329502655685 12.659765280277822 56.15409073951031 140.6718032192623 0.5882648544568446
1.9380646150765586 12.619946663814169 51.46744725857239 147.89873871699461 0.6022517641023076
1.9535583869372855 12.57809485731845 47.230921534664056 155.5602797208831 0.6168766333837276
1.9681939544780551 12.534238761709833 43.40121274428371 163.68934023426985 0.6321846956700168
1.9819261695058297 12.48829068730096 39.93553740985097 172.31995072455237 0.6482185658368893
1.9947256426106692 12.44025931880572 36.79704434117077 181.49139561271778 0.6650315725959817
2.00657311542306 12.39013777808413 33.9528600427134 191.24540763506897 0.6826774329608861
2.0174418586633136 12.337928843406296 31.372125971337333 201.62790585961534 0.7012152298258139
2.0272961475160147 12.283595480858656 29.033611479929252 212.68920187261446 0.720709078405635
2.0361248196486406 12.2271830974149 26.907442268041734 224.4836728964524 0.7412259512241327
2.0438875900127154 12.168646232583587 24.975835998711002 237.07331553468725 0.7628460273664319
2.0505682504444387 12.107998805460705 23.219647301615566 250.52388672771906 0.7856486387318282
2.056155134754852 12.045279474348254 21.62269496984032 264.90909350482457 0.8097243236571185
2.060629835841788 11.980508911965938 20.16855911491474 280.31047610653394 0.8351725778978539
2.0639648853392814 11.913682938826241 18.8462543727964 296.8170666158431 0.8620986108902302
2.066142643776509 11.844825631626149 17.64095402112639 314.52880648566816 0.8906220629056777
2.0671600955840015 11.773996242615961 16.545058273164035 333.5556021376844 0.920871112481204
