M[M_sun], R[km], Lambda[1], P_c[MeV/fm^3], rho_c[fm^-3]
0.24162668629717493 15.618656898711224 2160425.4255784233 3.5677272577965504 0.1711233750220791
0.2536438527696903 15.277265067390086 1723298.7711428814 3.7848163962586203 0.17388813304520967
0.2660396068499749 14.98126858716213 1383023.4969451837 4.011394738759239 0.17666657960403626
0.27881432373193366 14.723528212317376 1116472.1517084236 4.247718477281559 0.17945740128023924
0.29196790033376613 14.498458340979989 905876.2184777842 4.494412714353195 0.18226716282764277
0.3055048427715883 14.301196456446716 738618.7681314439 4.751632303208219 0.18509155578972047
0.3194216741802391 14.12810938536964 605109.5258733858 5.020060782512053 0.18793722649037645
0.33371771784485005 13.9759531824792 497689.7237141394 5.299920452220502 0.19080076363478574
0.34839818538871686 13.84205042141686 411019.8473607514 5.591941979201424 0.1936885053894218
0.36345928185646453 13.724067801083041 340656.86831853277 5.8962900556260704 0.19659546698199973
0.3789136333009982 13.620016183798489 283313.8052142568 6.213829828754624 0.19952935161401633
0.39474507031073114 13.528476747589645 236409.81000997373 6.5448202583436315 0.20248636514013751
0.4109700261032753 13.44790644081153 197876.66558473662 6.8899606663612945 0.20547016681238164
0.42757724409629444 13.377072732428829 166086.77318817624 7.249957501026954 0.20848385511740763
0.44457220034964223 13.31496131869069 139805.78746691966 7.625072026146487 0.21152301346059427
0.4619527022458465 13.260588246982573 117992.02827501102 8.016248659626354 0.21459373301752024
0.4797166747054018 13.213171524005391 99815.17848900048 8.424194469628878 0.2176976950425995
0.49787372284037285 13.171997888732967 84646.38009635032 8.849353519299243 0.22083241387931724
0.5164125246738206 13.136403301453528 71942.95046729596 9.29259270433641 0.22400120707621538
0.5353284407581956 13.10586857180128 61280.6800425199 9.754799777335112 0.22720703760460778
0.5546372187419917 13.079816817061666 52303.998288051815 10.236784247481229 0.23045125627404917
0.5743166552210341 13.057851664897177 44734.05413825955 10.739021545697748 0.23373061432941608
0.5943734006934756 13.039529142238289 38331.451417670454 11.262747839342165 0.2370511930927949
0.6148092533680265 13.024510532035292 32903.605242942016 11.808904672014759 0.24041465949207377
0.635613548519084 13.01245232974086 28295.124506514087 12.37847095173593 0.2438226463030988
0.6567819169154364 13.003027637340852 24373.400112372496 12.97214163431063 0.24727317174577212
0.6783138481873588 12.99598950418908 21029.770438478372 13.591231567745783 0.25077088825859045
0.7001999205780222 12.991073137240736 18174.065285714685 14.236943984697204 0.25431849741953383
0.722434686465182 12.98800457642623 15731.531971999346 14.910468446086938 0.25791798360665824
0.7450204230962613 12.986658594867551 13635.589754665223 15.61284141460857 0.26156931221039964
0.7679408775891493 12.986751749986071 11837.627264458448 16.345315413307308 0.2652742426809757
0.7911843894321303 12.988132496758327 10289.967549821959 17.109512815766458 0.2690375315526914
0.8147569250386056 12.990674220176391 8957.245198414255 17.90688849990647 0.2728616110734882
0.8386403066815938 12.99411899207722 7808.303299690383 18.738813681722586 0.2767476160809389
0.8628202262565704 12.998402254577341 6815.444622386635 19.606620846317515 0.28069592148072775
0.887294535710683 13.00334408928275 5920.216095896237 20.512401270365793 0.2847129388782463
0.9120538936742815 13.00884356773003 5211.9039860916955 21.457948850921458 0.28880168116304517
0.9370734516325064 13.014731386611933 4565.810953947549 22.44475508706689 0.2929621302926947
0.9623516741874476 13.020929808830573 4005.1199516047 23.474830332997062 0.29719796634968476
0.9878752607365537 13.027323339762557 3516.9100438920022 24.550603762357582 0.30151534720882306
1.013617415062403 13.033781170617665 3092.2416000434587 25.674026109773337 0.30591596825882844
1.0395794150456048 13.040237704702465 2721.7712486509213 26.84704130772324 0.3104009625854312
1.0657300414959356 13.046565103393332 2398.6804805398488 28.07275395971596 0.31497912634114883
1.0920615531693347 13.052701748135515 2115.9425172039605 29.353227976961115 0.3196509678067756
1.118557914407353 13.058531345903585 1868.8820850283248 30.691200581097082 0.32442104676793043
1.1451881610991277 13.06399348227388 1652.307964897923 32.090090582177275 0.32929755020797247
1.1719508848846771 13.069003512167424 1462.29304698046 33.55181677849203 0.3342780322693384
1.1988050049587404 13.073456694399727 1295.5835459256755 35.08093149351301 0.3393761284612322
1.225751252654335 13.077329458903767 1149.2530798965975 36.679470355307004 0.3445886772325204
1.2527450423005817 13.08049437103632 1020.3160090955623 38.352469069757724 0.34993001558841147
1.279786353734087 13.082934574251055 906.841643358276 40.10216605117096 0.355396720883321
1.3068293022912663 13.084525623483072 806.8633744040457 41.93404812683145 0.36100344497219755
1.3338662108827841 13.085237904863126 718.7206728448429 43.85156701884947 0.36675194122379284
1.3608738384217463 13.085035599875809 640.7176145045657 45.85945131100395 0.37265018923991017
1.38780308777935 13.083778869185217 571.9031643441953 47.96301297881092 0.3787080316965389
1.4146605851310832 13.081488895523348 510.9078623454575 50.16698238171561 0.38493098964437905
1.4413819396877245 13.078038175219044 456.93404158388194 52.47662727701696 0.39132628683301224
1.4679774115412594 13.073440285511735 409.08641260079054 54.89833810610018 0.39790548524759584
1.4943856120010026 13.067579274880924 366.59173189340606 57.438302960423904 0.4046776429322118
1.5205968297000738 13.060436169405428 328.88425345973644 60.10314788150064 0.41165252777367767
1.5465797195703859 13.051953269581528 295.3369115722182 62.89997628425493 0.41884067594405683
1.572295401958642 13.042076408118513 265.5061200962678 65.8364121546741 0.42625345511399215
1.597719891152964 13.030749640495543 238.9601379227938 68.92064740487594 0.4339031329952862
1.622806764295428 13.017934898944079 215.27633201614518 72.16149381633917 0.44180295183952256
1.6475588263265217 13.00359827409536 194.12863871888328 75.56844005604825 0.4499672095952949
1.6719077350157627 12.987667123785963 175.2630746427484 79.15144725959446 0.45841023329575803
1.6958448725642459 12.970124222846126 158.39200582192754 82.92065236224799 0.4671450718222202
1.719325617812575 12.950915476358892 143.3005408044636 86.88881438639443 0.47619337674920853
1.742311878867172 12.929978125789201 129.79875748942803 91.06754443592658 0.48556963114782375
1.7647916052112183 12.90733742216672 117.695986770079 95.4708552682656 0.4952954588941652
1.786719012134156 12.882905325504428 106.8438207476817 100.11248748157678 0.5053886773571342
1.8080583276285813 12.856655520044056 97.10154229594494 105.00892409734618 0.5158748313060976
1.8287700405424263 12.828525405711959 88.34734202082052 110.17670101532647 0.5267764506441971
1.8488496876238039 12.798566891557766 80.47608416329022 115.63340478131775 0.5381167585546325
1.868236868931902 12.766663848686994 73.3947657240648 121.39931597927217 0.5499253665818069
1.886907481100871 12.73281930542473 67.01902495809243 127.49581203201731 0.5622319202738819
1.9048312312974742 12.697011618113901 61.26566630097713 133.94536737335304 0.5750658523341753
1.9219754826373097 12.659201036345662 56.08333587233205 140.77356673616848 0.5884631284864875
1.9382906529974724 12.619321301165636 51.40108851651394 148.00812853142452 0.6024621808528462
1.953789247591517 12.577483406062186 47.1699899465512 155.67760477896164 0.6170989761131902
1.9684080120115486 12.533563445396895 43.34614854387992 163.81556994377124 0.632420886230178
1.9821250025703998 12.487571558159066 39.88625463504115 172.45572716573142 0.6484692621900374
1.9949167308839861 12.439503026891769 36.75048984751483 181.63746950564774 0.6652976482173828
2.0067557698013796 12.389351129893887 33.90910339934376 191.40272720838936 0.6829602482446087
2.017605237553633 12.337086542652017 31.33216812008898 201.79751709746438 0.7015162730422269
2.027444708502652 12.282709020371394 28.996120130512484 212.87183235286844 0.7210285795044048
2.0362584284754113 12.22625259018969 26.874265867941936 224.68101231390725 0.7415670571051887
2.044006072149585 12.167667093166928 24.946046209905543 237.28632494954522 0.763209227986143
2.050668928238939 12.10697128435559 23.19166137136159 250.75454623477881 0.786037446379393
2.0562451662359145 12.044234847897718 21.596606878397647 265.15869981158255 0.8101396830533846
2.0606951628196826 11.97939509647605 20.14472005021001 280.5806526874444 0.8356161093475587
2.064004917610412 11.912507044228567 18.823954271430313 297.10993028455704 0.8625731025091855
2.0661703965245732 11.843617795255053 17.621286116720178 314.84694112315253 0.8911313338880229
2.0671671563878706 11.772736285430582 16.526143439985304 333.90110516682086 0.9214168069171379
