M[M_sun], R[km], Lambda[1], P_c[MeV/fm^3], rho_c[fm^-3]
0.24162668629717493 15.618656898711224 2160425.4255784233 3.5677272577965504 0.1711233750220791
0.2536450462741602 15.277268228909195 1723284.7620979093 3.7848394812455304 0.17388842078843494
0.26604181253566245 14.981238887073065 1383000.052768947 4.011443268214361 0.17666716605386126
0.2788179358558332 14.723460714515406 1116467.5606739533 4.247794093243279 0.17945827831144437
0.29197379194222506 14.498350780389798 905799.6215255635 4.494517401260347 0.18226832854065048
0.30551104236994575 14.30115441442384 738595.9533431309 4.751769615917494 0.1850930390290459
0.3194281912208996 14.12807197817903 605024.8461115694 5.020231732730268 0.18793900016487114
0.3337262606511494 13.975929158316449 497641.676671214 5.3001295408882685 0.1908028688107293
0.34841062181977206 13.841946282531339 410956.61794879736 5.592189728593647 0.19369090243294507
0.36347519148409374 13.723952459543169 340622.49530853063 5.896582032115026 0.1965982092869728
0.37893000131873633 13.619917384451297 283257.56719721464 6.214169565992795 0.1995324496085582
0.394763829260774 13.528379798874951 236371.51569125583 6.545207403827951 0.20248975988302706
0.4109904231605458 13.447795334146583 197836.7229883256 6.89040269434449 0.2054739313081764
0.42759943292728564 13.376999793471109 166049.02025767896 7.250458559824007 0.2084880002484253
0.44459754225003345 13.314854322100201 139773.8397401474 7.625630731096132 0.21152746111123955
0.4619804829904085 13.260532242298948 117960.45126265238 8.016874756438064 0.21459857638253635
0.4797473970722245 13.213091973100248 99791.94382730518 8.424892840959131 0.2177029458186978
0.4979063920869988 13.171926531035613 84622.82961261827 8.85012159032048 0.22083797504168248
0.5164462358549743 13.136360733915554 71923.13522182975 9.293442905562607 0.22400719254585166
0.5353677274994912 13.105794573501349 61262.8509848877 9.75573787388576 0.22721346031015696
0.5546754697116035 13.079787814773074 52290.842002712634 10.237815202311692 0.23045811488729748
0.5743606963843881 13.057827741899168 44717.77458298441 10.740143179393705 0.23373781556518278
0.594419874609878 13.039494461757418 38318.353182400446 11.263975868193254 0.2370588658392793
0.6148595464271723 13.024486562621025 32893.231588517425 11.810246351312092 0.24042281914074404
0.6356653808965042 13.012418851903343 28283.551744670767 12.37993398943882 0.24383130905789938
0.6568382180907928 13.002998635334386 24363.65989191058 12.973719311873438 0.247282189103764
0.6783702888648541 12.99597430267761 21020.55867566151 13.592946290012291 0.2507804353727688
0.7002631806378657 12.991044048954226 18166.666153032915 14.238804946613048 0.25432859322875156
0.7225001246568042 12.987992269598845 15724.010821577209 14.91248543342715 0.25792864817903505
0.7450897829796304 12.98663988577591 13629.826822135696 15.615005161045875 0.26158037184691746
0.7680124201595994 12.986761846147814 11832.341916210611 16.347655222525155 0.2652859060430823
0.7912602530128117 12.988144986845183 10286.423391682383 17.112040431938375 0.2690498224942128
0.8148380085526993 12.99066664649619 8953.26035281251 17.909616445878275 0.272874554982067
0.8387226738055513 12.994140476587374 7804.869289993842 18.741729857538395 0.27676101439994266
0.8629058739855093 12.998413820039994 6811.543941305709 19.609763172128105 0.28071001911487864
0.8873884603387048 13.00337432435078 5953.204860913271 20.51578487162007 0.2847277663435782
0.9121489686782146 13.008854527748724 5209.164595722025 21.461589888886834 0.28881727103321564
0.9371701612294416 13.014761534965213 4563.436382490085 22.448638393813265 0.2929782593380995
0.9624557688122986 13.020969170211801 4002.9472729549425 23.47900464501848 0.29721491947111267
0.9879800956767784 13.027352233745235 3515.1305230699427 24.555088729730844 0.30153316385508305
1.0137243556874502 13.033807994635316 3090.580816850489 25.678804370879593 0.3059344084886786
1.0396900320979283 13.0402693095608 2720.330978666037 26.852171282445617 0.31042034270618013
1.065844808906711 13.046595544314645 2397.132106610747 28.07825966371339 0.3149994943342989
1.0921801848107324 13.052729271995032 2114.752637281733 29.35908989589578 0.3196720671157038
1.1186799970794747 13.058556440545429 1867.5676541094217 30.697488706118857 0.3244432285364051
1.145314123843207 13.06401062529488 1651.3675790101593 32.09678438886837 0.32932054946844963
1.1720792557204291 13.069024812911783 1461.4219817151097 33.55899479101991 0.3343022229116414
1.1989376340114881 13.073476309777346 1294.8352464526836 35.08862759392767 0.33940157737888593
1.2258856219253307 13.077348719418245 1148.5395321763542 36.68766220860421 0.34461510288318553
1.252883874890672 13.080507337925654 1019.6941742036859 38.361194845581196 0.34995750559506167
1.2799281664684365 13.082942158630223 906.295800448441 40.11151503558789 0.35542564351781314
1.306973490062116 13.084524928381766 806.4049566367212 41.944002877938 0.36103353969293084
1.334013124647723 13.085238469866368 718.2681286268845 43.862239156024344 0.3667836643346995
1.361021555387293 13.08503493217688 640.3042048028584 45.87081847085229 0.37268324339663716
1.3879566057169386 13.083765729729075 571.5459515093956 47.97512371815052 0.3787425027701311
1.4148062899078857 13.08145863812812 510.583636948434 50.179969511237594 0.38496738101251093
1.4415385364942317 13.078015680857693 456.65498395399777 52.490470178320464 0.3913642942535047
1.4681345039184073 13.073411394563964 408.8142648585976 54.913098079717706 0.3979452164420509
1.4945454018492093 13.067539924042995 366.3541073281969 57.454046272592265 0.4047192139501386
1.5207579887285776 13.06038678655172 328.6958591407709 60.119946208782295 0.4116960636764447
1.5467416618119132 13.051896941129545 295.13018052330835 62.91790720252726 0.4188863115566311
1.5724587089090218 13.042009147823487 265.32611610746625 65.85555967742788 0.4263013358517401
1.597872508549783 13.030667746489614 238.78647972862896 68.94110257636432 0.4339534157739618
1.622971014203544 13.01784472857286 215.12894193863892 72.18335536580221 0.44185580607754465
1.6477232823123222 13.003494250070363 193.98256935345557 75.59181512000872 0.4500228183185072
1.6720703187180113 12.987555764296408 175.14866871382182 79.17633010994476 0.45846828470094697
1.6960086499629703 12.969992154065702 158.287122290332 82.94728579545863 0.4672062753741691
1.7194869587876864 12.950774972630265 143.19660754398183 86.91733551855444 0.47625796308088697
1.742469899373234 12.929823016172243 129.71535886205518 91.09796513820915 0.4856373060129445
1.76494935721399 12.907167135773435 117.60703792514109 95.50346862611414 0.49536701988349385
1.7868766819003123 12.882725759798339 106.76249115303574 100.14732189335722 0.5054638485065083
1.808213766616366 12.856453886324454 97.03499170065832 105.04616021529976 0.515953902280622
1.8289274583501212 12.828318351203302 88.28587245042438 110.21653588839006 0.5268597347673876
1.8490006583113359 12.798327081657138 80.42110907766207 115.67621629142793 0.5382051923614037
1.8683724739171401 12.766379087457446 73.3443079293895 121.44518202527755 0.5500187330434432
1.8870490304391667 12.732549622038578 66.97113926278365 127.5448743382989 0.5623302066438829
1.904970397087702 12.696720097832541 61.22349237397461 133.9979585780563 0.5751696837016836
1.9221097490865295 12.658888569980393 56.04260495378377 140.83005384294606 0.5885731868514513
1.938420263083197 12.618987107550062 51.36454306599894 148.06884985031988 0.6025789813308154
1.9539133917362286 12.577129194946574 47.14008877577664 155.74273186162495 0.6172223984541501
1.9685246100779379 12.53318906027779 43.312314652845416 163.88549750106174 0.6325515114883351
1.982237083318207 12.487174556087366 39.857177101797674 172.53109913757726 0.6486084282950498
1.9950212402570193 12.439081646474007 36.725834722677405 181.7185591478381 0.6654453541250042
2.0068536947601032 12.388906952750729 33.88455957310131 191.49006116690234 0.6831172495492408
2.017696507463338 12.336617221140036 31.311726912031563 201.89167632810575 0.701683396388573
2.027528558266537 12.282222713796848 28.975880821843027 212.97322093418634 0.7212059527615343
2.036332113798018 12.225736796735871 26.85606078386068 224.7905688083674 0.7417564281140332
2.044071047435899 12.16712857963228 24.929414554216606 237.40458314568892 0.763410869073951
2.0507262990890154 12.106403326216785 23.176448680131777 250.8823606222077 0.7862525093101517
2.056292049862415 12.043640689933255 21.583620795643146 265.2972322508297 0.8103701304959953
2.060732970471056 11.978774851691876 20.132658732741955 280.7305285638146 0.8358619406681105
2.0640312029533456 11.911863564088035 18.81192884563555 297.2725353831972 0.8628365519047454
2.0661856923730797 11.842946156606356 17.61048162863611 315.0235813412363 0.891414100134718
2.0671711502951915 11.7720402089994 16.515405563253818 334.09294567913236 0.9217198036822218
