M[M_sun], R[km], Lambda[1], P_c[MeV/fm^3], rho_c[fm^-3]
0.24162668629717493 15.618656898711224 2160425.4255784233 3.5677272577965504 0.1711233750220791
0.25364075113662987 15.277373945701695 1723301.9192563756 3.784775996511525 0.1738876294818516
0.2660342799379802 14.981385514740877 1383159.4875678269 4.011309811079102 0.17666555330314268
0.27880713779837846 14.723663751064782 1116535.0281829995 4.2475861491031335 0.1794558664727838
0.29195898383791674 14.4985684023672 906055.470126358 4.494229513978052 0.18226512284894697
0.30549083367276825 14.301426450365312 738805.0513174667 4.751392010942458 0.18508896017464557
0.31940388933346453 14.12835185984198 605245.160191266 5.019761629037411 0.1879341226576144
0.3336991846657662 13.976153436904653 497818.17907298455 5.299554562609467 0.19079707973352328
0.34837555932227704 13.842250911500809 411138.18175469676 5.591508440675305 0.19368431078491927
0.3634357630394723 13.724173892420028 340783.750433945 5.895779129298891 0.19659066825381133
0.3788849814481621 13.62020567287165 283405.94446892326 6.213235332822184 0.1995239305269322
0.3947132104829284 13.528643067579758 236507.2214470462 6.54414281079818 0.2024804248403507
0.4109338373857639 13.448078720833305 197954.30824063253 6.889187190674726 0.20546357956885836
0.4275373633991838 13.377235480183177 166157.31952942305 7.249080740379175 0.20847660190126305
0.4445282811274769 13.31509814278238 139868.53154489 7.6240944045058505 0.21151523096372615
0.4619046192172772 13.260731225876572 118037.48694587652 8.015153127016548 0.21458525818708332
0.4796644962214236 13.213304868796836 99864.11453458472 8.42297248492597 0.21768850742593693
0.49781591653674173 13.17212697405893 84692.85338990076 8.848009588717982 0.22082268324769155
0.5163497044408693 13.136527408522305 71982.55768532609 9.291105081650445 0.2239907341197637
0.5352631442267994 13.105947171506001 61313.903074188696 9.753158378097107 0.22719579971658116
0.5545642311326587 13.079904228118163 52335.40598919065 10.234978374560361 0.2304392298648695
0.5742414782651833 13.057937681152831 44759.985605032016 10.737059045890035 0.2337180144727442
0.5942912647557126 13.039596975957538 38353.48718923582 11.26059920348535 0.23703776837707918
0.6147225412500754 13.024566423702954 32925.036337121215 11.806557209606282 0.2404003830039757
0.6355178062350835 13.012498090941419 28083.205600832633 12.375911180656303 0.24380748970859373
0.6566848267431498 13.003078318609662 24390.02315036264 12.969381309261358 0.24725739485971504
0.6782107843111922 12.996007282366051 21044.855326165794 13.58823149720467 0.25075418466958455
0.7000908042467883 12.991093587194943 18187.506410226753 14.233688086160926 0.25430083401107034
0.7223191097485485 12.98800615261469 15742.976254519686 14.906939603862147 0.2578993252876086
0.7449007210653911 12.98665156825859 13645.679542575244 15.609055839473019 0.26154996286137794
0.7678137691574455 12.98674780333228 11845.76179699327 16.341221848752827 0.2652538372883731
0.7910528070348478 12.988125108759828 10298.196717385974 17.105090721467487 0.26901602840556227
0.8146181781863443 12.990644099261045 8964.10910160105 17.902115973923554 0.2728389657789512
0.8384951853115851 12.994103450308494 7814.268242534247 18.73371189033888 0.2767241759892685
0.8626693735167635 12.99837094914057 6820.998751568543 19.601123465216407 0.2806712581987439
0.8871384758918616 13.003306676992421 5961.413294980496 20.50648184666657 0.28468699904577516
0.9118904463300058 13.008805037694847 5216.168037036615 21.451579120560883 0.2887744078222322
0.936903302234857 13.014692933151025 4569.837193118902 22.43796158107978 0.29293391393645996
0.9621742126627675 13.02089260122829 4008.515032593368 23.467527813588287 0.2971683086485758
0.987693293161588 13.027276824121568 3520.2721171504045 24.542757865197515 0.30148417918402837
1.0134327406792716 13.033749275286338 3095.361394296591 25.665667201338206 0.30588370962134237
1.0393838728095663 13.040196283691305 2724.367082853438 26.8380672189108 0.31036706009385795
1.0655308650136364 13.046523463482819 2400.920571766247 28.06312269317743 0.31494349609822714
1.09185403015469 13.05264479706033 2118.057054209216 29.342973662569285 0.3196140585711461
1.1183441379225603 13.058485535325815 1870.6730175867501 30.6802008185588 0.3243822443928098
1.1449700055853989 13.063948771763789 1653.8440879257892 32.0783812666865 0.32925731815326736
1.1717256708105828 13.068957712368167 1463.828888587216 33.539260591417836 0.3342357166243013
1.1985742846731187 13.073428209866773 1296.9567682767274 35.067469187563695 0.3393316122650972
1.225514123888505 13.077300671032964 1150.34687855015 36.66514099013175 0.3445424529186031
1.2525041997470725 13.080469133282044 1021.3698724085652 38.337107816984116 0.3498813545071461
1.2795393499056955 13.082909682572582 907.8013407602436 40.08581294699594 0.35534612984222264
1.3065780637778999 13.084507909755969 807.8064629973561 41.91663559015578 0.36095080423583925
1.333608898378088 13.085229682953125 719.4710191480315 43.8328998746447 0.3666964528172802
1.3606127177904561 13.08503919545668 641.431710606043 45.83956866505027 0.37259237320633015
1.3875388804704563 13.083797999153752 572.5232800992835 47.94182992749247 0.37864773789444883
1.414389653798253 13.081516061773655 511.4733086662439 50.14426670696925 0.38486733782042065
1.4411172992244579 13.078097889767928 457.4542337625801 52.452415031239546 0.391259809077652
1.467699808739789 13.07349954156839 409.5387121986831 54.87252210792638 0.397835993223418
1.4941067464056181 13.067648186336669 367.0431793190391 57.41076734802303 0.404604933744685
1.520315920781454 13.060521161212442 329.27328971613576 60.07376733552665 0.41157638277594544
1.5462962331741503 13.052053423106308 295.6858015890214 62.86861517327509 0.4187608594232942
1.5720107024639756 13.042191916326015 265.81884693591223 65.80292359444515 0.42616971284662436
1.597432846834858 13.030888654591777 239.24120885878017 68.88487222178499 0.4338151906568676
1.6225194731899713 13.018089738891762 215.5171378674789 72.12325940413957 0.44171051325338984
1.6472721622618305 13.003774515395303 194.36534943789414 75.52755911367058 0.4498699548021879
1.671620747697407 12.98786817819988 175.4725304129698 79.10792979141291 0.4583087075403626
1.695559455105661 12.970346276619962 158.59043099641943 82.87407391688994 0.4670380346904458
1.7190318429598517 12.951153570179223 143.4825322910443 86.83893526446168 0.47608042507902576
1.7420300827492632 12.930256025094517 129.96723236461986 91.01434387282274 0.48545127947734107
1.764517240575302 12.907642976899588 117.84487300464514 95.41382092939874 0.4951703128195423
1.7864423822633932 12.883231078831546 106.96910761340757 100.05156971063629 0.5052572194502873
1.8077853234424017 12.857005223894358 97.22506333987661 104.9438070998697 0.5157365552254657
1.828512472411198 12.828930877715248 88.4563467128579 110.10682907675327 0.526630022341679
1.8485857671617967 12.798978232028794 80.57576234500806 115.5585399216482 0.5379621135884322
1.867979488269757 12.76710759906561 73.48683961759129 121.31911075401246 0.5497620981351142
1.8866573783110596 12.733299735311311 67.10345354036338 127.40981628516437 0.5620593274961202
1.9045877525378665 12.697520485582086 61.343996605520765 133.85340451435422 0.5748842890962974
1.9217400699879754 12.659748320468994 56.15235231293387 140.67479289562945 0.5882706794833243
1.9380710162371597 12.61992953807901 51.46332863819373 147.901952411066 0.6022579458027452
1.953565190333876 12.578077872869285 47.22908237284899 155.56372650706223 0.6168831653885651
1.9681998468481063 12.534217204545909 43.39910546841357 163.6930518118019 0.6321916453540919
1.9819302663234082 12.488268609219539 39.933912127450476 172.32393949335759 0.6482259306623651
1.9947314658405837 12.440236611894973 36.79622309895527 181.49568684945103 0.6650393891431927
2.006578398921275 12.390114313869976 33.95143987516022 191.25002918747083 0.6826857411810661
2.017446424767281 12.33790471960629 31.370449340715613 201.63288844578267 0.7012240734247692
2.0272995514768635 12.28357035890344 29.03225085993696 212.69456686077598 0.7207184641314466
2.036128073918588 12.227155678371448 26.906188261382596 224.48946990633954 0.7412359714937299
2.043891040563065 12.168617804179386 24.97523130180743 237.079572790356 0.7628566965621485
2.050571098651776 12.107964954137715 23.21880203924754 250.53066297565633 0.7856600619541548
2.0561572003440327 12.04524750707282 21.621107540302646 264.9164256224838 0.8097365247268906
2.0606313879167057 11.980476179743414 20.167460074209522 280.3184198095921 0.835185630643436
2.063965683393858 11.91364943878629 18.84547910093293 296.8256691813958 0.8621125485878429
2.066143704787944 11.844790141195313 17.64077313933593 314.5381512256148 0.8906370219963634
2.0671607308553797 11.77395897235243 16.544498280318997 333.565750640699 0.9208871412310589
