M[M_sun], R[km], Lambda[1], P_c[MeV/fm^3], rho_c[fm^-3]
0.24162668629717493 15.618656898711224 2160425.4255784233 3.5677272577965504 0.1711233750220791
0.2536445704413689 15.277258677227435 1723226.7380855642 3.784829430275618 0.17388829550794374
0.26604033579413494 14.981274444875506 1383009.9321185378 4.011422138928622 0.17666691071891277
0.2788170636085977 14.723460231025166 1116379.028317704 4.247761170659913 0.1794578964590906
0.2919713545720312 14.498388680345517 905845.8827829292 4.494471821315626 0.18226782099738745
0.30550762077023036 14.301195285075366 738618.2678012192 4.751709830788065 0.18509239323554644
0.31942470695751013 14.128110936659203 605068.6387419224 5.020157301867235 0.1879382279159395
0.3337226614842547 13.975957672359218 497666.935131032 5.300038504529629 0.19080195222565446
0.34840519754682386 13.84199223843122 410984.8780401537 5.592081859283597 0.1936898587676965
0.3634691283389432 13.723939926449345 340651.8506424722 5.896454906183047 0.19659701529331697
0.37892279058853867 13.619971252316349 283284.76808681694 6.214021644807708 0.1995311007454589
0.3947557047836276 13.528438361696772 236398.68649468684 6.545038840810005 0.20248828181307715
0.4109812709309031 13.447835126773153 197852.36940650846 6.89021023508834 0.20547229224438862
0.42759040532726245 13.377017227237483 166065.42675900503 7.250240398046364 0.2084861954519489
0.4445860699920507 13.31490119937767 139796.16689888982 7.625387469626177 0.21152552459352209
0.4619683527492009 13.260546944366155 117973.59109363805 8.016602151814215 0.2145964675653795
0.479733180480588 13.213144030976022 99796.80769985286 8.424588767130997 0.21770065960859766
0.4978917276366498 13.17196115936889 84633.45156302475 8.849787168334151 0.22083555368361393
0.5164303689619818 13.136388341953543 71929.33560235907 9.293072722903444 0.22400458643685295
0.5353500874547967 13.105830242699692 61269.28584734039 9.755329420235478 0.22721066382026
0.5546585114151128 13.079805807175239 52301.642150302876 10.237366967298248 0.23045513696071077
0.5743417868779775 13.057828246197888 44724.46194609973 10.739654810542635 0.23373468008588116
0.5943994139299961 13.039520364374596 38321.63742506624 11.263441172893152 0.23705552505336824
0.6148375099820974 13.024486782561603 32897.127320986576 11.80966217034647 0.24041926634578864
0.6356426579576556 13.012423314491702 28056.971900592005 12.379296966474817 0.2438275371976605
0.6568142078678884 13.003029090729191 24368.330949525985 12.973032372253734 0.2472782628385906
0.6783466557823292 12.995972754110824 21025.140866310725 13.592199677977588 0.2507762784369889
0.7002356158107901 12.991049410285443 18170.04070338851 14.237994658314218 0.2543241973751843
0.7224704996999326 12.988003088096344 15727.415245527054 14.911607207733569 0.25792400466874343
0.7450596847865438 12.986644906527003 13632.05447228224 15.614063032714245 0.26157555631182455
0.767981351816044 12.986762773853275 11834.658101915355 16.346636431687564 0.26528082762627847
0.7912271216907325 12.988149155091527 10287.468348079923 17.110939864661876 0.2690444708082305
0.8148016496059338 12.990666110823796 8954.844260978452 17.90842864914779 0.27286891897151233
0.8386869841253123 12.994136894918299 7806.651091619224 18.740460100021092 0.27675518052114084
0.8628679179332323 12.998415971682094 6813.03116816505 19.608394941851415 0.2807038807285248
0.8873506547859027 13.003363646646038 5954.537958338234 20.51431158223119 0.284721310161039
0.9121068966310656 13.008851157655227 5210.1898398960875 21.460004502969234 0.28881048286982364
0.9371280071870005 13.014749480967408 4564.589470868015 22.446947516020764 0.2929712363943893
0.9624129094225035 13.020955989273455 4004.073810652208 23.47718705325469 0.29720753769090075
0.9879345865240347 13.027338269572457 3515.9836699452285 24.55313586731577 0.3015254060597753
1.0136780997141075 13.033795165636123 3091.5740970612533 25.67672379776151 0.30592637915632015
1.0396429153217646 13.040250757441147 2720.965212628833 26.84993755970924 0.31041190410390757
1.0657949120342873 13.046584459112267 2397.740967714912 28.07586233359368 0.3149906255677471
1.0921262772798073 13.052715834493991 2115.255361149899 29.356537455815232 0.31966287989862
1.11862656346515 13.058546337650553 1868.2634896908105 30.694750678176764 0.32443356996541955
1.1452585553595296 13.064001636082484 1651.800238806288 32.09386971038665 0.32931053492027074
1.1720230806137582 13.069010845591402 1461.778754052867 33.555869268150836 0.33429168957731775
1.19888006396143 13.073470624911241 1295.163768245538 35.0852764723269 0.33939049612824335
1.2258265639463912 13.0773345670569 1148.820988274408 36.684095214116745 0.34460359631112786
1.252823925001625 13.080500957737192 1019.9780360866149 38.35739750026391 0.3499455481186959
1.27986673379945 13.082935145930747 906.560004860969 40.10744417191023 0.3554130496255821
1.3069107170582064 13.084522293915086 806.6392865422498 41.93966823451494 0.36102043540916734
1.333949058957189 13.085234087836586 718.4456515598156 43.857592126535245 0.3667698509597912
1.360958005372345 13.085030701061566 640.4874340906114 45.86586879368469 0.3726688504077966
1.3878895798685362 13.08377022580414 571.680309492799 47.96985024842838 0.3787274927729888
1.4147394702578553 13.081463746996265 510.74618683251936 50.174314413974585 0.38495153480677535
1.4414708092377695 13.078028107526945 456.7870773013952 52.484442432129306 0.39134774432086517
1.468065414208546 13.073424731825929 408.9262218744084 54.9066709899948 0.39792791587240367
1.4944755559312959 13.067559210187321 366.44826469638804 57.447190982219155 0.4047011122066207
1.5206874976936087 13.060407995253033 328.7626885433346 60.11263150448734 0.41167710629755716
1.5466714222926885 13.051919891638452 295.2195823292179 62.91009930192477 0.41886643982884214
1.5723875606425302 13.04203640885763 265.40569560717637 65.84722199458096 0.4262804864493943
1.5978121455072156 13.030705697420473 238.86311567870976 68.93219546345755 0.4339315203629561
1.622899277345132 13.017881229302942 215.18376632485027 72.17383582821476 0.44183279087881144
1.6476517813906286 13.003540471416883 194.05549050966454 75.58163650173891 0.44999860362685945
1.6720000302865994 12.987601926066779 175.19246077951632 79.165494905978 0.45844300629405527
1.695937506326444 12.970048965997872 158.33194573292062 82.93568827150386 0.4671796242978985
1.7194177035484226 12.950835590200029 143.24803112837458 86.90491596237293 0.4762298388966737
1.7423966353883105 12.929884544766333 129.76445110387544 91.08471838067592 0.48560783685338926
1.7648814042506467 12.907240874615653 117.65401109613542 95.48926703125308 0.49533585841330663
1.7868084914650741 12.88280051796642 106.80272018836996 100.13215309465527 0.5054311148969891
1.808146008633445 12.856541150952651 97.0622287212911 105.02994554045456 0.5159194703846008
1.8288555631857215 12.82840261856165 88.30982217343251 110.19918952412179 0.5268234681339702
1.8489349564254618 12.798430693778236 80.44532173654117 115.65757367083646 0.5381666831403356
1.868310568254233 12.766489685932322 73.37178182879614 121.42520922449471 0.5499780757402642
1.886990048850513 12.732665271163496 66.99626864486636 127.52353515163892 0.5622874979512864
1.904911199881749 12.696846543237816 61.2443199206601 133.97505711361515 0.5751244691000352
1.9220512640666065 12.659025658668138 56.06173909637682 140.80545578335787 0.5885252604772042
1.9383646519988036 12.619133341148403 51.380231679937104 148.04240786000034 0.6025281188468647
1.9538594428653784 12.57728571640397 47.154190242032854 155.71437123076345 0.6171686522197284
1.9684749471699594 12.533350705812037 43.330341674891315 163.855046330625 0.6324946284488924
1.9821872397934492 12.487345168127359 39.87099430531641 172.49827698326976 0.6485478257758212
1.9949760726872365 12.43926527428837 36.736794085928956 181.68324700558662 0.6653810325682625
2.006811297600353 12.389100278019491 33.89532072377442 191.4520296753019 0.6830488798806715
2.0176570370868654 12.336821037671243 31.32085536157945 201.85067247164847 0.7016106185880583
2.027489700786635 12.282433923313812 28.98365185182594 212.92906873281126 0.7211287111267709
2.036299916978009 12.22596225949473 26.86368931216822 224.74285949617453 0.7416739614321103
2.044043132952398 12.16736160551932 24.93563466843592 237.35308424919054 0.763323058724652
2.05070063435357 12.106650976902769 23.18256765762734 250.82669999048383 0.7861588536675654
2.0562717896649385 12.043899159263432 21.58974407627796 265.23693168268954 0.8102698654320826
2.0607160901598958 11.979045606086029 20.13782105093926 280.66526004311106 0.8357548851030415
2.0640198849924962 11.912145971669784 18.817646051223296 297.2017231767363 0.8627218234420687
2.066179014276555 11.843238652085935 17.615197583221544 314.9466566840417 0.8912909588884651
2.0671698718116667 11.772340674178462 16.520692177655157 334.00940109852354 0.9215878516906443
