M[M_sun], R[km], Lambda[1], P_c[MeV/fm^3], rho_c[fm^-3]
0.24162668629717493 15.618656898711224 2160425.4255784233 3.5677272577965504 0.1711233750220791
0.25364505385046593 15.277297091540294 1723238.2736919676 3.7848564212827958 0.1738886319378273
0.26604353920765134 14.9812098511962 1382830.494561852 4.011478879971444 0.176667596400929
0.2788215092712639 14.723378395995383 1116403.2233709954 4.247849581951461 0.17945892189683957
0.29197839308061546 14.498274399606366 905752.0397299092 4.494594223430384 0.18226918397334332
0.3055157681918963 14.301087945133109 738531.3961940301 4.7518703805319875 0.18509412747919457
0.31943539572074914 14.127972132426024 605002.3875340768 5.020357182512513 0.1879403017547811
0.3337365128557729 13.975758165857693 497577.6616048463 5.300282979188824 0.19080441367981574
0.34841971507036684 13.841869665781463 410908.8039127289 5.592371538988115 0.19369266149852588
0.3634852271661155 13.723832725626078 340565.8585144245 5.896796299937429 0.19660022173570474
0.37894154834767757 13.619869594960385 283234.7146850448 6.214418884872532 0.19953472309654194
0.3947786285350825 13.528281161780145 236330.86544868135 6.545491515384044 0.2024922511575581
0.4110056675992969 13.447723498334613 195313.8522914121 6.89072708426232 0.20547669394884158
0.4276168114228035 13.37693889516863 166024.10310605573 7.250826272956994 0.20849104224493767
0.4446155297019756 13.314800282668127 139750.66242117932 7.626040751561814 0.21153072513778867
0.4619986154730576 13.260456073696938 117931.68963497791 8.0173342371937 0.21460213083765542
0.4797687223519039 13.213050597717567 99770.57240352676 8.42540536594518 0.2177067992900961
0.49792960071968095 13.171886764655017 84603.89450303471 8.850685270138408 0.22084205632440615
0.5164726787775925 13.136305727101545 71908.27318788208 9.294066863913157 0.2240115852515388
0.5353944239211208 13.105770500574387 61244.423124001536 9.756426342542513 0.2272181739310088
0.5547056684368392 13.079749622592532 52279.58570932252 10.238565303410487 0.23046306460684726
0.5743923698703941 13.057791920349862 44707.43983464037 10.7409663555791 0.2337431006112811
0.5944540799585936 13.039459122924852 38305.584089524586 11.264877134317926 0.23706449696633583
0.614895353333468 13.02446403954373 32885.25053178917 11.811231033134229 0.240428807649128
0.635703669276231 13.012395354041269 28275.41941342114 12.381007745041513 0.24383766684449876
0.6568781277387171 13.00299331182183 24356.277960939515 12.974877210301656 0.2472888071763611
0.6784157468132735 12.99595196778247 21015.24464254147 13.59420477695188 0.25078744229087957
0.700309311404481 12.991045551372252 18161.461670362758 14.24017077181986 0.25433600289715763
0.7225487316700399 12.987998802662258 15719.531793166243 14.913965780423085 0.25793647533162356
0.7451404750951904 12.986637832297852 13625.361051563797 15.616593228581666 0.26158848899475357
0.7680656202091358 12.986761630159803 11827.913316120841 16.3493725209293 0.2652944663449136
0.7913158923730017 12.988146481320454 10282.932277353279 17.113895582530176 0.26905884346333403
0.8148945160926369 12.990689238585851 8949.91051669422 17.91161864166628 0.2728840552579172
0.8387841270869649 12.994141766646468 7802.169691178532 18.743870217005423 0.2767708482442419
0.8629690431113164 12.998420475739282 6809.223749747784 19.61206953148152 0.2807203662947527
0.8874552154258504 13.003382193729438 5951.170065884444 20.518268334675977 0.28473864926375625
0.9122167784197522 13.008885393802007 5207.45503737996 21.464262319966057 0.2888287136091956
0.9372422671084867 13.014774343208586 4562.257873431733 22.45148865893514 0.2929900977167209
0.9625297723825206 13.020987873827975 4001.4283807128068 23.48206852167841 0.2972273627845951
0.9880564750058992 13.02736586444235 3513.814651854167 24.558380643782574 0.30154624106686556
1.0138045778096343 13.033825134594958 3089.670110771369 25.682311577632714 0.30594794347498877
1.0397727141470625 13.040287848140464 2719.2224509785447 26.855936669162993 0.31043456765916694
1.065930048931214 13.046616405342977 2396.3770314894205 28.082300861601716 0.31501444448253535
1.0922072902100275 13.052719308091284 2114.697538366105 29.359147905261143 0.34792891037024587
1.1057005391958474 13.04663758980375 1971.9708759405155 31.023659732183205 0.8678192734333611
