M[M_sun], R[km], Lambda[1], P_c[MeV/fm^3], rho_c[fm^-3]
0.24162668629717493 15.618656898711224 2160425.4255784233 3.5677272577965504 0.1711233750220791
0.25363897415844866 15.277430687468511 1723225.8886223799 3.78474714091477 0.17388726981075847
0.26603145743341977 14.981456037553667 1383291.3252722435 4.011249152108327 0.17666482027527936
0.2788023234840483 14.723752974401211 1116650.6249305229 4.247491635860223 0.17945477026159448
0.2919516141361292 14.498700327158053 906180.2404173007 4.494098667697411 0.1822636658452442
0.30548287178517086 14.301501336990922 738860.4964548649 4.7512203903350825 0.18508710634454306
0.3193942734373259 14.128436270283428 605294.7887157467 5.019547971309623 0.18793190587622427
0.33368622501335266 13.976249731589114 497916.0312366422 5.299293244573034 0.19079444869450143
0.3483614777698747 13.842347522982006 411209.9800458083 5.591198811330928 0.19368131503583633
0.3634164502185015 13.724346619972668 340836.75693179935 5.8954142345850356 0.19658724108543885
0.3788632509429906 13.62035929832894 283461.92128226603 6.212810759121263 0.1995200589259998
0.3946909410494269 13.52876048761321 236559.84753872524 6.543659000366233 0.2024761824764584
0.41090814425734856 13.448198558328663 198009.54597000428 6.888634806493353 0.20545887523337075
0.42750774459680607 13.377366158465547 166214.53047170726 7.248454601520824 0.20847142201495356
0.4444960130733227 13.315207421186097 139917.95647703513 7.623396242878605 0.2115096731482568
0.46187024090390244 13.260820616822999 118079.39163552415 8.014370768884158 0.2145792060144199
0.4796274735803731 13.213387406152057 99911.23002191703 8.42209983268792 0.21768194630105225
0.49777608336487816 13.172217559120549 84722.40488504514 8.847049861065369 0.22081573440942653
0.5163054150627704 13.136608836202045 72014.49205296708 9.290042752314532 0.22398325525501037
0.5352147217011959 13.106030446564228 61338.06252945323 9.751986247954392 0.2271877746931795
0.5545114043750745 13.079998213269118 52358.310409968995 10.233688807204922 0.23043064184934414
0.5741849347858696 13.057968295682505 44779.37160132133 10.735657645030603 0.233709017045127
0.5942358841333136 13.03967118267517 38370.6770728107 11.259064901466278 0.23702818203029882
0.6146614253073526 13.024621400789613 32941.107763958054 11.804880947334388 0.24039018853258073
0.6354531199424736 13.012530887394492 28327.29597351596 12.374083334070182 0.24379666689332566
0.6566155658421334 13.003085094877992 24402.011661558936 12.967410271802624 0.24724612921786288
0.6781366325008708 12.996031717456502 21054.49193758341 13.586089290229006 0.2507422574350756
0.7000141770299279 12.991101116512702 18196.332380088195 14.231363229763334 0.25428822155164876
0.7222376786955665 12.988024233433785 15750.627458806235 14.904419880792927 0.25788600256192484
0.7448141883569315 12.986649574464602 13653.089816425863 15.606352823867425 0.2615361468385833
0.7677234110512484 12.98675359642902 11852.338972511403 16.338298950981297 0.26523926737607006
0.7909578670470448 12.988109522113561 10235.174820138338 17.101933280294656 0.2690006748383381
0.8145208230806317 12.990633507854998 8970.058570956126 17.898708356432707 0.2728227968776135
0.8383902777551164 12.994102690687244 7818.904500515621 18.73006920744243 0.2767074397461341
0.8625613981643496 12.99835032823724 6825.093926451632 19.5971983739424 0.28065364878962296
0.8870243485489077 13.003293756021016 5964.993330610863 20.502255466483195 0.284668478392501
0.9117738056064049 13.008773344704263 5219.477590996877 21.447031278498663 0.2887549352795177
0.9367819790586878 13.01466043380481 4572.818591359729 22.433111216456613 0.29291376828319415
0.9620486979305903 13.020860440898971 4011.213543194818 23.46231408659 0.2971471341540865
0.9875625358348146 13.027244812951949 3522.5682403060296 24.537156249857187 0.3014619266254929
1.01329756866495 13.033712921676095 3097.335677452481 25.65969937363346 0.305860678624891
1.0392429926195619 13.04015892277999 2726.197455106775 26.83166025752678 0.31034285574744774
1.0653881404811638 13.046492395230386 2402.4574859338927 28.05624662565306 0.31491805853451116
1.0917052553460447 13.052615620780184 2119.537879089067 29.33565284981432 0.3195877081402302
1.1181920724945194 13.058455630031348 1872.0216192780474 30.672347903912012 0.3243545427275371
1.1448121969058473 13.063914093704355 1655.0213312616465 32.069967117410705 0.3292282418948339
1.1715643746129911 13.068931197380206 1464.8134590840743 33.53029671231861 0.3342055074275223
1.1984145078922077 13.073411215818002 1297.9073363603536 35.05785854566614 0.3392998324777929
1.2253459744032333 13.077270285617612 1146.1342980918687 36.654911462376084 0.34450945404556016
1.2523313977498711 13.08044438234901 1022.1487289178361 38.32614177593317 0.3498466164930919
1.2793631039127242 13.082899579284092 908.5184617649393 40.07413896544373 0.3553100144433254
1.3063976957369037 13.084509281986497 808.3711787416445 41.90420544101581 0.36091322601182985
1.3334262096679863 13.085224404234918 720.011894872688 43.819574281312484 0.36665684226240747
1.3604260234900525 13.085045699909777 642.0112525821007 45.825375534647925 0.37255110151111115
1.387348676935623 13.083808074462143 572.9698886134902 47.92670867424692 0.37860469792646523
1.4141962847007299 13.081538343061395 511.8778111327402 50.128051629450326 0.38482190138627415
1.4409224775998422 13.078123772611983 457.8345328903444 52.43513185602124 0.3912123559539487
1.4675039183024141 13.073537595880016 409.88702301627546 54.85409435623388 0.39778638903002067
1.4939074564395785 13.067694643184009 367.31972178499575 57.391112348619856 0.4045530337173081
1.5201147858230961 13.060582987129198 329.5431582501697 60.05279567052846 0.4115220309138275
1.5460943439439114 13.052126133759987 295.9397528262481 62.846230068689515 0.4187038875524292
1.5718071116530126 13.042278418759057 266.04831661209454 65.7790202492855 0.4261099395894984
1.5972244547790506 13.030975718863361 239.44065014499904 68.85933706885784 0.4337524202985837
1.6223151478745599 13.018205036712201 215.71474921974402 72.09596929475535 0.44164453449285035
1.6470665064898784 13.00390013059525 194.52519474185812 75.49838041756917 0.44980053937564857
1.6714213747664215 12.98800893713961 175.62929229082485 79.07677105888435 0.45823583280230396
1.695355542086326 12.970506507696458 158.72957428029844 82.84082949489692 0.46696163910552935
1.7188195879639048 12.951297255546256 143.60565946274676 86.80333556973302 0.4759998092858484
1.7418358094235864 12.930466604804947 130.0801168928911 90.97637408235035 0.4853668106697175
1.7643161342170384 12.907859006287719 117.94870753242911 95.37311555697126 0.4950809961433684
1.7862453767003477 12.883463570650466 107.07020596916374 100.00809332187613 0.5051633992895127
1.8075891156234243 12.857255849546084 97.30940360434317 104.89733441420395 0.5156378703800439
1.8283181735235319 12.829207908887359 88.5324563322183 110.05691792428767 0.5265253507474573
1.848398187209453 12.799271509479535 80.64596346719043 115.5051120612057 0.5378517500652952
1.867795685094359 12.767427490850347 73.55007072566988 121.2618725800881 0.5496455821884548
1.8864780154679248 12.733641716876201 67.16038720875086 127.34844669818608 0.5619361592247313
1.904414264256167 12.697884858664523 61.39798560886344 133.78777752724855 0.5747547210467522
1.9215536442440602 12.660077709508665 56.204357815150374 140.6043066148069 0.5881333454037041
1.9379085002569476 12.620346594720266 51.51210906617086 147.82618509136668 0.6021122035936444
1.9534159307958845 12.578532718991445 47.27440469448672 155.48246423782248 0.616729165253888
1.9680521424820492 12.534689322665464 43.43674891145275 163.60554740729697 0.6320277991293436
1.9817910854155973 12.48876541554921 39.96853864287753 172.22990066005417 0.6480522982386637
1.9945992028951136 12.440760748726294 36.82879764544616 181.39451778931542 0.6648551082973672
2.006455649634983 12.390666647412058 33.98171865966409 191.1410735069713 0.6824898702475053
2.0173402019070608 12.338506368022712 31.399984342405155 201.51542210351914 0.7010155822543507
2.027195855443757 12.284183606153325 29.056205602171406 212.5680613964035 0.7204971125306815
2.036021616759041 12.227766076326644 26.928347507070566 224.3528053685747 0.7409997435866822
2.0438084570003996 12.169293758212747 24.995288444959233 236.93205913957206 0.7626051722367271
2.0505003738026515 12.10867505986488 23.238788136390777 250.37091561192776 0.7853907640080271
2.0560994908192596 12.045987907099876 21.639302012335012 264.74357535313766 0.8094488918363096
2.060585481039146 11.981250673676302 20.185037242377103 280.1311534769719 0.8348779227925903
2.0639335358026054 11.91445568672831 18.860514420671613 296.62287249792587 0.8617839816232857
2.066123669682624 11.845628610650213 17.654019940716335 314.3178606993263 0.8902843801915873
2.0671542195710173 11.774830943527444 16.556584407537876 333.3265147189381 0.9205092872026681
