M[M_sun], R[km], Lambda[1], P_c[MeV/fm^3], rho_c[fm^-3]
0.24162668629717493 15.618656898711224 2160425.4255784233 3.5677272577965504 0.1711233750220791
0.25363756889351746 15.277457421196633 1723358.353351123 3.784713629779689 0.173886852110626
0.266026939489209 14.981570916512554 1383364.1271863964 4.0111787072924 0.17666396899125256
0.27879642106598973 14.723878333363393 1116808.1056547011 4.24738187645064 0.1794534972178472
0.29194394374754645 14.498800715649427 906261.1449839174 4.4939467159494 0.18226197382726392
0.3054738935568798 14.301580635094462 739033.7146493983 4.751021089597057 0.18508495351620122
0.31938007437683386 14.128619443311935 605406.0392444852 5.019299856038263 0.18792933158452022
0.33367056852944604 13.976422266082439 498020.7330768804 5.298989785901455 0.1907913933692076
0.34834299670366503 13.842470972129753 411286.13694153476 5.590839254226319 0.19367783622193846
0.3633968406259857 13.724460953921742 340928.8007309858 5.894990505068939 0.19658326132815293
0.3788416127492792 13.620455537137378 283551.054016916 6.2123177333141335 0.1995155631242805
0.3946636272167009 13.52891440737387 236644.26915311217 6.543097192769953 0.20247125618280393
0.4108789590193981 13.448324973167049 198067.05408773225 6.887993376712267 0.20545341254818947
0.42747580231592286 13.377494000657842 166269.81834036045 7.247727535114216 0.20846540718090284
0.4444603510540906 13.315325728658639 139961.88136256204 7.6225855517893795 0.21150321952591392
0.4618280433828627 13.260962446563482 118120.16230309058 8.013462319710449 0.21457217842561166
0.47958388903311444 13.21349320952928 99940.33855157586 8.421086547093209 0.2176743278099273
0.4977283341717242 13.172303467470053 84760.68450277773 8.845935477165373 0.22080766579385097
0.5162544075999521 13.1366913153143 72044.29066010226 9.288809245133379 0.22397457128755482
0.5351603328731427 13.106105788398311 61366.81505484751 9.750625260748551 0.2271784566543558
0.5544543498925515 13.08003952891242 52382.47401424415 10.23219147574032 0.2304206702059008
0.5741214989514597 13.058039781172438 44800.55029896779 10.734030476192784 0.2336985701171544
0.5941686557789254 13.039715710418566 38391.21404072326 11.257283438304238 0.2370170514162245
0.614587440040524 13.024674669441856 32957.195140415046 11.802934674522549 0.24037835194660026
0.6353761065466124 13.012559462410119 28344.937668213257 12.371961080629308 0.24378410087322475
0.6565292718617889 13.003106514409257 24415.347676575722 12.965121782880123 0.2472330491536209
0.6780513224468312 12.996054027894349 21067.924116823684 13.58360208773779 0.250728409357966
0.6999245362970631 12.99110838271919 18070.985362742187 14.228663989012253 0.25427357803883766
0.7221411290816542 12.988042708612474 15759.447103881203 14.901494421424877 0.2578705345554857
0.7447137599896912 12.986655418804522 13661.131864587594 15.603214582732882 0.2615201062315811
0.767619172600909 12.986753929742171 11859.893934049083 16.334905456463485 0.2652223516570166
0.7908477011988646 12.988113477642523 10310.540045981885 17.098267515897124 0.26898284946740486
0.81440579994037 12.990612058386128 8976.280392158513 17.894752178099917 0.27280402509430474
0.8382725379012601 12.99407138182565 7824.325969969043 18.72584015659834 0.2766880094456752
0.8624351919670236 12.998321173602172 6829.707592450264 19.59264149996023 0.280633204969935
0.8868942666126104 13.003256535344644 5969.25435964708 20.49734885675826 0.28464697686790447
0.9116374128984093 13.008749537431312 5223.369175961057 21.44175152072491 0.2887323288856796
0.9366412490628825 13.01463570086971 4576.367915776021 22.427480294604017 0.2928903806395792
0.9619026478201937 13.020817744330097 4014.621705967566 23.45626138831195 0.29712255234794743
0.9874106689211384 13.02721525860863 3525.2273860644254 24.530653311855257 0.30143609353990086
1.013138536612096 13.033673391104116 3099.682152647455 25.652771355129772 0.30583394206722425
1.0390828473435465 13.040114061832798 2728.419951317529 26.82422252769801 0.31031475734346325
1.0652206550290535 13.046450189797753 2404.3441748096375 28.048264401620187 0.31488852881687657
1.0915331547044773 13.052577388112244 2121.2362975074657 29.327154405696557 0.3195571189594775
1.118014748850282 13.058414137599424 1873.5410610733395 30.66323186003698 0.324322385292063
1.1446298540728967 13.063877585922867 1656.5410014674621 32.060190745004114 0.3291944313959494
1.1713782429806165 13.068898160926986 1466.2532393480215 33.51989120886064 0.33417043980801664
1.1982231312797964 13.073383217592031 1299.0318905157606 35.046702385134836 0.3392629420793578
1.225149131175969 13.077252351117226 1152.238775196515 36.643036996895106 0.3444711488580463
1.2521304983995953 13.080430180306776 1023.0617172529257 38.31341250625336 0.3498062929572796
1.2791569508587477 13.082887110836879 909.308489009629 40.06058805008929 0.35526809243828705
1.3061889835568423 13.084494159969555 809.1064292203379 41.8897769167442 0.3608696063970449
1.3332119929111168 13.085228745355714 720.7258531558933 43.804106533997945 0.3666108641180588
1.3602087380439658 13.085047416369502 642.5713170927136 45.80890094857393 0.37250319565271134
1.3871283627169573 13.083823552904303 573.4300645383929 47.90915694812014 0.3785547400480879
1.4139672040251032 13.081542764902647 512.4278472175578 50.10923049567189 0.38476916249529514
1.4406952678222837 13.07815938713318 458.2365608027793 52.415071166870476 0.3911572768176314
1.4672701542730677 13.073570820478604 410.2939871059419 54.83270537301749 0.3977288137339269
1.4936759971213813 13.067750874501552 367.66522082535494 57.36829914901115 0.4044927943013733
1.5198806840351387 13.060652948396145 329.8670004649028 60.028454505827796 0.411458946383929
1.5458595241172026 13.052207441568362 296.2285670076076 62.82024865699414 0.4186377627940507
1.5715708567271283 13.042376676271909 266.31293672423914 65.7512769974374 0.426040564172997
1.596986134494605 13.031088542699058 239.6744014082151 68.8297002151678 0.4336795671643245
1.622079949503023 13.01832315887443 215.91862494619193 72.06429596352321 0.4415679585030868
1.6468285351229588 13.004043944628174 194.72311447417016 75.46451557530185 0.4497199757184343
1.671182845331062 12.988174820516354 175.80295626195385 79.04054636085493 0.4581509952309428
1.6951059579315415 12.970664315990167 158.89874262392792 82.80224685904547 0.46687297632071356
1.718602475496488 12.951540013155414 143.74749119844063 86.7620200053858 0.4759062498602464
1.7416013256232432 12.93068997323569 130.21344858796 90.93230838345963 0.4852687807096863
1.7640840507965285 12.90810169486813 118.06850425360739 95.32587573983685 0.4949773414364369
1.7860156020515454 12.88373321832441 107.18213531318654 99.95763826934119 0.5050545194750727
1.8073509784690756 12.857524799140752 97.40495734727878 104.84340278760672 0.5155233464579195
1.8280955894049682 12.829522583642778 88.62327511245118 109.99899681431039 0.5264038810033037
1.8481807873778868 12.799611985475925 80.7335507165137 115.44311069548334 0.5377236766387392
1.8675815100672495 12.767791689432844 73.62688197674318 121.19545038145027 0.5495103709330486
1.8862699433820254 12.734033983805027 67.23028898769834 127.27723120517412 0.5617932302984947
1.9042006851675919 12.698274174893236 61.46214554135461 133.71157709555948 0.5746042069616228
1.9213644177685223 12.660557219683984 56.26055417316471 140.52251408078473 0.5879739824433002
1.937713152540347 12.620796851092917 51.562081254913736 147.7382658027603 0.6019430864677526
1.9532286183675198 12.579034871921227 47.322244840775106 155.3881700571457 0.6165504683425249
1.9678861180348186 12.535248174809347 43.483212122379186 163.50401175155682 0.6318376803123025
1.98162986620025 12.489347711078237 40.01015797759895 172.1207844919331 0.6478508271647432
1.994460259662596 12.441412021901868 36.86415907876687 181.2771301052897 0.6646412850032419
2.006312600591125 12.391310188818311 34.014226539378434 191.0146530454688 0.6822626026676768
2.0171986602449317 12.339154769132573 31.43222410205978 201.37912917030857 0.7007736757420912
2.0270719246446283 12.284888596613953 29.085895283240596 212.42096862759396 0.7202392580934714
2.0359263340665086 12.228548155302029 26.95646587841692 224.19424293189965 0.7407256646400531
2.0437132620843075 12.17007690546718 25.020181977235186 236.76075168587235 0.7623128276083858
2.050417823516712 12.109497102609602 23.261368389378706 250.18557887602097 0.7850783281646004
2.0560304696296425 12.04684841157772 21.659406494554936 264.5430407384782 0.8091151905867008
2.0605263456268745 11.982128879403733 20.20463827153121 279.91389830664247 0.8345209385946737
2.0638883616676984 11.915377429924497 18.877580911462147 296.3876046481473 0.8614028055510888
2.0661009251915265 11.846602358243105 17.66957015084055 314.0623036011719 0.8898752835416548
2.067147785697391 11.775839289911165 16.571283553179608 333.04898528467277 0.9200709516301409
