M[M_sun], R[km], Lambda[1], P_c[MeV/fm^3], rho_c[fm^-3]
0.24162668629717493 15.618656898711224 2160425.4255784233 3.5677272577965504 0.1711233750220791
0.25364502089126123 15.27726757872298 1723096.0357231186 3.784850570694866 0.17388855901307118
0.2660428837098983 14.981206979364194 1383002.2725571075 4.011466580698095 0.17666744777146912
0.2788199043065375 14.723431430298403 1116341.58163005 4.24783041771425 0.17945869962056782
0.2919775824305466 14.49829002917794 905806.7054832998 4.494567691164291 0.18226888853040257
0.30551364961009714 14.301140107244107 738559.5338367177 4.751835579134574 0.18509375155768304
0.3194325663868592 14.12801106640407 604990.0130185881 5.020313855438427 0.18793985221966475
0.3337335788004033 13.97582609530505 497594.4601343569 5.3002299855099535 0.1908038801214019
0.34841657345934046 13.841896142801042 410925.2094726278 5.592308746197772 0.19369205396100558
0.3634824633834337 13.723833589501448 340599.08014221187 5.896722297018528 0.1965995266846297
0.3789364925424507 13.619900445166603 283234.50876375166 6.214332776005394 0.19953393788735546
0.3947729537716735 13.528323999898316 236341.6650881652 6.545393389778054 0.20249139072855477
0.4110003085600576 13.447756898125883 197814.6974795244 6.890615047229232 0.20547573979445327
0.42761055430277184 13.376968510954718 166031.45491618756 7.250699272820737 0.20848999160535778
0.4446099104124005 13.314828409356972 139759.30323588496 7.625899139159142 0.21152959781200692
0.4619912666961128 13.260469086462763 117935.15179616216 8.017175541966877 0.21460090320177638
0.4797614772625142 13.213086040881345 99777.22018071813 8.425228350012517 0.2177054683777462
0.49792117916142614 13.171904031073959 84614.050847636 8.850490586038385 0.22084064672833986
0.5164637515984054 13.136319548185021 71909.27559581242 9.293851360393933 0.22401006809332838
0.5353855271849 13.10577489762683 61252.642198362184 9.756188557953969 0.2272165459318489
0.5546948037035295 13.079748781865995 52281.178890127485 10.238306231700276 0.23046135506087956
0.5743816664246042 13.057785307837264 44711.18764183019 10.740682044525244 0.23374127524624677
0.5944426563939936 13.039466238715494 38309.128349728795 11.26456585178549 0.2370625520674401
0.6148818465982996 13.024468128116133 32887.27703799277 11.810890939597337 0.24042673931299013
0.6356899515922315 13.012420138557486 28278.78297258003 12.380636886184622 0.24383547096168828
0.6568647602963357 13.002989241835632 24359.321097414784 12.97447728920795 0.24728652139138485
0.6784002222419675 12.995965759829984 21017.46125098841 13.59377011331369 0.2507850222001955
0.7002923695353273 12.991053162546383 18162.73518286146 14.239699034241776 0.2543334436977734
0.7225315310008948 12.988000312488317 15720.778666390199 14.913454487679878 0.257933771934157
0.7451230690089762 12.986650427388447 13626.857090738622 15.616044729768024 0.26158568543265187
0.7680477653412469 12.986754644540202 11829.28139704031 16.348779386349822 0.2652915097177982
0.7912972397859004 12.98814970622581 10284.259926544728 17.113254834319775 0.2690557277217624
0.8148742105760005 12.990675289679581 8951.097364601583 17.91092710448755 0.2728807739634514
0.8387629893817311 12.994144658877843 7803.346789347796 18.743130958503922 0.27676745173393014
0.8629473877627891 12.998429146308927 6810.239644716028 19.611272936901962 0.2807167924772601
0.8874333215286684 13.003377762662844 5951.735555664207 20.517410568650096 0.2847348904000321
0.9121929786863192 13.008880164676151 5208.100256136238 21.463339284430585 0.2888247614383318
0.936633444706329 13.014342272336943 4575.907535938045 22.420411054274894 0.3540313725523647
0.9552264275529736 13.01264624161865 4136.6955053435995 23.613440316089495 0.5113049022543782
0.9692081236626793 13.001192834853095 3811.668651950255 24.912702482118906 0.6491568482158362
0.9797878053280096 12.98044751110215 3555.495746352173 26.369142095638004 0.7841993397811251
0.9877934295455145 12.951073398475144 3343.0728394154435 27.986122799730158 0.9185852627266434
0.993795027027258 12.913795436750611 3160.4233978418292 29.766371364357425 1.057180620698942
0.9981670734877864 12.869219807933035 2999.2233849418913 31.717897029023817 1.207199236071145
1.0011312020200174 12.81796951760449 2854.6135438253623 33.85467771712698 1.3816633285492355
1.0027523176704223 12.760831674800782 2724.649675801581 36.20245640096174 1.6110898313390178
1.0029609137059394 12.697208585871108 2608.8320494545787 38.77730990969674 1.7574565045556108
1.0030806017133722 12.624243523819052 2483.397586632471 41.4772498044792 1.7811443589714695
1.003908987805578 12.543886405513566 2344.020576523822 44.28644022382482 1.8016220753261771
1.005824076040897 12.4582243204196 2192.454697458233 47.208872035923974 1.8202556510017407
1.009018440751271 12.36881011094316 2032.2086084565472 50.24501508346379 1.8377985974236688
1.0135993316582999 12.276909616754123 1867.2932101626611 53.398980737151994 1.854785969310957
1.0196387506504576 12.183791681664204 1701.7946945709673 56.67864593907238 1.8716082434090269
1.027123751909852 12.090277945160237 1539.282486900715 60.08740964179797 1.8884879509402257
1.0360375292339903 11.9972586332133 1383.0572931557817 63.63040559115076 1.9056046020340194
1.046338903756021 11.90538160277184 1235.0371737673913 67.31702199007707 1.9231168084973593
1.0579708609181537 11.81533442226492 1097.29452503348 71.15311463553903 1.9411258585146522
1.0708778799406995 11.727566241237088 970.3833141495294 75.14565131066676 1.9597200583449992
1.084945697713318 11.642323209811572 855.2747763705597 79.3026330870944 1.9789779744926803
1.1001070808920206 11.559983673695873 751.4997185993379 83.63305532692864 1.9989715935717425
1.1162610791432688 11.480614604164433 658.9614147681222 88.14689868530799 2.0197689739321123
1.1333267902090935 11.404377653239731 576.8222189620327 92.85448783648692 2.041433303481431
1.151212120228057 11.331343456000559 504.42665482449615 97.76261031464736 2.0640050675260233
1.1697947311608348 11.261288964800011 440.85130641350605 102.88783258105734 2.0875607694112066
1.188992749152967 11.194214824096997 385.2814272575237 108.23823505903798 2.112134307990032
1.208723958858442 11.130039465175324 336.79819683545475 113.82830614362625 2.137789073252488
1.2288863763441569 11.06861741778369 294.60515632086697 119.67237533276925 2.1645871575836537
1.2494100921962117 11.00972395031118 257.903671656066 125.78510317935012 2.1925915364152644
1.270184971061635 10.953201767200207 226.04904733483292 132.182830623837 2.2218723403442784
1.2911297577733387 10.898828513066402 198.41628650546053 138.8817013063668 2.2524978465283723
1.312187202433637 10.846421634351923 174.4024633486092 145.90081526012594 2.284549322697763
1.333267342052848 10.795787153291254 153.5496783688857 153.2606003909757 2.3181131896178293
1.3542754988464472 10.74663485947373 135.43977774598983 160.98286222734626 2.3532811136906906
1.3751775715979757 10.698855050474387 119.68233135463599 169.09005402726334 2.390146260858863
1.395866540329589 10.652183011711836 105.97407890121265 177.6072631386551 2.428812617394894
1.4163111651241087 10.606465958066968 94.01816903261773 186.56232205984176 2.469395359601683
1.4364155029883297 10.561505213685738 83.58039735820296 195.98577127104892 2.5120204641022963
1.4561263111184077 10.51710305575255 74.46503384944857 205.9071108727142 2.5568059139992445
1.475400738940564 10.473095449376292 66.48198225004137 216.36310772621184 2.60390209372629
1.494161982044464 10.429328224636588 59.49175327849278 227.39125895179004 2.653459295282643
1.5123521973343372 10.385635080942059 53.350026614013935 239.03307759013182 2.705643384328977
1.5299365566388776 10.341864626794601 47.94536052239497 251.3315551961746 2.7606223483948944
1.5468553232468205 10.297937701405619 43.190034268186785 264.3378367918862 2.8185994270468497
1.563072008052013 10.253580796388162 38.98793917914531 278.10446402706515 2.8797780386670073
1.5785131330451936 10.208837588347498 35.28205561296334 292.6900605704716 2.944384601969358
1.5931470475750678 10.163455047693128 31.996188332413954 308.1592159881244 3.0126669784440487
1.6069439516110013 10.11738085746501 29.086418824202955 324.5817130796911 3.0848889706389064
1.6198480956615808 10.070530007932248 26.500912589862775 342.0349394347195 3.1613414392776713
1.6318421757213117 10.02279085029597 24.20084709927024 360.60373243972947 3.2423396269550557
1.6428647477603517 9.9740419223851 22.152281111703264 380.3827835905817 3.328234221868562
1.6528979148308252 9.924358978870803 20.328347173529878 401.47477237429524 3.4193981596874465
1.6619032765510586 9.873467624999726 18.696348110914247 423.99436669364286 3.5162458396229677
1.6698603686505424 9.821484478056743 17.23808790188659 448.06797251613267 3.619227917965552
1.6767347134866617 9.768215959441315 15.93254368393283 473.83621443580273 3.728841222532565
1.682509547928678 9.713733160213653 14.763788474501588 501.4547720545436 3.8456280527946523
1.6871666532391036 9.657983318622748 13.717365677004013 531.0971536832288 3.9701863580227896
1.6906688114703285 9.600886582097182 12.774347129390044 562.9567067311127 4.103174188137221
1.6930219925640073 9.542510507169313 11.913153199293944 597.2490692691154 4.245315309477747
1.6942041568413286 9.482774532214568 11.170196076900718 634.2158170115198 4.397411361780066
