M[M_sun], R[km], Lambda[1], P_c[MeV/fm^3], rho_c[fm^-3]
0.24162668629717493 15.618656898711224 2160425.4255784233 3.5677272577965504 0.1711233750220791
0.253643673757069 15.277302540942772 1723244.898959525 3.784813723591737 0.1738880997317063
0.2660380204685459 14.981307849353655 1382800.9437272465 4.011389120283384 0.17666651170807132
0.2788140553274819 14.723524550229932 1116431.8208698197 4.247709722918427 0.17945729974281946
0.29196751933968645 14.49845469178506 905922.8460820741 4.494400594385188 0.1822670278689861
0.30550381967567763 14.301208960625138 738632.2148848239 4.751616406110686 0.18509138407072706
0.3194190038158205 14.128164555206205 605127.1731009037 5.020040991187117 0.18793702114774147
0.3337163865710324 13.97597404198521 497699.8816586368 5.29989624562271 0.190800519914512
0.3483967481743912 13.842062555370342 411027.27077801566 5.591913296897244 0.19368822788023862
0.3634588152565489 13.72402836811435 340665.02280470514 5.896256253235574 0.19659514950279483
0.3789118083134713 13.62002730806543 283318.8966969756 6.2137904972290245 0.1995289929578611
0.39474317927575253 13.528488241360181 236410.5563830793 6.544775438523449 0.20248597213086314
0.41096696182956083 13.447931807471932 197881.3691859313 6.889909493014621 0.20546973099868732
0.42757512692066246 13.377084207449164 166092.7277774547 7.249899493960404 0.208483375239812
0.4445696292215253 13.31494766831622 139812.0834221877 7.625007345689502 0.21152249856256727
0.4619498401143722 13.26062320387507 117994.71911714706 8.016176177614556 0.2145931723105598
0.4797136016489364 13.213184358376353 99827.3031164717 8.42411362087257 0.21769708717297656
0.49786986513938386 13.172005898396858 84651.95630019488 8.849264601903517 0.2208317700793807
0.5164067868168032 13.13642650896234 71943.74709841705 9.292494279364396 0.2240005141582763
0.5353248703479417 13.105859140338625 61282.56242101184 9.754691177457483 0.22720629407236026
0.5546303033933119 13.079835750196198 52305.89805847927 10.23666476481963 0.23045046056613325
0.57431174615236 13.057867220821002 44735.12246705488 10.738891699405595 0.23372978067599912
0.5943661415607251 13.03954870481747 38331.37269811968 11.26260567675465 0.2370503048583755
0.6148036270315168 13.02452774051859 32906.06743460173 11.808749353326338 0.24041371489530466
0.6356040566495379 13.012443903974862 28298.280948102725 12.378301584748712 0.24382164346859997
0.6567748812918932 13.00302806912104 24374.0748871774 12.971958996783082 0.2472721278645587
0.6783065726823346 12.995980654804564 21030.922064053226 13.591033066236443 0.2507697830553682
0.7001937324585885 12.991056009191603 18174.74895635479 14.236728554903433 0.25431732870238855
0.722426685628763 12.988008449792307 15731.966975090532 14.910234955323824 0.2579167490529786
0.7450133158251007 12.986647125378063 13636.163094016993 15.612590935533055 0.261568031927515
0.7679328174519724 12.986760388944795 11838.45990050799 16.3450445539865 0.26527289251519537
0.7911755688762306 12.988139770669582 10290.438305395262 17.10922021685291 0.2690361087432571
0.8147492272279016 12.990660523722447 8957.969049181404 17.906572711931346 0.2728601126821262
0.8386302750107635 12.994127690509886 7808.796555741336 18.738476105313275 0.27674606509200483
0.8628087859257334 12.998404110273546 6815.699883284773 19.606257092274493 0.2806942895457444
0.8872823959963698 13.003344377511727 5956.326805874606 20.512009588003643 0.28471122246540403
0.9120414828153526 13.008840560672962 5211.911157029042 21.457527369674313 0.28879987650240035
0.9370622019013761 13.01472998276674 4566.0701923758315 22.444305562640793 0.29296026322414903
0.962338487690632 13.020932694602225 4005.2041426988244 23.47434712434796 0.29719600389578543
0.9878635129286915 13.027322510353072 3517.1947670045124 24.550084595144714 0.30151328480394657
1.0136042547197743 13.033785492825226 3092.4490361213248 25.673472993580265 0.3059138336769152
1.039567134162583 13.040231352689984 2721.9310277895097 26.846447480814724 0.310398719214301
1.0657164766374108 13.04655766223444 2398.7835667070663 28.07211664251192 0.3149767686276843
1.0920468494946267 13.052687630282728 2116.0624733163536 29.352549428170224 0.31964852544775946
1.1185439279324616 13.058531416189078 1868.9908209884663 30.69047269983049 0.324418479119597
1.1451735451989793 13.063983069441802 1652.4479216272384 32.08931574402229 0.3292948879403904
1.1719351757607013 13.068999127303957 1462.3741482500895 33.55098589504686 0.3342752321064605
1.1987905641320145 13.073453197232904 1295.6440007128324 35.080040643362835 0.33937318266129557
1.2257352612941268 13.077321226940091 1149.310774615515 36.678522123548476 0.34458561838365054
1.2527292543274455 13.08049349339077 1020.3989107184859 38.35145254695526 0.3499267954670172
1.2797701621076711 13.082935661096379 906.8936497955809 40.10108388710837 0.35539337302923907
1.3068120324522985 13.084521750582207 806.8539484106047 41.932895848482 0.36099996146017777
1.3338494286211178 13.085240175218575 718.7566095049391 43.85033170786585 0.36674826924069376
1.3608562480407849 13.085032528358811 640.7715981710236 45.85813555567445 0.3726463632021438
1.3877856524173298 13.083779204430929 571.939568359586 47.961611159423626 0.3787040416660455
1.4146422171816313 13.081488583630339 510.9263681264487 50.16547912764344 0.3849267773608068
1.441363902662869 13.078040141311128 456.96001297620035 52.47502497453297 0.39132188751072206
1.4679580429734027 13.073448592870989 409.11673175506513 54.89662966074053 0.39790088641994487
1.4943669303738114 13.067586363777927 366.62403260303967 57.43648070308129 0.4046728311688518
1.5205779795136671 13.060441465564429 328.9102997851946 60.1012035169765 0.41164748860141676
1.5465609914621266 13.051959328688955 295.3562528119871 62.89790083467838 0.41883539375987894
1.572276783571682 13.042083927869879 265.5204439781159 65.83419589721633 0.42624791308939286
1.597700826604928 13.030758938381346 238.98309387719695 68.91827980311737 0.43389731297098155
1.62278793477392 13.01794309563723 215.2900911960506 72.15896344457128 0.44179683420948307
1.6475397899639481 13.003608400093814 194.14240596735664 75.56573451569982 0.44996077317892275
1.6718888027635184 12.987679654592624 175.27385110512597 79.148567213299 0.4584035141807006
1.695826041650121 12.970136953947637 158.3987031115499 82.91756971238681 0.4671379879018173
1.7192915420841877 12.9508983711377 143.32085784420266 86.88551326531474 0.4761859013341455
1.742292272142673 12.92999947696017 129.8098158269933 91.06402346952329 0.4855617982935976
1.764773403057882 12.907357107302733 117.70795672417024 95.46708054005826 0.4952871762976225
1.7867017689070417 12.882925828828022 106.84677791530717 100.10845570487179 0.5053799769579186
1.8080397115864213 12.856678698281591 97.10887826388552 105.00461436664202 0.5158656795839137
1.8287523930653868 12.828550865789646 88.35516330705292 110.17209052785569 0.5267668113413211
1.8488322218807176 12.798593766818854 80.48355160929032 115.6284498092591 0.5381065232921887
1.8682202822629512 12.766691458999913 73.39980503599702 121.39400750781643 0.5499145604792608
1.8868918205740801 12.732851054749714 67.02524939452692 127.49012025937841 0.5622204969316111
1.9048178079659739 12.6970433721873 61.27249807061846 133.93928060986246 0.5750538351731216
1.9219597531453856 12.659237105457251 56.086648389088666 140.76702911268328 0.5884503907098058
1.9382750753246307 12.619359387500399 51.40443356266109 148.001100900453 0.6024486628550261
1.9537753238685989 12.577524991448438 47.1736394280759 155.6700672885264 0.617084691814302
1.9683935607157717 12.533607557822908 43.349684387294225 163.80747692030212 0.63240576839508
1.9821119435973182 12.487617831479668 39.888884381434785 172.44700409870586 0.6484531560005351
1.9949054864430535 12.439551390276133 36.754605635798484 181.6280847752727 0.665280553800878
2.0067440253784725 12.389402255232163 33.91100769987008 191.39261987635405 0.6829420781725896
2.017598207069806 12.337138599596988 31.336929749027878 201.7866199420151 0.7014969316662202
2.02743494892486 12.2827663907115 28.998389331145958 212.8600986171661 0.7210080520358007
2.036249268448591 12.226311449966227 26.87585710833216 224.66833340160196 0.7415451413034269
2.043998711208277 12.167729102082715 24.947992835955585 237.27263909659428 0.7631858923496577
2.0506614818701703 12.107037671365495 23.1925700428984 250.73974532679244 0.7860125275374253
2.0562400355315833 12.044303688621078 21.598340751508523 265.14266220896934 0.8101129955508711
2.0606923511823796 11.97946592911658 20.146806169245 280.5633081885109 0.835587660332411
2.0640024612523105 11.912585518776726 18.825760227148614 297.091112852379 0.8625426148973286
2.06616864014458 11.843695293725116 17.622335999577185 314.8264996674439 0.8910986111379582
2.067166427845716 11.772815930772694 16.527228463831584 333.8789048772632 0.9213817433331282
