M[M_sun], R[km], Lambda[1], P_c[MeV/fm^3], rho_c[fm^-3]
0.24162668629717493 15.618656898711224 2160425.4255784233 3.5677272577965504 0.1711233750220791
0.2536448660246147 15.277269992432242 1723179.5611744546 3.7848448151061325 0.1738884872724342
0.2660424281499495 14.981228175228749 1382956.5685474973 4.011454481161074 0.17666730155570487
0.27881928403982953 14.723466967476666 1116442.18113577 4.247811564737853 0.17945848095445244
0.2919752200169648 14.498340124068761 905845.9501736813 4.494541589882178 0.18226859788656843
0.3055124282522749 14.301128827700314 738564.8556513009 4.751801343114097 0.18509338174332146
0.3194303604403527 14.12803297151578 605029.5044311925 5.020271232331494 0.1879394099884793
0.33373230602356807 13.97577898052506 497620.79552318 5.300177852964266 0.19080335523317038
0.3484134848887845 13.841922099887917 410943.1978737897 5.592246973890178 0.19369145629693665
0.36347880664531995 13.723865217301395 340610.1264667679 5.896649496908785 0.19659884293059288
0.3789330747547607 13.619913072473128 283252.122207658 6.214248066878212 0.19953316544211197
0.39476743097212813 13.528354031366144 236361.02899505693 6.54529685942288 0.20249054428774602
0.4109951263431845 13.447798227811761 197825.0770201464 6.8905048318204285 0.2054748011537818
0.42760506928717296 13.376966464443406 166047.20608714572 7.2505743378348 0.2084889580502372
0.44460300010063464 13.314834814630089 139767.87172062564 7.62575982975568 0.2115284888195797
0.4619847557635461 13.260482178348148 117946.39107094356 8.017019427845868 0.21459969553283753
0.4797545359826679 13.213072230201577 99790.01541144012 8.425054213489835 0.21770415911453403
0.49791398686491456 13.171910599671829 84619.15277544234 8.850299069060931 0.22083926006359417
0.516455334140259 13.136328282222875 71919.7133048328 9.29363936307965 0.22400857561901935
0.5353751355265205 13.105792675370271 61256.04996777962 9.7559546425106 0.22721494442290494
0.5546857502389584 13.079754459795318 52287.269724502636 10.23805137591715 0.23045967333470405
0.5743702004643664 13.0578000424154 44714.618587403704 10.740402360633755 0.2337394795890282
0.5944307903318226 13.039482782873435 38316.132976649686 11.264259635933987 0.23706063882525855
0.6148706122620912 13.024473214513153 32889.873898116544 11.810556382300746 0.24042470464643034
0.6356787411899872 13.012406540689902 28281.670703748925 12.380272065046995 0.24383331082866158
0.6568510043787438 13.00299339257486 24361.225054747443 12.974083879579211 0.24728427282327217
0.6783867939154777 12.995954174341133 21019.640323888103 13.59334252758788 0.25078264151743124
0.700277430831338 12.991046607023206 18165.034284713787 14.239234979115844 0.25433092617606695
0.7225142624256704 12.988009280957565 15722.480031103141 14.91295152247419 0.2579311125675203
0.7451061117214909 12.986649413034403 13628.157898266109 15.615505165285136 0.26158292753692264
0.7680298963424218 12.986760227234686 11831.332149377195 16.348195914218064 0.26528860125556125
0.7912784364929105 12.988136984793105 10285.570951168012 17.112624525353024 0.2690526627426976
0.8148547383456852 12.990684665868752 8952.06664203344 17.910246835262356 0.2728775461346194
0.8387419699536369 12.994145651716645 7804.2135176755755 18.742403746615746 0.2767641105715735
0.862924815959294 12.998423293738416 6810.6743136719115 19.610489324696267 0.28071327690349157
0.8874109003689594 13.003374114325808 5952.411045784802 20.516566783487086 0.28473119280261683
0.9121698531884345 13.008862685366807 5208.541791396612 21.46243129528137 0.2888208736917367
0.9371924922202309 13.01476080846741 4562.803622780906 22.44953578933722 0.2929819866082065
0.9624803497870026 13.02096733764246 4002.50776766402 23.479969293543 0.29721883719539577
0.9880039624941572 13.027354996137866 3514.7580082179493 24.556125172898856 0.30153728115176687
1.0137493727725848 13.033812163537466 3090.4966456960883 25.679908596220777 0.305938669906932
1.0397165807404625 13.040270648635788 2719.978584092622 26.85335679209927 0.31042482134817745
1.0658703734341544 13.046604430419682 2396.838510754446 28.079532008415057 0.31500420129060824
1.0922072415170574 13.052731691254232 2114.5954004541604 29.360444565548278 0.31967694309468137
1.1187085629618656 13.058565163581642 1867.3549107171925 30.698941877566064 0.3244483546928483
1.145342462509177 13.064023032150049 1651.1203193271026 32.09833131849125 0.32932586456626745
1.1721087562860784 13.069028028681 1461.2117763622102 33.5606536281199 0.33430781336370163
1.1989683688090282 13.0734880905849 1294.6505426141093 35.09040616988798 0.3394074586474137
1.2259169381229649 13.077345568643516 1148.389823391894 36.689555361218645 0.344621209900466
1.2529161525359265 13.08051232166594 1019.5453588066824 38.363210259483395 0.3499638519402289
1.2799604507177262 13.082949625827329 906.147624028568 40.11367562345163 0.35543232765485777
1.3070139931571847 13.084546956861754 806.3015625089878 41.94630347071126 0.3610404947334227
1.334047243403525 13.085240142536698 718.1272544467737 43.86470555341233 0.3667909957432634
1.3610565982327145 13.085028187165518 640.2057212590053 45.87344550387873 0.3726908824518226
1.3879970327345794 13.083779926122219 571.4204905187116 47.977922610339775 0.37875046932080375
1.4148421221627823 13.08145118387707 510.4934389720892 50.18297096114131 0.38497579140590776
1.4415748947171236 13.07801011242815 456.5795006469808 52.49366942017462 0.3913730781729839
1.46816992300751 13.07340475073804 408.7402968189444 54.91650928296097 0.39795439878769023
1.494581948073589 13.06753381186403 366.29646060716254 57.45768475458166 0.4047288215472179
1.5207945042419144 13.060376725779358 328.63099607123957 60.123828537586284 0.411706125433576
1.5467789670954315 13.05188194960579 295.09990876720343 62.922051309978364 0.41889685863956533
1.572496716995701 13.041992311212091 265.28372750609526 65.85998498357654 0.42631240187452973
1.597910296150278 13.030648372537287 238.75357721996946 68.94583012661523 0.4339650370093584
1.6230188172832904 13.017833505744996 215.0865395764647 72.18840798217353 0.441868021688738
1.6477608257678578 13.003471781135191 193.95410075832385 75.59721756813032 0.4500356706145596
1.6721092714578074 12.987528639323994 175.118438524008 79.18208106513244 0.45848170161360463
1.696046024800362 12.969964983520498 158.25161106077266 82.95344138342493 0.4672204208973877
1.7195257286924956 12.950741507975033 143.181080535949 86.92392743578225 0.47627289053012295
1.7425067398253868 12.929792880699559 129.6881781300234 91.10499612819231 0.48565294737764264
1.7649888740179525 12.907126448826938 117.59315540932649 95.5110064413719 0.4953835595332818
1.786898550266236 12.882648282480819 106.74870812278327 100.15537309791382 0.5054812226566497
1.8082502016653292 12.856407362840354 97.0186204310625 105.05476657043455 0.5159721778937902
1.8289541988073807 12.82825284996447 88.269610015015 110.22574294623219 0.5268789842761866
1.8490347622008585 12.798273263305008 80.40895297881627 115.68611141017968 0.5382256322622019
1.8684067131565691 12.76632125649524 73.3308096488713 121.45578321239654 0.5500403131755157
1.8870813991511146 12.73248698366725 66.95806296338372 127.5562008120648 0.562352875684366
1.905002885723922 12.696652441028167 61.21385802690602 134.0101143263062 0.5751936829230553
1.9221414599081041 12.658817045123154 56.03493597549243 140.84311016713033 0.5885986255360315
1.9384506952348513 12.618910618807211 51.35683317089193 148.08288496298286 0.6026059785683131
1.9539417657272156 12.577048229218459 47.13201061699945 155.75778542111013 0.617250926456257
1.968551211918624 12.53310014168022 43.310453670730354 163.9016607597256 0.6325817045898452
1.982263375707165 12.48708181594319 39.85259975653835 172.5485209716637 0.6486405958068265
1.9950454605314962 12.438980365876743 36.72084584630924 181.7373027301634 0.6654794958201041
2.006877569079086 12.388802854838756 33.88026897327225 191.51024825602667 0.6831535401214673
2.0177173042017507 12.336509531260711 31.30663941927841 201.91344124048638 0.7017220269611171
2.027547073091339 12.282109045668625 28.971576415503364 212.9966570894288 0.7212469529129903
2.036350103035422 12.225617548300095 26.852233257058447 224.81589320936365 0.7418002019440437
2.0440870197444894 12.167003104865003 24.925628613438867 237.43191920395427 0.7634574795644264
2.050738091530239 12.106273289705317 23.172062925608326 250.9119059031715 0.7863022227644972
2.0563024104489505 12.043503937807252 21.579144517474155 265.3292059326506 0.810423239546694
2.0607406546634874 11.978632723220828 20.128841519251317 280.7651741622627 0.8359187675132579
2.0640369620896664 11.9117128250608 18.80931110169105 297.3101238583285 0.862897451969603
2.066186216922295 11.842786343928896 17.608584689484303 315.06441464534515 0.8914794662233034
2.067172975555956 11.77187891875318 16.51351396578505 334.13729322331153 0.921789847085796
