M[M_sun], R[km], Lambda[1], P_c[MeV/fm^3], rho_c[fm^-3]
0.24162668629717493 15.618656898711224 2160425.4255784233 3.5677272577965504 0.1711233750220791
0.25364368394848336 15.27727993178951 1723217.3067855493 3.7848141391320294 0.1738881049112156
0.266039301559243 14.981286305551302 1383040.3291420243 4.01138999383113 0.17666652226438032
0.2788140397615189 14.72353722680755 1116525.5695874908 4.247711084026173 0.17945731552961816
0.29196764003028886 14.498440591800748 905922.7308224593 4.494402478768513 0.18226704885203177
0.305503743772314 14.301200564139235 738687.8637234999 4.751618877751969 0.1850914107691701
0.31941960740143815 14.128151158734338 605119.6589270291 5.0200440682920355 0.18793705307389266
0.3337162771379682 13.97600634239072 497698.409466621 5.299900009201555 0.19080055780750604
0.3483969716271653 13.842060668848836 411026.11651081574 5.591917756345648 0.1936882710266287
0.3634592843947053 13.72401979470676 340666.3845229396 5.896261508739362 0.1965951988635986
0.37891207663097365 13.620025887083697 283317.56930722774 6.213796612385375 0.1995290487207239
0.3947441878493184 13.528467612458485 236416.81523868907 6.544782406982161 0.2024860332348321
0.4109672806077703 13.447932378598361 197881.15251192282 6.8899174492986575 0.2054697987577409
0.4275750923113782 13.377078555006634 166093.1820919655 7.249908512728092 0.20848344984976577
0.44456939313806804 13.314957002917092 139811.8478184697 7.62501740201292 0.21152257861736787
0.46195024547359037 13.260590941512593 117989.57964693752 8.01618744689618 0.21459325948756397
0.47971393506445936 13.213178576057441 99825.8782628817 8.424126190985474 0.2176971816826529
0.4978701860469243 13.17200795825304 84653.28878266895 8.849278426498914 0.22083187017535816
0.5164074771883497 13.136430620481029 71944.21379262647 9.292509582162186 0.22400062189092676
0.5353255869662126 13.105877197531095 61281.52376224409 9.754708062210797 0.22720640967431907
0.554631620876854 13.079836174952884 52306.67386519734 10.236683341585948 0.2304505842801501
0.5743125703791941 13.057862494122036 44332.12663518587 10.738911887468442 0.23372991028961607
0.5943667286151131 13.039552499245788 38331.270314499685 11.262627779705689 0.23705044295801359
0.6148041192906213 13.024516195018743 32905.84775790312 11.808773501734214 0.2404138617579153
0.6356057075517746 13.01243288578739 28295.551406744064 12.378327917327773 0.24382179938575455
0.6567760660827606 13.003039061856763 24373.37768707059 12.971987392610295 0.2472722901634628
0.678307446769079 12.995981481126448 21030.382705053333 13.591063928527733 0.2507699548883376
0.7001949507626833 12.991059078225211 18174.97497114742 14.236762049130897 0.2543175104102072
0.7224280050739119 12.987993445128872 15732.233752920154 14.910271257591203 0.2579169409967505
0.7450145192818565 12.986641458026558 13636.095239868922 15.612629879068129 0.261568230981034
0.7679333597903056 12.986762527448182 11838.074303716696 16.345086666149832 0.26527310243376745
0.7911769733800299 12.988139973463483 10290.457421243938 17.10926570898822 0.2690363299561062
0.8147491166915348 12.990669335302956 8957.636152604024 17.90662180939388 0.27286034564607525
0.8386309801954474 12.994129572072689 7808.5678460438985 18.738528590339946 0.2767463062335459
0.8628104513781976 12.998402002203628 6815.6167715741585 19.606313647274533 0.28069454327236215
0.8872842088990917 13.00335434259683 5956.403628806841 20.512070485163346 0.2847114893262001
0.9120448086328543 13.008840779883771 5211.966934626776 21.457592899818213 0.2888001570834999
0.9370638774313121 13.014724791096755 4566.107464381172 22.444375452800593 0.2929605535080834
0.9623405375030445 13.020928073385884 4005.094340349402 23.4744222515611 0.2971963090097205
0.9878648010397425 13.02732126474649 3517.2025158228253 24.55016531301182 0.301513605457714
1.0136060164036667 13.033781840858381 3092.3337647483513 25.673558989662034 0.3059141655523567
1.0395689706495421 13.040240508016444 2721.946543452419 26.846539806385742 0.3103990680036833
1.0657186195254384 13.046561591096268 2398.7603906224754 28.0722157297237 0.3149771351943671
1.0920493614273932 13.052692779844714 2116.0420494664286 29.352654925851454 0.31964890517463596
1.1185462074779255 13.058531941202187 1868.9616625380163 30.690585867457443 0.3244188783257342
1.1451758147537245 13.063983511272763 1652.431206169958 32.089436212252586 0.3292953018573641
1.1719375007679091 13.068997635369488 1462.3454419075763 33.55111507688745 0.33427566746258247
1.1987905844729274 13.07345843454532 1295.626708751507 35.08017914848907 0.33937364066019926
1.225737149194007 13.077325237025375 1149.3228699469266 36.67866955004551 0.3445860939587088
1.2527319587071442 13.080486829964574 1020.3970213435001 38.35161059095012 0.34992729611574624
1.2797720035075075 13.08293670255578 906.8680168590462 40.10125213662938 0.3553938935370485
1.3068162433283388 13.084523807079522 806.9175674698719 41.93307499896534 0.3610005030592301
1.3338520980358115 13.085240395505325 718.7429640485851 43.85052376776744 0.36674884014204734
1.3608591398544019 13.085033431269366 640.7654895715649 45.85834012258438 0.3726469580549296
1.3877883688782564 13.083778645030327 571.9266981671311 47.96182910705553 0.3787046620153609
1.4146450038957856 13.081489474950143 510.9252181792398 50.165712845712655 0.38492743226459303
1.4413672317715236 13.07803925082654 456.975361582219 52.47527409203828 0.39132257149405536
1.4679609712246549 13.073448590671688 409.10277711113474 54.89689528067786 0.39790160142104547
1.4943707560934403 13.067581408583619 366.6084507507615 57.43676401778701 0.4046735792757676
1.5205809684451888 13.060441085890728 328.9098528676093 60.10150581612674 0.4116482720643289
1.546563911253832 13.051958292707209 295.3527830401184 62.89822351408499 0.41883621500462287
1.5722799664699711 13.04208320789113 265.5252607258982 65.8345404685107 0.4262487747323319
1.5977038028672543 13.030757594896333 238.97578115330492 68.9186479044209 0.43389821783537663
1.622790351977868 13.01794176466195 215.28350521044308 72.15935685226383 0.4417977853435212
1.6475426436302905 13.003608433631618 194.12658052520942 75.56615515741323 0.44996177387559044
1.671892297408436 12.987676937419845 175.27591573629545 79.14901498601603 0.45840455882932657
1.695828342959198 12.970135587625885 158.40021699525414 82.91804898449665 0.46713908926772985
1.7192943884236849 12.950895852416405 143.31876753107 86.88602650378965 0.47618706356677304
1.7422948794710154 12.929995088459648 129.80481712742608 91.0645708880025 0.48556301609821634
1.7647760343321919 12.90735248705783 117.70696557204143 95.46766741158905 0.4952884640248031
1.7867036255082505 12.882923129881453 106.84589238795657 100.10908254044644 0.5053813296418942
1.8080423338745557 12.856674258124096 97.10607592409715 105.00528441647178 0.5158671024361317
1.828755523886499 12.828547170963205 88.35128832615388 110.17280733711955 0.5267683099988151
1.8488348903373246 12.798588371945229 80.48322642496966 115.62922017636859 0.5381081146048037
1.8682221626072997 12.76668730088445 73.39811465029747 121.39483283432047 0.5499162405415746
1.8868942312629309 12.732846377748052 67.02606514053963 127.49100517859245 0.5622222729574128
1.9048182363732784 12.697039615430866 61.2700270094777 133.94022693920283 0.5750557035210722
1.9219620200105405 12.659231470258183 56.08686404966211 140.768045538164 0.5884523710931693
1.9382777763241947 12.619353328439425 51.40377270744753 148.00219350836167 0.602450764540699
1.9537774624577247 12.57751739083975 47.173361953432774 155.6712391652754 0.6170869126380479
1.9683963999183838 12.5335997476536 43.349209581025434 163.80873516678804 0.6324081188099724
1.982114458470996 12.487610511844505 39.888432190454346 172.44836029909106 0.6484556600762625
1.9949069232437044 12.439544180301468 36.754112023613246 181.6295438455085 0.6652832115175437
2.006745778485041 12.389393975035293 33.91017055972352 191.39419129052752 0.6829449031226955
2.0175962476266847 12.337132193556311 31.335271578793776 201.7883141510909 0.7014999387202098
2.0274364658005792 12.282757176697109 28.99809335220688 212.86192289044752 0.7210112434927637
2.0362510931777766 12.226302718546552 26.87615102770194 224.67030462251176 0.7415485486056975
2.0439999718577573 12.167719819216813 24.94851805005404 237.27476686758573 0.7631895203946585
2.050662900221657 12.107027195359176 23.192529790674705 250.74204963812412 0.7860164120854665
2.056240339197076 12.044293380473858 21.59804119454397 265.1451556082796 0.8101171447121869
2.060691799195296 11.979454918302574 20.146202472142466 280.5660047718315 0.835592083356681
2.0640040078261572 11.912570537703276 18.825593969676355 297.094038433269 0.8625473548625793
2.0661689940188714 11.843682832365596 17.622560074533148 314.82967773572085 0.8911036986001917
2.0671661143579936 11.772803839708526 16.52718371625396 333.88235639173797 0.921387194724536
