M[M_sun], R[km], Lambda[1], P_c[MeV/fm^3], rho_c[fm^-3]
0.24162668629717493 15.618656898711224 2160425.4255784233 3.5677272577965504 0.1711233750220791
0.2536330739582539 15.277550510734814 1723481.7227989978 3.7846152423798403 0.1738856257591505
0.26601663210404136 14.981756806012854 1383589.2626092532 4.010971889143753 0.17666146971598187
0.2787786438466639 14.724237188751541 1117069.3947926455 4.247059642720419 0.1794497597921725
0.29192035317119436 14.499183035094083 906662.3744684499 4.49350062354363 0.18225700648479304
0.30544119163265787 14.302082906092446 739354.6964563717 4.750436006181707 0.18507863349866696
0.31934238388235847 14.129047260432936 605707.5724068076 5.018571484970295 0.18792177445356464
0.3336247458622056 13.976897489699063 498325.5388878394 5.2980989683756805 0.19078242431485665
0.34829070930318623 13.842945389468632 411581.31184203905 5.589783779690601 0.19366762421545436
0.36333496833552 13.724917819426668 341179.52350634086 5.893746681331667 0.1965715790723913
0.3787718226076406 13.620905958392937 283787.9201851138 6.2108705282050725 0.19950236635623425
0.39458381775062723 13.529376105325289 236851.81131396524 6.541448122385862 0.2024567960633204
0.41079063770516294 13.448734746162362 198258.55990545847 6.886110632997399 0.2054373783126509
0.42737872167713087 13.377851451929045 166437.71870807157 7.245593474631633 0.20844775264544327
0.4443525444751835 13.31571283223264 140118.80292240353 7.620206085311016 0.21148427744275422
0.4617130206295472 13.261279138026941 118256.950745761 8.010795979637134 0.2145515521295012
0.4794555666283234 13.213813492756918 98983.7945527327 8.418112570602663 0.2176519676642613
0.49759026596616956 13.172598581881003 84861.35160328222 8.842664839983952 0.22078398498322174
0.5161021695232438 13.136952818151297 72140.91706058064 9.285189065650595 0.22394908499830415
0.5349988739980782 13.10633633398609 61452.80767361241 9.746631027966101 0.22715111002245653
0.5542803701770727 13.080261343726008 52455.082712776784 10.22779719081279 0.23039140598249955
0.5739345920225916 13.058229474848813 44865.13616252849 10.729255237364141 0.23366791160469064
0.59397077627772 13.039875919563725 38448.71142063112 11.252055501364305 0.2369843871716175
0.6143772242373307 13.024798110916725 33009.528126061814 11.797223200099946 0.2403436166527262
0.6351518002645992 13.012671320764106 28387.868081976416 12.365733307267545 0.24374722576503047
0.6562925938356843 13.003197153574602 24456.246295301604 12.958406306528106 0.24719466624460346
0.677799577605221 12.996133917894202 21103.00539222546 13.576303644622136 0.2506877735820679
0.6996600103105326 12.991151181904815 18239.336822018944 14.220743504088295 0.2542306090215658
0.7218638697176828 12.98806209269857 15788.510226399554 14.892910311419811 0.2578251471300842
0.7444205618440533 12.986679969651375 13686.329922141664 15.59400626888423 0.2614730394393028
0.7673106768603494 12.986729115642829 11882.921952460509 16.324948376215826 0.265172718109304
0.7905264114320529 12.988077698003377 10331.11734716578 17.087511772558575 0.2689305479297498
0.8140636324432295 12.990554686968611 8993.49996429613 17.88314457004214 0.27274894782405434
0.8379188261847681 12.994012922234322 7840.723469289952 18.713372508068865 0.2766304723141308
0.8620713433307814 12.998261546903784 6843.878017202002 19.57927192866218 0.28057322413526803
0.8865113439964336 13.003181868345475 5981.749624584349 20.48295348522089 0.28458389411779006
0.9112392352228179 13.00864910535723 5234.586888123771 21.42626170654286 0.2886660059870007
0.9362276883233823 13.014548218220671 4586.096418282407 22.41096051360098 0.2928217668742295
0.9614734294426207 13.02071165648527 4023.307005025438 23.438504594012294 0.2970504367302389
0.9869668296720924 13.02710021087828 3533.1105606362394 24.51157605908279 0.3013603086710329
1.0126773873505357 13.03356338431501 3106.7885851193832 25.63239658596488 0.3057551343181788
1.0386029171174185 13.03999340992022 2734.753603086043 26.80240378974629 0.3102323300803719
1.0647305404906515 13.046335997463265 2410.0308889302187 28.024848892726414 0.31480190466763486
1.091027499449208 13.052456386554827 2126.4371652477207 29.302225031128962 0.31946738851774814
1.1174949638003873 13.058306430441771 1877.9669465047614 30.636491413548192 0.32422805663433607
1.1440969798855811 13.06377769289453 1660.4560100956303 32.031513979620776 0.3290952559857175
1.1708291201549657 13.068805135746267 1469.7593794704032 33.4893695915798 0.3340675788108698
1.1976547986542814 13.073272210518722 1302.303676758244 35.01397968271969 0.33915473697361564
1.2245730479614623 13.077171379856091 1155.1696992431907 36.60820805461586 0.3443587960816578
1.2515459252801375 13.080383145816942 1025.7061876322969 38.27607722547787 0.3496880229724902
1.278556256284318 13.082841091644058 911.7006166783151 40.02084363297473 0.3551451364894865
1.3055745417288063 13.084464224142888 811.2384282238278 41.84743285212217 0.36074152557875855
1.3325945608575342 13.085247152357747 722.5907022021806 43.758742120729785 0.36647601762107895
1.3595733705121027 13.085072981885325 644.3149096101206 45.760584625656335 0.3723626983489433
1.3864842436843492 13.083863801170583 575.0371457178051 47.85761501701567 0.37840787370996587
1.413311023712456 13.081609834022249 513.8109915704199 50.05403483643594 0.38461449817542864
1.4400318004139103 13.078260035278678 459.5351391322125 52.356241605066195 0.39099575288244887
1.4665978701351368 13.073699326909372 411.4342077057431 54.769981865610134 0.3975599733325631
1.4929966275129514 13.067921743286611 368.71317661105184 57.30140061113939 0.4043161453035383
1.5191964506343747 13.060862276587601 330.8078706836391 59.95707692906706 0.41127395848665205
1.5451687257098945 13.052451441400327 297.07900798366853 62.744063040076846 0.41844386434197106
1.5708765407309588 13.042661714531093 267.0735855971381 65.66992706857053 0.4258371386615105
1.5962927481251954 13.031429280562673 240.35108363247144 68.74279992254878 0.43346594939127914
1.6213873476469287 13.018714533274347 216.53380866315456 71.97142670778533 0.44134343033064377
1.6461193994814318 13.004469032409933 195.3051268631173 75.36522315436751 0.4494837614020947
1.6704770298594802 12.988643523266836 176.32085168133693 78.93433759397789 0.4579022562674934
1.6944161547118108 12.971222047944643 159.35507074994084 82.6891273120823 0.4666130279312498
1.7179084200958161 12.95213995818644 144.1751500723408 86.64089120317334 0.4756319527197397
1.740912323505735 12.931349302040465 130.5940504339176 90.80311986218426 0.4849813838024339
1.7633924280385065 12.908797053649685 118.42362451891012 95.1873856106706 0.494673463169703
1.7853411097318692 12.884513010152697 107.49517965667238 99.80972602548611 0.5047353312698245
1.8066888883911887 12.858376786280932 97.69827181293837 104.68487910980734 0.5151860187865929
1.8274409931664681 12.830448107719581 88.8879081050775 109.82920719076148 0.5260478052626882
1.8475274336925709 12.80058699472564 80.97218690825372 115.26136536635036 0.5373482535042421
1.866954824858432 12.768869049245358 73.84825703601733 121.00075189357423 0.5491140361607689
1.8856477712793056 12.735161623230757 67.43323891297604 127.0684887770574 0.5613742859108495
1.9036066824114557 12.699517104210992 61.64736088839202 133.48759675392577 0.5741608075321663
1.9207895501522796 12.661884289830803 56.43096387946875 140.28278313866707 0.5875068954029852
1.9371764665041427 12.622271735654342 51.719575333630516 147.4805861247051 0.60144742678665
1.9527140784282597 12.580594578016939 47.46176810694002 155.11176600181034 0.6160265805206514
1.967376661770763 12.536836063235958 43.613326645113496 163.20644398008474 0.6312805042908406
1.981160097695357 12.491068256355046 40.127069101255564 171.8010112850203 0.6472604009014579
1.9940096093802855 12.443195619313109 36.974039672890996 180.93312840171828 0.6640146811303329
2.005891195524255 12.393195100598318 34.11400696095056 190.644194214109 0.6815966243835558
2.0168056179621208 12.341136011308725 31.521647825139645 200.97975510617658 0.7000648261732598
2.0267166633370644 12.286977391909348 29.169732591336214 211.98996474319492 0.7194837059004812
2.0355995066808723 12.230726642168797 27.031626927887668 223.72964823008223 0.7399226016375304
2.0434315666541853 12.172384292248607 25.09105581402957 236.2582421178666 0.7614543510437127
2.050182096323516 12.111925976067694 23.326767560450968 249.64257835973214 0.7841629520333777
2.055824840837147 12.049360307588078 21.720428803791382 263.9555377604621 0.8081375514980784
2.0603662680910246 11.984765230311778 20.259212594505467 279.27743686139826 0.8334751329726913
2.0637804131504027 11.918131984529602 18.92942879935059 295.6974213368314 0.8602829574715903
2.0660335379697536 11.849458096172592 17.717548965782836 313.31370107175997 0.8886769181308518
2.0671297508782294 11.778806659263601 16.614757675960355 332.23556614609515 0.9187853686292502
