M[M_sun], R[km], Lambda[1], P_c[MeV/fm^3], rho_c[fm^-3]
0.24162668629717493 15.618656898711224 2160425.4255784233 3.5677272577965504 0.1711233750220791
0.2536467463269965 15.277196116394782 1723072.535990108 3.784872609058996 0.1738888337106484
0.26604548809470524 14.981134399683455 1382908.0722807217 4.011512910518393 0.17666800764000543
0.27882332525845327 14.72338542989733 1116228.758617825 4.247902607204071 0.1794595369098625
0.29198223550600827 14.498208355536054 905681.8425165807 4.494667635461676 0.18227000143334982
0.3055211290857849 14.30102498969077 738524.5167634839 4.751966672772581 0.1850951676191695
0.3194418773262051 14.127904375866697 604926.1213390711 5.020477064957112 0.18794154558141418
0.3337437769686539 13.975725323591508 497529.97863744985 5.300429608896211 0.19080588999766643
0.3484284248207579 13.841796116898534 410863.2178629658 5.592545282756619 0.1936943425172814
0.36349565275091045 13.723734428261464 340515.84528363025 5.897001062207783 0.19660214490628022
0.3789524706401949 13.619829543427507 283182.25606335216 6.2146571445674255 0.199536895738076
0.39479023871329544 13.528225626971441 236308.4105676568 6.54576302582579 0.20249463193733958
0.4110201465897125 13.447658201510858 197773.14361236742 6.891037088315155 0.20547933407344368
0.4276330890791423 13.376849785874684 165989.54824002454 7.251177680870315 0.20849394935254645
0.44463295899845906 13.314735788214747 139719.65923550507 7.626432592722694 0.2115338444453823
0.4620176631323855 13.260387910465793 117906.1019643236 8.017773348055128 0.21460552771517447
0.4797902782423866 13.212993400482723 99748.43082759183 8.425895172077146 0.21771048194747208
0.49795237411967014 13.171836126371534 84586.84732921 8.851223966077495 0.2208459567131722
0.5164972621375339 13.136288312000898 71892.48822953952 9.294663169816829 0.22401578328227598
0.5354223499837293 13.105715562038087 61237.465833550516 9.757084303259996 0.22722267867835957
0.5547348013896751 13.079705136184106 52265.80010016224 10.239282168723378 0.23046779501220127
0.5744236696491398 13.057736947128168 44697.129086258086 10.741753062234512 0.23374815151170003
0.5944856416249642 13.039438866236146 38297.12116143486 11.265738475738239 0.23706987864311704
0.6149295934971907 13.024432176098639 32873.13122802843 11.812172099951518 0.24043453090551242
0.6357408416745549 13.012376532014903 28268.8156724599 12.382033945574747 0.24384374305400316
0.6569182358013487 13.002979009394153 24350.278779022206 12.975983831928277 0.2472951321717873
0.6784569303243783 12.995950029535164 21012.543704638436 13.595407538804032 0.25079413894663316
0.7003528592550092 12.991037949734883 18155.87530010507 14.241476125810374 0.25434308450626397
0.7225944544741731 12.98798338333505 15715.682720113928 14.915380593133516 0.25794395597974135
0.745189412007008 12.98665070579915 13621.650656670154 15.618110999594498 0.2615962468333939
0.7681168487764595 12.986758449673918 11823.743296572578 16.351013810846887 0.26530264776350304
0.7913690920134338 12.988151353755182 10279.157880036995 17.115668632437785 0.26906746520462965
0.8114831745665992 12.98898463616036 9122.343243930014 18.015860836084425 0.8752600230961254
