M[M_sun], R[km], Lambda[1], P_c[MeV/fm^3], rho_c[fm^-3]
0.24162668629717493 15.618656898711224 2160425.4255784233 3.5677272577965504 0.1711233750220791
0.2536359229257843 15.2774749563866 1723434.1205318493 3.7846728734482995 0.17388634410261672
0.2660224843468363 14.981666471554002 1383399.0383709325 4.011093033313104 0.17666293367177408
0.27878929881781916 14.724002036172465 1116974.514064279 4.247248390418744 0.1794519489810364
0.29193405406680684 14.498991918250459 906443.5703724503 4.493761919309497 0.18225991607378955
0.3054599640331749 14.301805079232876 739153.0224414369 4.7507787125410434 0.18508233538141272
0.3193651886200987 14.128778488860984 605521.4592762418 5.0189981175997245 0.18792620093176005
0.33365162574752405 13.976679939036226 498151.1573928708 5.298620747916965 0.19078767776904856
0.34832112849083713 13.842652594786985 411401.63964809885 5.590401999868131 0.1936736056657385
0.3633714993917478 13.724651926259455 341028.1285516772 5.8944752177051 0.19657842164018532
0.37881145587873305 13.62066381616231 283652.20758066647 6.211718183914708 0.19951009595566221
0.3946304767410733 13.529098035954911 236715.048343569 6.542414008365802 0.20246526557851643
0.4108421422935041 13.448471664963451 198145.0480819696 6.887213377600915 0.20544676974844328
0.4274339818979804 13.377656632586632 166335.49757461378 7.246843409953034 0.20845809304002624
0.44441532734878064 13.315490161033301 140031.75729679453 7.621599748391952 0.2114953718970009
0.4617810735931565 13.261083378403217 118179.92502252555 8.012357655416816 0.21456363295421768
0.4795309693491268 13.213632662351932 99987.07271545184 8.419854417621242 0.2176650639187835
0.49767091927668283 13.172426870735135 84803.28396584872 8.84458042899959 0.22079785466616317
0.5161904938982017 13.136800695888358 72087.66222339167 9.287309365354274 0.22396401204040334
0.5350927653974341 13.10620757687174 61404.263566884845 9.748970391480135 0.22716712654337087
0.5543820265259047 13.08015373215595 52410.98728648051 10.230370842391153 0.2304085454980267
0.5740427163816944 13.058126089689697 44827.87034103925 10.732051991120155 0.23368586763013013
0.5940872667882662 13.039803455355084 38415.16704834707 11.255117371003669 0.23700351778853274
0.6145012151406763 13.024712808564836 32976.74026696747 11.80056824397777 0.24036396010058583
0.6352844496943167 13.012606988668622 28361.313911132864 12.3693807090902 0.24376882230187044
0.6564317813899597 13.003137880702088 24433.716900993153 12.962339318822172 0.24721714573006873
0.6779466031013786 12.996085598213247 21082.8890363613 13.580578052372006 0.2507115723392368
0.6998140435447847 12.991140808806279 18220.199738601394 14.225382187485007 0.25425577410538397
0.7220272016969992 12.988033324885013 15771.907758188834 14.897937619146544 0.25785172840109344
0.7445917422612698 12.986660731386078 13670.501533021234 15.599399114909527 0.2615006040909679
0.7674909379996986 12.986743075572026 11870.051895307219 16.33077969991073 0.2652017857953766
0.7907142901958899 12.988095529514274 10318.99552830818 17.093810789826765 0.2689611779176988
0.8142659431684568 12.990602484527672 8983.515543212176 17.889942431674665 0.2727812031914303
0.838126476203099 12.99404300987419 7831.82056153597 18.720698712929234 0.27666438717227004
0.862283777593552 12.99829783963824 6835.658772750079 19.587101572269646 0.2806083508082369
0.88673497567519 13.003221245210726 5974.193179804245 20.491383815279015 0.2846208371312481
0.9114721982678717 13.008705408816459 5227.932704993577 21.435332913567887 0.28870484626857834
0.9364704208242347 13.014584536881664 4580.7365339539565 22.420634842805327 0.2928619485300166
0.9617249422509019 13.020778082937117 4017.9264745323344 23.4489032756343 0.29709266886605523
0.9872260350284203 13.027166524498021 3528.5320016481014 24.522747949621458 0.30140468928859765
1.0129460588919983 13.033630567695631 3102.69693705194 25.644349321873715 0.3058014398188971
1.038885784486721 13.040067546864684 2731.0181916767383 26.815180975589392 0.3102805999877051
1.0650175206802244 13.046407554148342 2406.7535311928254 28.03856106426026 0.31485263195264773
1.091323310245878 13.052526592445647 2123.4325966232786 29.31682364530591 0.3195199345651904
1.1177994722328743 13.058370904547814 1875.4560070560826 30.65215048119407 0.3242832950101392
1.1444132459510057 13.0638400591757 1658.154937717159 32.04830682824709 0.32915333218884624
1.171149947047317 13.068859917780504 1467.5962762978609 33.50724266687491 0.33412781291740545
1.1979845439162102 13.073324222682293 1300.4408180771213 35.03314154890808 0.33921810007030695
1.2249104201878003 13.077218353164422 1153.4591663750498 36.628603180659276 0.3444245876011762
1.2518913820933883 13.0804149061985 1024.1680010352775 38.297939852787984 0.3497572789830442
1.278909733661014 13.08286363982644 910.3388592336659 40.044116851881995 0.3552171360537055
1.305934632408521 13.084479314823554 810.0356041252504 41.872239175916576 0.3608165871495669
1.3329536665177053 13.085228879274151 721.4870001756528 43.78530588782364 0.36655497887465055
1.3599458483904476 13.085056928213293 643.3137673013829 45.788876746214484 0.37244496799233234
1.3868619239643543 13.083845817065578 574.1184320835923 47.88782377480598 0.37849401895033763
1.4136948405213832 13.081572025011846 512.9571513049913 50.08635475805383 0.384705062157531
1.4404212647663368 13.078202050840769 458.78778497277494 52.39068913518708 0.39109033289378664
1.4669914126807018 13.073620709713326 410.7658805779118 54.806709237475374 0.39765883681235054
1.4933948982663123 13.06782239203335 368.1077042826267 57.34057237451066 0.40441958034058245
1.5195986217302766 13.060737187002633 330.26355936566927 59.99887105150321 0.4113822755125146
1.545572744077386 13.05231001838545 296.56868248184765 62.78867211795389 0.41855739799174707
1.5712839001104741 13.042494154331175 266.6577442291463 65.71755966004687 0.4259562498201737
1.5967014362997138 13.031236171135745 239.9402565819912 68.79368201616619 0.43359102744566597
1.62179086014717 13.018475917823086 216.17657943000455 72.02580334207452 0.4414748956495327
1.646529554420042 13.004217664460654 194.95508254773054 75.42336020572982 0.4496220680695354
1.6708940422498506 12.988374138326078 176.01518406481514 78.99652375227552 0.4580478950976077
1.6948273218097842 12.970906330017502 159.07820480762553 82.75535932886835 0.4667652289129252
1.7183152328664142 12.95178670963148 143.92647847529958 86.71181206850919 0.47579255358599576
1.7413165864882925 12.930961474237431 130.36939473205385 90.87875912610414 0.48514965332284343
1.7638011125873287 12.908400211032967 118.21418396399102 95.26847019136072 0.4948513808450442
1.7857336081822617 12.884056223454857 107.30819343884814 99.8963264723526 0.5049222112771083
1.8070752373163241 12.857876241866803 97.53112098138949 104.777822189819 0.5153840111726843
1.8278247746524456 12.82990676450405 88.7306791846826 109.92861473922633 0.5262562786411111
1.8479035033559195 12.80000049268158 80.83231253659795 115.36777175002707 0.537568052374898
1.867322037985436 12.768245060161282 73.71734685801091 121.11474093093993 0.5493460760685235
1.8860164563495945 12.734511131705135 67.31237255599714 127.19069890317323 0.5616195606588322
1.9039543491218798 12.698788620569676 61.53977338386268 133.61872679159828 0.5744203972062623
1.92112141479636 12.661096919946925 56.329471669848886 140.4231331883506 0.5877803506721951
1.9374917907697387 12.621415098121561 51.62980966086356 147.63144268024803 0.6017376068768185
1.9530095931172937 12.579653555138982 47.37912020452004 155.2736033316844 0.6163333529294849
1.9676737452077901 12.535907834290404 43.53703338161574 163.38064914995468 0.6316066919790638
1.9814312296691963 12.490050226216269 40.059992709359406 171.98821427558616 0.6476060507551862
1.9942731064491146 12.442152458713243 36.908914970702526 181.13451320423425 0.6643815063404741
2.006139380065704 12.392093594923319 34.057822810658365 190.86106510633243 0.681986495787481
2.0170337906007005 12.339972840397511 31.46846378972305 201.21355063683842 0.7004797901781572
2.026925348465534 12.285754877176586 29.12115186666403 212.24227353247366 0.719926004603464
2.0357868462343314 12.229439460749186 26.98601063672754 224.00161793187448 0.7403927077417587
2.043597328954523 12.171032305096466 25.04965248480104 236.55240309822355 0.7619568893513511
2.0503184670101695 12.110497457869178 23.287227513179214 249.96043817439403 0.7846987918322142
2.055943812095112 12.047881480819502 21.68495258382637 264.29944386616535 0.8087098312384922
2.0604607440424463 11.983223931469885 20.227327477657816 279.64999676909275 0.8340873071254283
2.063841462962567 11.91651494252425 18.89886395920469 296.1015357446404 0.8609388356212839
2.06607368281331 11.847785550566368 17.6900556318042 313.75189197423964 0.8893783755802044
2.0671396562610087 11.7770699436606 16.588441014615523 332.71189377572415 0.9195385425184363
