M[M_sun], R[km], Lambda[1], P_c[MeV/fm^3], rho_c[fm^-3]
0.24162668629717493 15.618656898711224 2160425.4255784233 3.5677272577965504 0.1711233750220791
0.2536448118458824 15.277241160267858 1723228.3460985844 3.784835503126241 0.1738883712030971
0.26604088112888274 14.981248713250993 1382987.800998934 4.011434905348329 0.17666706499356072
0.2788170816140643 14.72349086013152 1116400.889901028 4.247781062634465 0.17945812717601883
0.2919728309243447 14.498356661541962 905849.08403688 4.4944993609061346 0.18226812765711936
0.3055092443480448 14.301167567066072 738595.4769522718 4.751745953184028 0.18509278342636346
0.3194279333540555 14.128040456304454 605039.3827718424 5.020202273239259 0.1879386945112816
0.3337274887424083 13.97591116085895 497654.3917909524 5.300093508958498 0.1908025060289843
0.3484084445417583 13.841967593656259 410970.32779029285 5.5921470341877955 0.19369048935282362
0.36347149201004686 13.72394388610885 340639.22356772854 5.896531715933812 0.19659773670675082
0.3789261805078898 13.619949903508516 279361.01748075476 6.214111019033215 0.19953191573078197
0.39476053996029953 13.528396643330883 236372.41211278032 6.545140686802579 0.20248917486484486
0.41098683524315704 13.447810399939007 197838.55116281254 6.890326519142091 0.2054732825681871
0.42759602705648053 13.37700713618627 166059.533391245 7.250372211499993 0.2084872859108699
0.4445918248043598 13.314887032879753 139782.4532829301 7.625534448239971 0.21152669463779483
0.4619756668435039 13.260519118458653 117965.77950446156 8.016766859459407 0.2145977417121755
0.47974137334000033 13.213113565123512 99790.16125674796 8.424772488343525 0.2177020409352783
0.49789979325633876 13.171951207732192 84628.17106574103 8.849989225770445 0.2208370166657852
0.5164406178283737 13.13636400699436 71929.93942868982 9.293296386761472 0.22400616104435728
0.5353604588183425 13.105814816719072 61264.722118043195 9.755576207218308 0.22721235345457644
0.5546683785051347 13.079798500621942 52295.418752739635 10.237638486279163 0.23045694517120377
0.5743533001612008 13.057839823207221 44720.911046101595 10.739949881804888 0.23373657453478647
0.5944118642898409 13.039497279971757 38321.58333215279 11.263764234280638 0.23705754354676348
0.6148516033111264 13.024474877869995 32894.492349106375 11.810015130612973 0.24042141293311017
0.6356561492148673 13.012434593509223 28053.614596381172 12.379681853467508 0.243829816142104
0.6568286819836999 13.003022786244602 24365.678919822654 12.973447418493382 0.24728063507269873
0.6783619571677563 12.995968768972238 21022.99207312802 13.592650777777896 0.2507787900398201
0.7002528520386181 12.991055687507734 18167.935533193722 14.238484230737225 0.2543268533294727
0.7224888019735314 12.987994113428575 15725.235223306634 14.912137827284768 0.2579268102543292
0.745078044295998 12.98663896014058 13630.606346914929 15.614632261625466 0.26157846583243427
0.7680003225026552 12.986752047721621 11833.273989181293 16.347251979293127 0.2652838959767075
0.7912478359428128 12.988147990507386 10287.646902667117 17.111604820710067 0.2690477042643199
0.8148226657487838 12.990679276364489 8953.959210816987 17.90914630825185 0.272872324212646
0.838708501714765 12.994138129731816 7805.465067938947 18.74122727891013 0.27675870531118696
0.8628900303843725 12.998418911248342 6812.35215852158 19.609221616794397 0.2807075894976374
0.8873731514745327 13.003369912745846 5953.6964404459095 20.51520173257499 0.2847252109378655
0.9121284934055942 13.00886614260502 5209.427511747545 21.460962380581368 0.2888145842243699
0.9371537553585315 13.014747190034074 4563.83324535089 22.447969130460795 0.29297547959915415
0.9624394752693783 13.020969373684489 4003.429207509248 23.478285226527028 0.2972119976988588
0.987961812004106 13.027348984405238 3515.4760574426496 24.554315769185077 0.3015300932497763
1.0137060419528945 13.033802372579357 3090.774347455528 25.677980860627347 0.3059312304040161
1.0396724612499235 13.040260876521016 2720.5964350987456 26.851287153258955 0.3104170026253177
1.065825164545486 13.046587084559953 2397.482856876362 28.07731077617251 0.3149959839866773
1.0921585092891006 13.052723413233299 2114.934141140068 29.35807961343294 0.3196684307191542
1.1186592240685076 13.058551527018732 1867.7676042900866 30.69640496492363 0.32443940556911427
1.1452918144588715 13.064005867004882 1651.5281272003208 32.095630726505185 0.32931658559820093
1.1720573589420271 13.06901909934378 1461.5255524187717 33.55775767278692 0.334298053695644
1.1989143521010774 13.073482124919382 1294.9754681594582 35.08730117968514 0.33939719128657764
1.22586243655089 13.07734065884854 1148.6327003663914 36.686250348048866 0.34461054843958533
1.2528593632606835 13.080500666874102 1019.8524359890725 38.35969180799144 0.34995277267378255
1.2799038745665798 13.082944592030927 906.3814270841162 40.10990373417158 0.3554206586895321
1.3069485742781024 13.08452654125751 806.5093645859084 41.942287167466354 0.3610283528402461
1.3339872510483155 13.085243212937955 718.3247793989415 43.86039979683559 0.366778196807944
1.3609967873784745 13.085031536637029 640.382631756023 45.868859317640805 0.372677546445229
1.3879293764579563 13.08376797710076 571.5891028092931 47.97303640120161 0.3787365615922939
1.414779865101756 13.08146315336097 510.6338618848198 50.17773113783114 0.38496110884355217
1.441511667717451 13.078020059883402 456.7172386918982 52.48808430243208 0.3913577435322257
1.4681073833156015 13.073416999532023 408.8647324470327 54.910554134851424 0.3979383685999893
1.4945174681541789 13.067546268085168 366.39472541315376 57.45133283624844 0.40471204898321894
1.520729861282041 13.060396015904852 328.7197289292713 60.117050925807135 0.41168856002706483
1.5467142660857365 13.051904951927211 295.17702186630385 62.914816700812686 0.4188784459840617
1.572430446587022 13.042018731856695 265.3620560385756 65.85225947510985 0.4262930832895817
1.5978444051565617 13.030679575552313 238.8152559165034 68.93757697956485 0.4339447491732605
1.6229420604879303 13.017857264641743 215.15326063405965 72.17958735584074 0.4418466962339945
1.6476943247285327 13.003513047182166 194.01852083093922 75.58778622887783 0.45001323368198476
1.6720416612545785 12.987577299366567 175.15624054191284 79.17204132533513 0.4584582790155196
1.695979858739549 12.97001580349773 158.30180489713578 82.94269526404003 0.46719572634633894
1.7194603890684266 12.950798232016185 143.22187258735119 86.91241960409752 0.47624683095331793
1.742441450771981 12.929853572040901 129.72427268427515 91.09272179470344 0.4856256415036497
1.7649246544013741 12.907193917509355 117.6333041784639 95.49784733048543 0.49535468550571016
1.786849870056502 12.882755079140578 106.7793808313179 100.14131775060991 0.5054508918269419
1.8081877235539314 12.856487150397863 97.04658270466294 105.03974208401726 0.5159402733653906
1.8289006586220626 12.82835548010145 88.29630187468298 110.20966980042296 0.5268453796038811
1.848974175606688 12.798368271348503 80.43167471567394 115.66883710454209 0.5381899495076592
1.8683492554900796 12.766422710428456 73.35616691621794 121.43727631120744 0.5500026399067174
1.887024246120401 12.73259580716174 66.97894584551456 127.53642776567553 0.562313301497524
1.9049469726407686 12.696769754613191 61.2313896606236 133.9888936045998 0.5751517866294312
1.9220856057404125 12.658943552949255 56.05055361213995 140.82031730017025 0.5885542163635039
1.9383983579506867 12.61904562406922 51.37137598683478 148.05838341644142 0.6025588486245126
1.9538916692084056 12.577192795724873 47.143940856001024 155.73150596359432 0.6172011242536538
1.968507579441594 12.533249508988572 43.32366814912129 163.8734440937055 0.6325289956232228
1.9822183509486473 12.487242309248739 39.8631665134209 172.5181072079279 0.6485844401174605
1.9950032613069335 12.439151266508578 36.72977465129979 181.70458158896224 0.665419893807702
2.006837042106129 12.388983413350564 33.89024796797949 191.4750071867983 0.6830901868286624
2.017679968155122 12.336698321146857 31.314431617270028 201.87544577110313 0.7016545887509058
2.027513969343076 12.282305922754249 28.980807693494192 212.9557441394143 0.721175378154684
2.0363205524983212 12.225824197201133 26.858975719570733 224.77168396539085 0.7417237852133639
2.044059280795168 12.16722183466963 24.932429452238427 237.38419823033976 0.7633761109206904
2.0507151564734833 12.106501967986858 23.17836547107797 250.8603283179986 0.7862154373340628
2.0562844820548296 12.043742721014059 21.58628167863761 265.2733891262917 0.810330526495524
2.060726307215849 11.97888233451194 20.13460236019747 280.7046930408496 0.8358195643972826
2.06402688952663 11.911976086868224 18.814952101900033 297.2445054207828 0.8627911383431941
2.0661835553104275 11.843061978183828 17.611912761075608 314.9931317901325 0.8913653563923666
2.067170981972537 11.77215886545339 16.517696075715683 334.05987565353496 0.9216675722184058
