M[M_sun], R[km], Lambda[1], P_c[MeV/fm^3], rho_c[fm^-3]
0.24162668629717493 15.618656898711224 2160425.4255784233 3.5677272577965504 0.1711233750220791
0.2536453637959346 15.277250846279127 1723028.8542671967 3.7848487363731893 0.17388853614913638
0.2660427860062986 14.98121313319982 1382942.4640566078 4.0114627245401255 0.1766674011720758
0.27881976880574694 14.723434954785281 1116482.5656034532 4.247824409211051 0.17945862993098533
0.29197655137364764 14.498298586294817 905777.3221137798 4.4945593725973865 0.18226879590122944
0.3055138054840448 14.301115580338378 738579.7852416544 4.751824667991386 0.18509363369651238
0.31943196097821047 14.128019043054016 605011.1556619548 5.0203002712915294 0.1879397112788977
0.33373021387442464 13.975872705478034 497594.19756583904 5.3002133706572545 0.19080371283740427
0.34841558371954046 13.841904697970717 410924.8298698126 5.592289059101498 0.1936918634829334
0.3634813202594886 13.723843203765755 340605.4375527034 5.896699095299453 0.19659930876917417
0.37893620479066786 13.619917714126947 279333.2749078348 6.214305778811536 0.1995336917054542
0.39477038925060376 13.528348515691693 236348.58716172643 6.545362625085063 0.2024911209637583
0.41099843821562015 13.44775704718768 197814.32029074748 6.890579921020345 0.20547544064491827
0.42760891768069115 13.376954014293618 166031.46703189117 7.250659455382339 0.20848966220589424
0.4446072872401826 13.314818878529948 139768.21030253367 7.625854740492431 0.21152924437007165
0.4619895853558336 13.26046645985244 117939.1859198544 8.017125787513386 0.2146005183108539
0.47975904462438895 13.213086857389616 99779.7517788905 8.425172851682534 0.21770505110788999
0.49791875254233986 13.171927834060728 84614.85210245855 8.850429548421689 0.22084020478991562
0.516461104371958 13.136320906254857 71916.08812511645 9.29378379552808 0.2240095924324606
0.5353815432457091 13.105785422093131 61253.46219761715 9.756114007597295 0.22721603552064532
0.5546915280810544 13.079754281460938 52283.72628879741 10.238225007478919 0.2304608190836399
0.5743780165664312 13.057788490216307 44712.01237521624 10.740592907366842 0.2337407029580786
0.5944376882756687 13.039482909777776 37980.14757517728 11.264468258650927 0.23706194230376929
0.6148785734542014 13.024465911563972 32888.05358696989 11.810784313780385 0.24042609085012182
0.6356864269829353 13.012419386592605 28279.67759389225 12.380520614992417 0.24383478251133156
0.6568603111322345 13.002990384029957 24360.03118449849 12.974351906587597 0.24728580475574247
0.6783954804573668 12.99596097699095 21018.053429324875 13.593633838429719 0.2507842634581518
0.7002880664064194 12.991038655180247 18163.873461719235 14.239551136186908 0.25433264134360756
0.722525732963694 12.987999979480467 15721.431546718262 14.913294188575277 0.25793292437236576
0.7451175970920828 12.986650600073807 13627.286152078354 15.61587276608868 0.2615848064683911
0.7680420788251028 12.98675647814519 11829.746510982268 16.348593428824408 0.2652905827661738
0.7912913853922392 12.988153331344183 10216.012884676782 17.113053949373636 0.26905475088629466
0.8148679667508408 12.990674546579763 8951.316107580153 17.910710296639024 0.2728797452257126
0.8387562036287416 12.9941474548902 7803.425745278595 18.742899189494608 0.27676638687525285
0.8629406216481639 12.998423292122114 6810.272314614772 19.611023192446208 0.28071567203139275
0.8874242466537229 13.0033830898156 5951.9594940118095 20.51714164634876 0.2847337119408106
0.9121850916039264 13.008879366161748 5208.252496643417 21.463049899530926 0.28882352237599357
0.9372086233157307 13.01477718519779 4562.8990024092045 22.450195557737846 0.29298472691052757
0.9624966668880446 13.02097675881933 4002.0323462854262 23.480678507650847 0.29722171752461574
0.9880217607188974 13.02735896268538 3514.4648421271995 24.556887171912667 0.3015403082121108
1.0137680732697962 13.033822634016822 3090.198802208868 25.680720430070863 0.3059418029301099
1.0397353507968425 13.040280688897429 2719.6414693959873 26.854228388051173 0.31042811408073584
1.0658904917646161 13.046612452482462 2396.6153597823727 28.080467447615302 0.3150076618869701
1.0922263421115839 13.052740629573245 2114.3513934702137 29.361440532033438 0.3196805279625014
1.118728478102993 13.058569669025614 1867.1395740029873 30.700010265220104 0.3244521234995277
1.145364117282208 13.06402692068186 1650.8445139866978 32.09946863964011 0.3293297722897133
1.1721316037022094 13.069032402849144 1461.0883585180545 33.561873226939056 0.3343119235374681
1.1989907823183032 13.073491234317999 1294.557438453154 35.09171380441243 0.3394117826402855
1.2259398716969345 13.077350131684184 1148.2563550772813 36.690947235984886 0.3446256998730043
1.2529391268603374 13.080512323846147 1019.4667491841844 38.36469202461101 0.3499685178765641
1.2799853767333405 13.082949680624786 906.0527134940712 40.11526412551415 0.35543724194955495
1.3070385901539971 13.084550753315776 806.2111915074527 41.94799490918215 0.361045608208172
1.3340720743132233 13.08524006227566 718.0558972433763 43.866518897649215 0.366796385940128
1.361081785297316 13.08503000142839 640.1489693679855 45.87537695339071 0.37269649884463585
1.3880237444391732 13.083777043732526 569.1171862938395 47.97998041730138 0.378756326503691
1.4148680829724964 13.081454870001915 510.43606431793273 50.18517769697491 0.3849819749229008
1.4416014178622565 13.078010010800153 456.52818479327993 52.496021580823 0.3913795363248459
1.468197668977713 13.073399230153862 408.7080110527957 54.91901728667609 0.39796114988263664
1.494608553491198 13.06752381524223 366.2536692015807 57.46035986366212 0.40473588530904586
1.5208218497711938 13.060369122528268 328.5953851806294 60.12668293396328 0.41171352311794324
1.5468069272863063 13.051873650084445 295.0670844502497 62.925098178344214 0.41890461316179317
1.5725246588945314 13.041979284299659 265.25763519091157 65.86323860289718 0.4263205379501687
1.5979377006737006 13.030635566025408 238.72245859986418 68.94930597096993 0.43397358130890135
1.6230471430556033 13.01781859295918 215.06187108951846 72.19212283197761 0.4418770030080216
1.6477886746856296 13.003454168733285 193.92553934116717 75.60118963293368 0.45004512006259556
1.6721372704262496 12.987508020037097 175.10013590326213 79.18630937078976 0.45849156620232817
1.696073958029445 12.96994630469336 158.23648075452945 82.95796719800975 0.4672308212061223
1.7195528582977928 12.95071870975636 143.16270947033837 86.92877406511705 0.4762838657609793
1.7425357567578847 12.929769318475335 129.6798300995231 91.1101655893461 0.4856644475258996
1.7650157271160858 12.907098321912343 117.57704532662993 95.51654855180571 0.49539572016106664
1.786926033425447 12.882618143427187 106.73737207959698 100.16129268386453 0.5054939968663175
1.8082765374429086 12.856373015642943 97.00634490212884 105.06109433835745 0.515985614922238
1.8289802236370971 12.828215741946105 88.25752021156845 110.2325123900434 0.5268931373824712
1.8490604859345208 12.798234346713073 80.40275438851533 115.69338676390738 0.5382406606324717
1.8684326626079268 12.766276594905253 73.32650264098983 121.46357771656916 0.5500561799296441
1.8871071968918331 12.732436764934473 66.95160481683243 127.56452859732407 0.5623695430872203
1.9050268977849754 12.696601705371783 61.20658032732648 134.01905185487817 0.5752113283795344
1.922164022985242 12.658763230584357 56.02848023273508 140.85270986696003 0.588617329401881
1.9384716432724407 12.618854778064467 51.34919891241492 148.09320434394624 0.6026258284110173
1.9539623811994715 12.576989197592026 47.126121107363005 155.76885364360723 0.6172719018458338
1.9685723237227932 12.533033105033658 43.304833139861955 163.91354492201444 0.6326039043037651
1.98228391237192 12.487012889711941 39.848831842121754 172.56133054433334 0.6486642472821913
1.9950634417867776 12.43890991910614 36.71570283006574 181.75108416431837 0.6655045988935079
2.00689367390883 12.388727597272366 33.87556346752319 191.52509108232604 0.6831802232483186
2.017732528955637 12.336430315089176 31.3037868420296 201.9294442239745 0.7017504306782444
2.027561800060818 12.282025042637077 28.96921213320926 213.01388892232399 0.7212770989736927
2.036362496871449 12.225530136610539 26.8485457123998 224.8345134593106 0.7418323874893623
2.044097634412556 12.166910641551512 24.923019916494873 237.45201861744025 0.7634917509107836
2.0507475847060714 12.106177085241471 23.170023404973747 250.93362975518903 0.7863387757330342
2.056310709804946 12.043403101905684 21.57797798689048 265.3527153913294 0.8104622893201879
2.0607464755268983 11.97852737140881 20.127054562475625 280.79064829272846 0.8359605510162735
2.0640418340360647 11.911603642683728 18.80755318706744 297.3377619073401 0.8629422305612182
2.0661887391518965 11.842672803937708 17.60675725930148 315.0944386504633 0.8915275287502303
2.067173984841067 11.771759641802303 16.511678171628407 334.1699012925194 0.9218413489263957
