M[M_sun], R[km], Lambda[1], P_c[MeV/fm^3], rho_c[fm^-3]
0.24162668629717493 15.618656898711224 2160425.4255784233 3.5677272577965504 0.1711233750220791
0.2536434949087941 15.277288449728232 1723183.6953218384 3.7848099002027187 0.17388805207500665
0.2660383170314762 14.981317023498049 1383002.1182329773 4.011381082771183 0.1766664145794798
0.278812552153948 14.723563781042847 1116379.0686710735 4.247697199376493 0.17945715448860558
0.2919667411874018 14.498458570775623 905946.5034945378 4.49438325620182 0.18226683480429032
0.3055013812367664 14.301270828682158 738700.6353963815 4.75159366459259 0.18509113841892877
0.3194179047443302 14.128173526552947 605130.2776928715 5.020012678831405 0.18793672739612338
0.33371535329068525 13.975960731301708 497742.4989817558 5.299861617065385 0.1908001712623989
0.3483947379806738 13.842079350829696 411039.86342259194 5.591872265696844 0.19368783089208746
0.36345500175382156 13.724074734241746 340676.9702130283 5.896207897597379 0.19659469533640778
0.37890950604755186 13.620040684281141 283313.91613618564 6.21373423200925 0.1995284798868045
0.39474009048653425 13.528511504788698 236428.8795947859 6.5447113221571325 0.2024854099169475
0.4109640338805664 13.447927036415154 197891.76578980673 6.889836287778814 0.2054691075521798
0.42757057245933433 13.37710810305784 166105.72465586825 7.249816512941693 0.2084826887591104
0.44456498711526987 13.314969461276215 139823.91330092613 7.624914818254753 0.21152176198469172
0.46194576342382626 13.26059949817239 117997.19270092307 8.016072489918676 0.21459237020240426
0.479708139938629 13.21319878673952 99823.72176916001 8.423997964418545 0.21769621759812705
0.4978648803059487 13.172013328792941 84656.3531886541 8.849137403147616 0.22083084910604012
0.5164010658875527 13.136433143742277 71947.60826748708 9.292353479907433 0.22399952292132147
0.5353181351762348 13.105882510468557 61286.184772335495 9.754535822696234 0.22720523043143068
0.5546236251572255 13.079848988690058 52308.25028244891 10.236493842147569 0.23044932228781448
0.5743046040452442 13.057861133851764 44737.27080179491 10.738705951487686 0.23372858811682864
0.5943606038135798 13.039535788927948 38335.4044627258 11.262402310318208 0.23704903422120044
0.6147952652980014 13.024519550076924 32907.12462241695 11.808527167049565 0.24041236363203228
0.6355954775926218 13.012439969828717 28297.122102172907 12.378059302365354 0.24382020889663003
0.6567661005907501 13.003030835487325 24375.62751439335 12.971697730887582 0.24727063457583714
0.6782955905258018 12.995992025990613 21032.240496044164 13.590749106949566 0.2507682020461361
0.7001836636968582 12.991060794526584 18040.135237477887 14.236420379772579 0.2543156568372632
0.7224152128684874 12.988010529042539 15733.427347740513 14.909900944079734 0.2579149830096246
0.7450019536344298 12.98665420893051 13540.900421003433 15.612232622612042 0.2615662004695411
0.7679209735682025 12.986749614624557 11838.1113607714 16.34465708730616 0.26527096109097387
0.7911638319733775 12.98812950114764 10291.508295720787 17.10880165191697 0.26903407340371166
0.8147364357316962 12.990650783093784 8958.543641026206 17.90612097533087 0.27285796922425765
0.8386177243521991 12.99412072632115 7809.641946087231 18.737993200629788 0.27674384639484584
0.8627954814875486 12.998387783350035 6816.161853492671 19.605736740894127 0.28069195505726907
0.8872696631246026 13.003329914420066 5956.910663690265 20.511449285647586 0.28470876713360355
0.9120294318472668 13.00883980719446 5212.545344434857 21.456924440583492 0.28879729493463385
0.9370466425953439 13.014729436423519 4566.599811577118 22.443662518313094 0.2929575923841057
0.9623229463397676 13.020928502523311 4005.7271312224057 23.473655895491884 0.2971931966100168
0.9878458816457671 13.027316706977157 3517.480721524443 24.549341928431623 0.3015103345416559
1.0135864388422682 13.033776982302175 3093.034367632394 25.672681763658286 0.305910780168264
1.0395487639697862 13.040227694920768 2722.2661362651206 26.845598015330893 0.31039551008666594
1.0656975266001827 13.046555140952377 2398.9920941760347 28.0712049654337 0.3149733959377444
1.0920268618888858 13.052687232825285 2116.3226490384063 29.351578770493617 0.3196450316761105
1.1185238112587979 13.058525140265086 1869.1436493180775 30.68943147365822 0.32441480612680457
1.145152954782786 13.063981155048502 1652.577680676588 32.08820734752864 0.32929107959921095
1.1719146078244858 13.068994827799134 1462.5915104143508 33.54979732778909 0.33427122651225544
1.1987678814936884 13.07345183564856 1295.7976906954552 35.078766296016 0.339368968740096
1.2257119859625145 13.07731957703414 1149.4167779768034 36.67716569396064 0.34458124275177093
1.2527054158776738 13.080488425323207 1020.4628886515868 38.34999842987437 0.3499221891428791
1.2797461441802305 13.082928541161307 906.9652543677154 40.0995358729004 0.3553885839904377
1.3067894839071574 13.084522345951196 806.9876931299912 41.931247538782415 0.3609949783702381
1.3338251593251973 13.085238720957307 718.7811924284186 43.84856462389336 0.36674301655325897
1.360831485527915 13.08503310430064 640.838148164044 45.85625339980822 0.37264089014855634
1.38776127498952 13.083778183403847 571.9928289609583 47.95960589308031 0.37869833403071834
1.4146166429882236 13.081494822565407 511.000601271118 50.16332876434119 0.384920751805859
1.441339428440749 13.078043050722505 457.0305201667673 52.472732927662015 0.3913155944087702
1.467931870384176 13.073453781658799 409.15345433400694 54.894185782243405 0.39789430793855257
1.4943410238425816 13.067589319187748 366.6633549955359 57.43387402293724 0.404665948097117
1.520551992070352 13.06044827068912 328.9527659283623 60.09842216961366 0.41164028023677907
1.5465341297681237 13.051968977653951 295.388720590859 62.89493197804233 0.4188278377837056
1.5722499289099352 13.042093931342102 265.55905463494315 65.83102562367998 0.42623998543014757
1.5976736441595127 13.030772463529749 239.00648787448537 68.91489304131328 0.43388898765362505
1.622760772565665 13.017959679290923 215.31179466241326 72.15534385111694 0.4417880831896021
1.6475126702038287 13.0036276223335 194.17272684318877 75.56186435565911 0.44995156615990217
1.6718613085778746 12.9876993125365 175.2944464863398 79.14444743440949 0.4583939027836847
1.695799160713787 12.970158732277936 158.41995092970015 82.91316012393234 0.46712785468039175
1.7192636191077806 12.950920130111061 143.33525594088687 86.88079117030817 0.4761752081122706
1.742267271176359 12.930023513712127 129.8260813840096 91.05898690233805 0.4855505937855042
1.7647462896419626 12.907384059024032 117.71863076005911 95.46168098700088 0.49527532847255296
1.7866739095522044 12.882957788374148 106.85997312145746 100.10268846456354 0.505367531503538
1.808014311153781 12.856711806753363 97.1206776511109 104.99844953611368 0.5158525885533648
1.8287261795267733 12.828586981390027 88.36267638936648 110.16549549038224 0.5267530228722953
1.8488079194831277 12.798631633566982 80.49319694716236 115.62136201767183 0.5380918823605783
1.8681953133863503 12.766733171596385 73.40693070950978 121.3864140673823 0.5498991030172224
1.8868678986046454 12.732895951376548 67.03323541429069 127.48197854238406 0.5622041565705673
1.904792565000947 12.697096121849798 61.28022015095364 133.93057389541 0.5750366454153816
1.9219376952167586 12.659289633164763 56.093956171851964 140.75767748753353 0.5884321701877707
1.938254238375195 12.619412877738862 51.41098953926002 147.99104836943633 0.6024293263114708
1.9537544433293406 12.577585256937354 47.17832063783617 155.65928545575767 0.6170642591619286
1.968374025804429 12.533669668964118 43.35419252279863 163.79590045606233 0.6323841434636729
1.9820940768880502 12.487683662082317 39.894564516255876 172.4345264268519 0.6484301173437372
1.994888562084142 12.439620690946928 36.75871729503643 181.61466066796842 0.6652561016032875
2.006721665252954 12.389461065165227 33.91724545162439 191.37816217050343 0.6829160873813879
2.017580735657024 12.337216773100097 31.339835178696593 201.77103248727457 0.7014692654716314
2.0274209942784123 12.282847164830383 29.001407992817597 212.84331453460388 0.7209786892875178
2.036236796935605 12.226396641899008 26.878662854617644 224.65019736222612 0.7415137927276079
2.043987907189496 12.167818856805212 24.95106511572886 237.25306275648651 0.7631525128914608
2.0506534063594906 12.107130929648942 23.196233795979293 250.71854477449926 0.7859767881984085
2.0562264670120625 12.044378954864547 21.60042819918888 265.1197220050267 0.8100748217187128
2.0606860237776456 11.979568435191187 20.148762842014413 280.5384986481469 0.835546966911844
2.063997985112198 11.912688496285824 18.82750039333524 297.06419649065606 0.8624990055684337
2.066165426976475 11.843805804331478 17.623811286815073 314.79726037794245 0.891051804786392
2.0671678223144028 11.772929691530264 16.528873745006614 333.84714983851103 0.9213315887859937
