M[M_sun], R[km], Lambda[1], P_c[MeV/fm^3], rho_c[fm^-3]
0.24162668629717493 15.618656898711224 2160425.4255784233 3.5677272577965504 0.1711233750220791
0.25364048435730097 15.277399498757525 1723215.7635527349 3.784772182085669 0.17388758193687345
0.2660342429554239 14.98139783765389 1383094.2721770974 4.011301792522604 0.17666545640361964
0.2788066569789022 14.72370009422219 1116561.7713873086 4.247573655267452 0.1794557215631177
0.2919584024104168 14.498566393380301 906092.7854250082 4.4942122171516745 0.18226493024477086
0.305489633608172 14.301445245968324 738842.1972543234 4.751369323976243 0.18508871511211172
0.31940329717224236 14.12834589083087 605184.4473578086 5.019733384957288 0.1879338296143819
0.33369736066248423 13.976182580130342 497828.50757671223 5.299520018013907 0.19079673192676583
0.34837347538039526 13.842265241071972 411139.3268208256 5.591467509462984 0.19368391476418026
0.36343256067863006 13.72422105247622 340772.47189813975 5.895730892117815 0.19659021519999859
0.37888076228670897 13.620255554154959 283422.71296006086 6.213179206152025 0.19952341871928125
0.3947100945432098 13.528670962817602 236510.9861486357 6.54407885306002 0.2024798640173897
0.4109304181764231 13.448076147438641 197962.72790429066 6.889114167467255 0.20546295767258055
0.4275335504542578 13.37724434035033 166167.26930642803 7.248997966726272 0.20847591713604566
0.44452391188586804 13.315104872465687 139871.2884831005 7.624002109320804 0.21151449623470756
0.4619005128529809 13.260732320543767 118049.74563946424 8.015049700848525 0.2145844581020572
0.4796592959799806 13.213340783141918 99871.0726498997 8.422857121592983 0.21768764005494784
0.4978108500293452 13.172134069620794 84697.58424136054 8.847882713693656 0.22082176461830588
0.5163437244964416 13.13653213694971 71985.27355780371 9.290964642227392 0.22398974541747002
0.5352562533927083 13.105964749581526 61315.52198150165 9.753003422444678 0.22719473880816182
0.5545578000910965 13.079909548975127 52339.999166913425 10.234807893027813 0.23043809452436778
0.5742337500246398 13.057945081008507 44763.909986914434 10.736873779274541 0.23371682500368432
0.5942842935654661 13.039609659323512 38355.36537732816 11.260396366404844 0.23703650104732957
0.6147147935106747 13.02456777391201 32927.692466577006 11.806335604293073 0.24039903527393108
0.6355096796056939 13.012490644884924 28316.075378377733 12.375669534638039 0.24380605890458873
0.6566753299046209 13.00307718868775 24391.143455822934 12.969120732182045 0.24725590550798435
0.6782004175225328 12.996012621048816 21045.72898549409 13.587948289895046 0.2507526078471603
0.7000806965507866 12.99108219618645 18188.287591913584 14.233380730753508 0.2542991665929846
0.7223091735941345 12.988019057945477 15743.815151368059 14.906606484990451 0.25789756396256386
0.7448884031803389 12.9866512021642 13646.715193024222 15.608698487336113 0.26154813631429513
0.767801868159138 12.986745735860477 11846.70154871961 16.340835425585617 0.2652519110658028
0.7910396742191393 12.98812183491731 10299.785507158267 17.10467328873401 0.26901399857153396
0.8146065408909303 12.990644417568777 8965.179526177382 17.901665464600264 0.2728368281444252
0.8384815844725549 12.994097932038127 7815.053206342532 18.733230302281157 0.27672196334132365
0.8626541954371398 12.998373182913015 6821.549357025577 19.600604538749383 0.2806689301029561
0.887122410351853 13.003310664735023 5961.67550931281 20.50592308532531 0.2846845504669404
0.9118746973677774 13.008797586188168 5216.534889668115 21.450977856975268 0.2887718333856767
0.9368891604331263 13.01467821774473 4570.201991185435 22.437320319344256 0.2929312505002897
0.9621584016719069 13.020885290597999 4009.086381938272 23.466838509297936 0.2971655091790404
0.9876756726533404 13.027272783521004 3520.541771778873 24.542017275361648 0.30148123717218495
1.0134159135879004 13.033750555262325 3095.6469055801176 25.66487819194499 0.3058806646821393
1.0393661573815551 13.040183594993133 2724.6061821836856 26.837220147940002 0.31036386001226196
1.0655123609755555 13.046526010443568 2401.1606539013046 28.062213597407233 0.31494013295766804
1.0918338560932577 13.052646196924602 2118.1600959392067 29.342005763056637 0.3196105747271939
1.1183248464165443 13.058482492630793 1870.8849955160558 30.67916256436473 0.32437858188386304
1.1449485134110438 13.063954758884735 1654.0139118039729 32.077275477093075 0.32925351704563743
1.1717034983739563 13.068953482730478 1463.9188432236858 33.538075444506276 0.3342317225570156
1.1985523200587553 13.07342508731086 1297.0341631064105 35.06619852422284 0.3393274105259066
1.2254924078380152 13.077296287735404 1150.5038699493684 36.66378849644558 0.344538089983333
1.2524809914350692 13.080466143014828 1021.5155688862608 38.33565793891155 0.3498767616112571
1.2795163818393374 13.082914409202795 907.8888417964738 40.084269462684716 0.35534135481740853
1.30655450409585 13.08450711157915 807.8976394314673 41.91499212241288 0.36094583578386824
1.3335852523606644 13.085234012293125 719.517677990442 43.831138006380755 0.3666912156336286
1.3605881950938172 13.085037403510086 641.5055813244848 45.83769208647093 0.3725869163707353
1.387513437208709 13.083794732364131 572.5891677633825 47.93983062704156 0.3786420472399773
1.4143633380934906 13.081523533928825 511.51504510135754 50.142122772867836 0.38486133028080205
1.4410915079092421 13.078101054546755 457.50307126138574 52.450129865430455 0.3912535348685179
1.4676742953262982 13.073506454164773 409.58683512124 54.87008559705097 0.39782943457433834
1.4940799551625308 13.067653719711025 367.07627887729507 57.40816855977794 0.4045980715119115
1.5202887785000783 13.060530114846362 329.3069578065196 60.070994445367084 0.4115691963296793
1.546269852805925 13.052061707275376 295.7253452190449 62.865655383805596 0.41875332652378067
1.5719837596811908 13.042202774311873 265.84795132558537 65.79976304668682 0.4261618095078843
1.5974059095530668 13.03090239594462 239.2714615810948 68.88149589740308 0.4338068909967191
1.6224930283738073 13.018105533993042 215.54026931941004 72.11965101760904 0.4417017893282681
1.6472446279607247 13.003790901877837 194.38523426388423 75.52370099322611 0.4498607764250815
1.6715936585146753 12.987886373498602 175.48754763564526 79.10382288031886 0.45829912616376633
1.695533168430882 12.970365142397911 158.6096918042804 82.86967816946655 0.4670279332756694
1.7190044126919788 12.95117810278903 143.496955371841 86.83422806606356 0.4760697655906397
1.7420110873348744 12.930299159282345 129.97948334716656 91.00932326360525 0.48544011046985197
1.764489742537152 12.907670371527422 117.85720283888256 95.40843857419746 0.4951585027304092
1.786416398165139 12.883262394693988 106.98423844872998 100.04582092381202 0.5052448138177246
1.8077585837300976 12.857037829298923 97.23031133622246 104.93766208835284 0.5157235062806291
1.8284866330300833 12.828968254208554 88.46622917423015 110.1002293625977 0.5266161816954918
1.848561212132913 12.799016125333743 80.58727777174045 115.55147515792365 0.5379475202244398
1.8679553936571296 12.767150285127967 73.49409652916218 121.31154211073834 0.5497466911510064
1.8866337286331254 12.7333453943364 67.11225475974452 127.40170129582636 0.5620430407772694
1.9045649399746838 12.697567720407703 61.34834557966397 133.84472651786763 0.5748671560367389
1.9217176784672934 12.659800180140056 56.159824141630395 140.66547228737966 0.5882525193940055
1.9380491424317716 12.619984375944526 51.47125510178814 147.8919334122753 0.602238673760095
1.9535443644990864 12.578138177675305 47.23608989923988 155.55298082779382 0.6168628012506938
1.9681807467433894 12.534280828925993 43.40442451328774 163.68148062871197 0.6321699790771098
1.9819130258456674 12.488335872846596 39.939370895465196 172.31150414915177 0.6482029701589416
1.9947131859536404 12.440307229955582 36.79872258514431 181.48230854340494 0.665015020373229
2.00656233003196 12.39018692321909 33.95677951321667 191.2356211035215 0.6826598395957514
2.0174316647728197 12.337980846461068 31.373793639680315 201.61735481956188 0.7011965027704932
2.027285805023545 12.283651566662082 29.03514674326687 212.67784107614963 0.7206892033719147
2.0361151473174615 12.227241658641965 26.909075524860306 224.4713972731912 0.7412047325170846
2.0438802635063738 12.16870729233357 24.977324292919224 237.06006531955322 0.762823434532443
2.0505610740684697 12.108062864158997 23.22043058829959 250.50953752474402 0.7856244492190904
2.0561495008051764 12.045345092201215 21.623803662870497 264.8935672255071 0.8096984870262766
2.0606249253465645 11.98057826454595 20.16980154233772 280.2936547727702 0.8351449378176089
2.063961308197055 11.913755546349833 18.847265485457203 296.79885011802565 0.8620690968997136
2.066140773936189 11.84490173010913 17.64223701450142 314.50901841158714 0.8905903860910886
2.067159219035689 11.774074617943732 16.54600687207716 333.5341120734602 0.9208371706413762
