M[M_sun], R[km], Lambda[1], P_c[MeV/fm^3], rho_c[fm^-3]
0.24162668629717493 15.618656898711224 2160425.4255784233 3.5677272577965504 0.1711233750220791
0.2536438183897385 15.277294054808204 1723174.1639540496 3.7848166066428415 0.1738881356675475
0.266039571989139 14.981280584160018 1382946.2293267725 4.01139518102882 0.17666658494860313
0.27881430670241947 14.723534852567155 1116423.3601611461 4.247719166399164 0.17945740927296497
0.2919680045428852 14.49848073603857 905927.709952739 4.494413668401743 0.18226717345119475
0.3055046084153022 14.301200498273525 738611.1635384816 4.75163355458203 0.18509156930694592
0.3194200973362643 14.128150412963546 605122.9744763206 5.0200623404290265 0.18793724265436634
0.33371794948354044 13.975979103272403 497699.2844139537 5.2999223576961825 0.1908007828197641
0.34839829852328535 13.842049466242155 411019.2630219631 5.591944236993246 0.1936885272341788
0.36345937771536924 13.72403047120934 340659.7667826978 5.896292716458279 0.19659549197309892
0.37891394606938794 13.620016274794013 279402.4321186209 6.2138329248268 0.19952937984646668
0.3947452914877286 13.528482237450298 236412.98444150682 6.5448237864411976 0.20248639607678695
0.41097090440979545 13.447902211507483 197875.31974401194 6.88996469459359 0.20547020111849826
0.4275773678098003 13.377073814870847 166091.05298777914 7.249962067194003 0.20848389289213742
0.44457231294664856 13.314944819643152 139813.46629598062 7.625077117627841 0.21152305399205965
0.46195306168256617 13.260584890848632 117984.54889268929 8.016254365228962 0.2145937771549692
0.47971777026791784 13.213160873742224 99813.76126347749 8.424200833843631 0.21769774289259744
0.49787344446470005 13.172001749174063 84649.32579715106 8.849360518660282 0.22083246455768174
0.5164116825483632 13.136418197401106 71944.5538354706 9.29260045211425 0.22400126162105438
0.5353295749258371 13.105854412529842 61280.54591653899 9.754808326061044 0.22720709613371062
0.554635205048087 13.079820508786383 52302.15156302816 10.236793652878527 0.2304513189103261
0.5743170627209112 13.057851718060862 44732.7629624181 10.739031766899952 0.23373067995270036
0.5943730313867109 13.039560820120643 37997.55866519684 11.26275903005994 0.23705126301260207
0.6148097954607931 13.024513166550609 32903.88195654552 11.808916898356584 0.24041473384863127
0.6356127442307473 13.012443079743546 28297.473073091824 12.378484283934604 0.24382272524403645
0.656782432540441 13.003037941668522 24178.847259717204 12.972156011142687 0.24727325391784866
0.6783135012467237 12.995981567557617 21029.636349212902 13.591247193363266 0.25077097525784225
0.700201137535225 12.991057477463103 18174.364213143126 14.236960942880996 0.25431858941850854
0.7224352595589291 12.987990563448957 15731.446073271773 14.91048682600079 0.2579180807881911
0.7450209480131381 12.986664374782547 13635.015413894356 15.612861131814881 0.2615694129916794
0.7679415633910908 12.986761259522485 11837.481979258657 16.345336734814897 0.26527434896334345
0.7911850992019915 12.98813964369099 10289.950057017531 17.109535848581995 0.2690376435534738
0.8147575082137545 12.990673792954542 8957.144679846373 17.90691335813098 0.2728617290239861
0.8386411808333134 12.994120179281271 7808.433569474079 18.738840255100758 0.27674773817186216
0.8628210593386697 12.998398587572334 6773.030729532257 19.60664948036269 0.2806960499436299
0.8872952864689198 13.003341214376576 5955.971724806022 20.51243210289067 0.284713073991151
0.9120550285656348 13.008849853059164 5211.8455706401965 21.45798202917578 0.2888018232227222
0.9370747166470657 13.014728274708748 4565.832870367945 22.44479047284372 0.292962277265066
0.9623517809907849 13.020927143640135 4004.972431866273 23.474868370354702 0.29719812083069613
0.9878749989536149 13.027327063729265 3516.871602741064 24.550644630330996 0.3015155095578805
1.0136180237373056 13.033785070781544 3092.226804948967 25.674069650170125 0.30591613628960507
1.0395815660630392 13.04023342919445 2721.745692230613 26.84708805282282 0.31040113918000006
1.0657310656181478 13.046561893517774 2398.621629002266 28.072804128325824 0.3149793119366517
1.0920611745505848 13.052705160858553 2115.855154002232 29.353281391277577 0.3196511600655183
1.1185586114178072 13.05853429236755 1868.8072929626983 30.691257878818103 0.32442124888935414
1.1451893044468577 13.063993247848044 1652.2791404949762 32.09015157629837 0.3292977597777649
1.1719520177149791 13.06899818953633 1462.2910113589285 33.55188218444862 0.33427825269415573
1.198806513686648 13.073461468171047 1295.5933713424774 35.08100161999832 0.3393763603505078
1.2257524837677485 13.07732945503592 1149.2444470202383 36.67954499882358 0.3445889180209503
1.2527468238129538 13.080489644211742 1020.3060677162774 38.35254908909407 0.349930269072127
1.279787632772461 13.082932407123602 906.8370286214346 40.10225123773691 0.3553969844220971
1.3068308948793608 13.08451935734521 806.8515716640168 41.93413883274333 0.3610037191899111
1.3338677500994336 13.085235859926081 718.7227343825175 43.851664261039026 0.3667522302778702
1.3608748620951556 13.085033315670778 640.7108421127809 45.859554885721494 0.3726504904211192
1.3878044647679901 13.083776481121468 571.8887460339855 47.96312332844047 0.3787083457872062
1.4146611992936 13.081491739043114 510.8917620363755 50.16710071623493 0.3849313212307429
1.4413839859336663 13.078036495875258 456.9487834018643 52.47675340857883 0.39132663314302374
1.4679783199810759 13.073440856040172 409.0779150618845 54.89847259318213 0.3979058472626335
1.4943862140437867 13.067582366969665 366.5810504590638 57.438446406740084 0.4046780217095185
1.52059824486264 13.060435531890095 328.88523976643046 60.103300940051696 0.41165292445259005
1.5465812195205748 13.051953656357652 295.3350946414385 62.90013966178217 0.4188410917528527
1.5722976020961628 13.042075445711697 265.5040608239333 65.83658661656318 0.4262538913774225
1.5977214151036097 13.030748889730392 238.96036954353363 68.9208337805591 0.4339035911428618
1.6228081954585063 13.017931855432336 215.27296040224118 72.16169300525445 0.44180343341464406
1.647560234550754 13.00359761099103 194.12873833813975 75.5686530342192 0.44996771626531634
1.671910327598636 12.98766404481972 175.263346471874 79.15167397485583 0.458410762219869
1.695846205300115 12.970123664755748 158.38794670702768 82.92089502646598 0.4671456294638864
1.7193270291507194 12.950914576136668 143.30142474408166 86.88907424868412 0.47619396520944
1.742313379317198 12.929977417305963 129.7974501126926 91.06782160445563 0.48557024774577884
1.7647930611169493 12.907335930458284 117.69687471058495 95.4711524129733 0.4952961108960031
1.78672024005894 12.882902627691239 106.83778374609342 100.11280486119136 0.5053893622485734
1.8080601375225793 12.856652913318948 97.10149361515862 105.00926335756884 0.5158755517258915
1.8287709946728414 12.828524382071466 88.34421250501408 110.1770639512157 0.5267772094465977
1.848851512998419 12.798564111340923 80.47747628041695 115.63379483518399 0.5381175642713228
1.8682383725028782 12.766660951365287 73.39179431962216 121.39973386076815 0.5499262172353963
1.8869087915875307 12.732816943951256 67.0178500749725 127.49626008717874 0.5622328195170159
1.9048325340866192 12.697008994583653 61.267035262033154 133.94584652239834 0.5750667983231652
1.9219762953969066 12.659198159641749 56.08104424036922 140.77408137720255 0.58846413120293
1.9382921466651581 12.619317975458165 51.40078428848235 148.00868174619893 0.602463244988989
1.9537907704649315 12.57747999455569 47.16991726761861 155.6781981302466 0.6171001005732706
1.9684088609084882 12.533560082579028 43.345601748065825 163.8162070270638 0.632422076307063
1.9821259872359944 12.487567494892193 39.88610933956525 172.45641384664071 0.6484705300712563
1.9949174869738062 12.43949917455261 36.75042176897224 181.6382082733329 0.665298993892965
2.006756504322544 12.38934653015776 33.90837886263123 191.40352286002934 0.6829616785971043
2.0176060620038476 12.337082280890602 31.33196987470076 201.7983749248907 0.7015177956012909
2.0274457786467686 12.282704664532334 28.995666232249942 212.87275603686064 0.7210301954342869
2.0362585679952887 12.226247717085831 26.874208861321218 224.68201040342015 0.7415687823266728
2.0440065910910135 12.16766186096908 24.94619374772972 237.2874023067681 0.7632110649791757
2.0506693268673395 12.106965654499106 23.191099021612477 250.7557106428568 0.7860394056346763
2.0562455393885206 12.044229723776144 21.596682513772972 265.159962302051 0.8101417839108732
2.060695521804672 11.979389850175414 20.144670149016093 280.58201805884624 0.8356183488744451
2.0640053720993654 11.912500223101304 18.823645567299977 297.11141160777976 0.8625755025182315
2.0661704419996902 11.843611309290292 17.621210258276527 314.84855029244574 0.891133909851562
2.067166854504123 11.772730475519792 16.525834220430053 333.90285279481736 0.9214195671559589
