M[M_sun], R[km], Lambda[1], P_c[MeV/fm^3], rho_c[fm^-3]
0.24162668629717493 15.618656898711224 2160425.4255784233 3.5677272577965504 0.1711233750220791
0.2536401351159431 15.2773787159334 1723293.464718149 3.7847649085036994 0.1738874912751831
0.2660333484972764 14.981395469577295 1383221.5818674013 4.011286502277413 0.17666527163003018
0.2788047713106819 14.723721497611274 1116537.1667362722 4.247549831350055 0.17945544524157778
0.29195622561689377 14.498622497465936 906118.6733096623 4.4941792346980005 0.18226456297749438
0.3054875175608488 14.301456079715354 738835.7308307661 4.751326063420135 0.18508824781554176
0.3193996550204896 14.128401605992236 605243.3136270493 5.019679527940476 0.18793327082704558
0.3336940102287699 13.976253777637064 497877.09622831544 5.299454147032882 0.19079606871528662
0.348370493751749 13.842281709686489 411162.0783674927 5.591389460372969 0.1936831596177638
0.3634290670626046 13.724234111623563 340791.99219806725 5.895638911920824 0.19658935130252336
0.3788758549569096 13.620277700907817 283432.8413037861 6.213072182226099 0.199522442789942
0.39470430742241513 13.528692492526613 236526.80992663876 6.543956896840543 0.2024787946260997
0.41092464481218954 13.448093837738261 197982.84872306034 6.888974925239537 0.20546177182733855
0.4275251477545019 13.377291441675398 166183.56023735457 7.24884013242728 0.20847461141333956
0.4445162619259557 13.31512922081008 139889.01052026765 7.623826119480091 0.2115130952424144
0.4618920676365587 13.26075441546365 118057.52087123391 8.014852486637395 0.21458293249069327
0.4796501434960831 13.213334052783356 99873.21430421181 8.422637145851512 0.21768598614489243
0.4977994823832098 13.172163594039398 84702.3418560988 8.847640787745934 0.2208200129710774
0.5163324174875393 13.136558473120806 71992.0760866089 9.290696852087443 0.22398786015819003
0.5352439379431196 13.105982265610455 61321.92469840271 9.752707953252996 0.2271927158696746
0.5545458055503782 13.079938098134718 52344.312953984576 10.234482819683214 0.2304359296627043
0.5742196078379883 13.05794863560425 44365.64384014424 10.736520514339217 0.23371455693337176
0.5942692024012945 13.039610069091925 38363.34820652857 11.260009598916918 0.23703408451706595
0.6146986986299685 13.024602418049126 32930.64998419026 11.805913050481992 0.24039646544174426
0.6354934275312147 13.012494465675756 28320.344854753264 12.375208768300112 0.24380333067291163
0.6566579422751894 13.003070521535511 24393.937050141474 12.968623869158694 0.24725306564269114
0.6781828946625728 12.996012512496106 21048.82479439979 13.58740827694672 0.25074960119974216
0.7000624599901175 12.991090251198099 18191.003038558923 14.232794673801639 0.25429598720541824
0.7222883066062135 12.988020556176714 15746.639867681217 14.90597130406409 0.25789420552157294
0.7448672187165798 12.986647844190678 13648.624813866436 15.60801710013386 0.2615446535148992
0.7677795959198181 12.986751474616039 11848.392077326575 16.340098607983627 0.26524823821485716
0.7910164311682287 12.988125419366357 10232.571207359684 17.10387734460521 0.2690101281647649
0.814581534916991 12.990642668078737 8967.117954159752 17.900806452844062 0.2728327521950643
0.838454075478428 12.994104229407398 7815.951501356053 18.73231203224278 0.276717744365623
0.8626274514840172 12.998356274175203 6822.539202622163 19.599615075277857 0.28066449100438134
0.8870929591288599 13.003301776693066 5962.567285471762 20.504857668551733 0.2846798816454431
0.9118452099164895 13.00879634102522 5217.4211906057435 21.44983140118727 0.28876692459399117
0.9368571417721507 13.014679422610966 4570.852969761383 22.436097599078266 0.2929261720164161
0.9621254657421192 13.02087537555637 4009.6343211151125 23.46552418666002 0.2971601713242845
0.9876406953422837 13.027270354550652 3521.10025732621 24.540605167176906 0.30147562753672624
1.0133817035711168 13.033731094827287 3096.102860521616 25.663373762717875 0.3058748588000152
1.0393303848812296 13.040176539080566 2725.1178938219196 26.835605013818153 0.31035775832638607
1.0654759025519576 13.04651760776557 2401.6047507686917 28.06048020205277 0.31493372037451384
1.0917961677452324 13.052633263135428 2118.734941786566 29.340160247916778 0.3196039320058425
1.1182859640119718 13.058478131419319 1871.2044625889357 30.677182906141237 0.324371598511201
1.1449092756452541 13.063944508160871 1654.3155203126767 32.075152392818985 0.3292461745943175
1.1716632435921353 13.068950298014958 1464.221474909888 33.53581571104923 0.33422410702227706
1.1985110288461676 13.073412565830177 1297.3179452291618 35.06377574030122 0.339319399036296
1.2254493600944807 13.077285436268177 1150.7215791672988 36.661209690043954 0.34452977115307204
1.2524370720669251 13.080457565297081 1021.6626141430838 38.33289345472447 0.3498680043313876
1.2794721632418848 13.082910453867422 908.0648995162046 40.08132650418309 0.3553322502869834
1.3065089546180204 13.084509913816849 808.0238121902182 41.91185853090114 0.36093636246199123
1.3335390606009634 13.085233179980962 719.709195633233 43.82777866816492 0.36668122994312935
1.3605377414328501 13.085043827399131 641.6547994033756 45.834114037284145 0.3725765118897414
1.3874655179102298 13.083799384028929 572.6912282600408 47.93601859224655 0.3786311969583991
1.414315661317895 13.08152509506107 511.63424002058764 50.138034976222805 0.38484987582411817
1.4410422845203874 13.07810925482831 457.60035011684937 52.44577279300393 0.39124157198008863
1.4676242128382715 13.073511524226543 409.6675190082154 54.86543996712307 0.39781692937407076
1.494029956468428 13.06766567697473 367.1512583186689 57.40321352932098 0.4045849875015234
1.5202387743102437 13.060544654784565 329.3843975967005 60.06570747031059 0.41155549417778453
1.5462183154476186 13.052081424836354 295.7843914993237 62.86001206536466 0.4187389638296848
1.5719333011240695 13.042224125619533 265.9388134540126 65.79373696219993 0.42614674054180063
1.5973494837825342 13.030916382183076 239.30504506161955 68.87505841394234 0.4337910664138615
1.6224408304542377 13.018133943437174 215.58625078985705 72.1127710864062 0.44168515585395807
1.647192651069019 13.00382292402539 194.41785563687196 75.5163449227184 0.4498432765076701
1.6715421793153953 12.987922613341365 175.53267976596206 79.09598760929282 0.45828083760718236
1.6954816117053728 12.970406683235135 158.6439742058914 82.8612970691006 0.46700867353143816
1.7189452287463287 12.951194746129255 143.53662398933554 86.8252531622608 0.4760494418492631
1.7419603390498364 12.930347936678208 130.0106877210159 90.99975081954179 0.4854188153053008
1.764439004021211 12.907724712125981 117.88244515567501 95.39817643955203 0.4951359853155738
1.786365894389142 12.88331902480799 107.00427501390672 100.03486016503913 0.5052211609758118
1.8077093794434802 12.857102090036301 97.24874509713173 104.92594590533855 0.5156986269414403
1.8284368121834875 12.829039241052113 88.48652795515392 110.08764626916823 0.5265897929550113
1.8485144066906383 12.79908806600273 80.60580505526652 115.53800542747706 0.5379196964093838
1.8679088146284688 12.767231648619896 73.51076593876233 121.29711171526812 0.549717316153979
1.886588368337195 12.73343185695548 67.12273863454604 127.38622927472431 0.5620119885543711
1.9045215153812627 12.697659013629908 61.362401241891384 133.82818110652363 0.5748344902574412
1.9216755596944375 12.659899410237827 56.17210260038817 140.6477017247718 0.588217895580242
1.9380085248993093 12.620088917904724 51.481815183860796 147.87283135983122 0.6022019300118324
1.9535052464223137 12.578246229573319 47.24478775908029 155.53249335154413 0.6168239754323754
1.9681429817841951 12.534398582402222 43.413173707122084 163.65941933077207 0.6321286707521067
1.9818771228293477 12.488460747217523 39.95020437238771 172.2877953314313 0.6481591944192892
1.9946804663030353 12.440440186100346 36.807702945683026 181.45680197938094 0.6649685598131908
2.0065317016392337 12.390325226484594 33.96256483094745 191.20815128693025 0.6826104567770144
2.017403357287817 12.338127877467015 31.382127238071444 201.58773918596384 0.7011439379421981
2.0272606719830994 12.283805358841207 29.042072870002894 212.64595262747866 0.7206334164387901
2.0360922074645647 12.227403905978935 26.914649409441264 224.4369411137223 0.7411451742251578
2.0438599692346444 12.168877841033916 24.983146998430705 237.02287370753467 0.7627600194174716
2.0505437625193945 12.10824065189605 23.225929940525422 250.4692613274443 0.7855565526544304
2.056135504249579 12.045531956336806 21.628713185461066 264.8499872755611 0.8096259674576246
2.0606131593284474 11.980772748364345 20.17454385667308 280.24643995078293 0.8350673564862586
2.0639528111107954 11.913959321123171 18.850986919612144 296.74771945301177 0.8619862560607415
2.0661367078274164 11.845114682477385 17.645738713568417 314.4534767890439 0.8905014748775933
2.0671573460991413 11.77429477883121 16.548613676856654 333.473793473796 0.9207419022314223
