M[M_sun], R[km], Lambda[1], P_c[MeV/fm^3], rho_c[fm^-3]
0.24162668629717493 15.618656898711224 2160425.4255784233 3.5677272577965504 0.1711233750220791
0.2536439382575225 15.277282759940784 1723198.553587968 3.7848193071524476 0.17388816932809698
0.26603990719896314 14.981263561611351 1383031.6959643196 4.011400858041776 0.17666665355195435
0.2788148536377344 14.723531255514402 1116447.9792858756 4.247728011980497 0.17945751186837844
0.29196903844028704 14.498418619902633 905872.5714605703 4.494425914669187 0.18226730981622496
0.305504293859469 14.30124956723573 738664.5038307832 4.751649617356273 0.185091742815564
0.31942121738613344 14.128142547432667 605103.5736953003 5.020082338035233 0.1879374501372491
0.3337185720758155 13.975950067995127 497693.73389516916 5.299946816619509 0.19080102908053728
0.348399751052728 13.842037166048266 411011.83257468895 5.591973218304283 0.19368880763633556
0.36346195979492085 13.724003334881031 340666.24166916846 5.896326871265164 0.19659581276227311
0.37891559668738206 13.620006204235187 283310.2028915624 6.2138726664533115 0.19952974224224843
0.3947474303874582 13.528483037351979 236406.7341713384 6.544869073628042 0.20248679318423557
0.4109722405990009 13.447887831614974 197875.44083119428 6.890016401609134 0.20547064147714064
0.42757983546545103 13.377068350580396 166078.00361594334 7.25002067925187 0.20848437777467116
0.444575098901285 13.314936059993942 139809.11320397482 7.625142472732919 0.21152357426071927
0.4619562309464236 13.260576773943148 117978.99855354191 8.016327603331627 0.21459434371090377
0.4797207188420246 13.213159816544252 99811.14433950378 8.424282526044264 0.2176983571037426
0.49787708596403707 13.171995789387418 84644.0742076219 8.849450363749249 0.22083311507451373
0.5164151571595053 13.136410026846 71941.20975513603 9.292699904065703 0.2240019617689927
0.5353342385376524 13.10585449484395 61278.75774437852 9.754918059185423 0.22720784742476524
0.5546406851622998 13.079808930678563 52302.309618348176 10.236914382460196 0.23045212292224326
0.574322710333416 13.05784138000721 44730.92720370577 10.73916296837025 0.23373152230678082
0.5943786996249756 13.039542855981056 38329.308258978 11.262902676498781 0.23705216051815142
0.6148153547602091 13.024506691458681 32902.24968759173 11.809073838358353 0.24041568830569066
0.6356210286438748 13.012424652900672 28292.604983758967 12.378655419035379 0.24382373854766687
0.6567895792948333 13.003016043045957 24371.23929602437 12.972340555462996 0.24727430869750758
0.6783215274215856 12.995980972708479 21029.10381542863 13.591447767471468 0.2507720920007397
0.7002083061719685 12.991056440131826 18172.46435327244 14.23717862222249 0.25431977033956
0.7224431352448849 12.988003022848522 15730.700801143887 14.91072275512033 0.2579193282343803
0.745029081209345 12.986655949235155 13634.896341099222 15.61311422684623 0.26157070664559506
0.7679502638596974 12.986759333835845 11837.15270538974 16.345610423186812 0.265275713231234
0.7911939212769704 12.988136096056603 10289.113813358175 17.109831503879256 0.2690390812250671
0.8147674480321945 12.990671528171223 8956.888272813936 17.907232445005306 0.27286324306838894
0.8386507826630057 12.994120183552104 7807.918115682072 18.739181358277634 0.2767493053644684
0.8628305995318917 12.998394341683738 6814.860430574372 19.607017034996044 0.28069769892946517
0.8873100273103427 13.003351984415508 5955.716692015512 20.512827878009542 0.2847148083390878
0.9120655855114467 13.008846474645221 5211.535016476544 21.458407914947966 0.28880364674226766
0.9370856257281095 13.014734249065038 4565.442485052105 22.44524469519049 0.29296416384609947
0.9623623605418588 13.020946146422165 4004.505785949171 23.475356629410882 0.29720010379579914
0.9878885250793197 13.027327198267647 3516.714203480721 24.551169224277984 0.30151759352059543
1.0136305843535507 13.033787844079802 3092.0941208805903 25.67462854838481 0.3059182931854532
1.039593390175263 13.04024315257 2721.5903998099984 26.847688087897957 0.3104034060044659
1.0657444873745336 13.046567533408497 2398.5027294721735 28.073448108987925 0.3149816943011451
1.0920767041783703 13.052698292852753 2115.96026316311 29.353967035159155 0.31965362796250446
1.1185733425864195 13.058534977391593 1868.7040023108987 30.691993371732252 0.3244238433882676
1.1452030888193592 13.063994669510569 1652.234462530206 32.09093451776688 0.32930044988753404
1.1719664164185442 13.0690062971319 1462.1466130856102 33.55272175817572 0.33428108214417973
1.1988223834983378 13.073465086901473 1295.476608072825 35.08190178854217 0.33937933696384603
1.225768277904218 13.077327574308322 1149.1414653094043 36.68050314998856 0.34459200886828995
1.25276251632717 13.080496989202533 1020.2415489482438 38.35357347755275 0.34993350663777434
1.2798038571748218 13.082938608545021 906.7573231900624 40.103344724337404 0.3554003673043288
1.3068480127008475 13.084516644060937 806.7984531196411 41.935303168237596 0.36100723915250627
1.3338849558870622 13.08523080255049 718.6521943353844 43.852912499351724 0.3667559406876768
1.3608912874068748 13.085034575575763 640.6711549243631 45.86088441141083 0.37265435650122136
1.387822981529959 13.083777754449383 571.8522340433909 47.964539820207094 0.3787123775800275
1.4146799588077066 13.08148617181659 510.86304274859634 50.16861970609091 0.3849355776077155
1.4414022393669734 13.078033929402375 456.9044143811403 52.47837248520447 0.3913310785208221
1.4679965007676947 13.073438731287332 409.03929536555717 54.90019892554212 0.3979104942388725
1.4944048892916406 13.067574669579763 366.55744151781516 57.44028774448814 0.40468288385566126
1.5206173735639055 13.060430664173154 328.86319015115635 60.10526566552124 0.4116580163939228
1.5466006244056407 13.051946678567967 295.3131179636945 62.9022368471635 0.4188464292563818
1.5723165586942598 13.04206751257632 265.4834941652018 65.83882608684662 0.4262594914485499
1.5977404489420872 13.030739927477558 238.93922135465638 68.92322618289163 0.4339094721317872
1.6228284164375197 13.017921327592436 215.25363804762807 72.16424988543616 0.4418096151335541
1.6475788560576154 13.003584682665918 194.1080185444221 75.57138692115957 0.449974220117559
1.6719284124347258 12.987650844511007 175.24566157712275 79.15458419889589 0.45841755173925935
1.695865625304107 12.970106944015217 158.37247125593964 82.92400998069868 0.4671527876196409
1.719346023511392 12.950896964614556 143.2869871739952 86.89240996765065 0.4762015189716942
1.742332002038806 12.929958861548487 129.78735617313222 91.07137947663958 0.48557816270178245
1.764811902567213 12.907315507209535 117.68774810221232 95.47496671170938 0.4953044803191216
1.7867390219599455 12.882881967944535 106.83055583282007 100.11687890766935 0.5053981538641253
1.808077662853155 12.856630516845037 97.08980320680433 105.0136182772408 0.5158847994069432
1.828788320718472 12.828498564526612 88.33763855383334 110.18172278680628 0.5267869498325312
1.848868607708552 12.798535994406919 80.47108462206727 115.63880177493809 0.5381279068810928
1.8682561982688055 12.766630693130613 73.38657816150283 121.40509801430268 0.5499371366862496
1.8869258089331535 12.732785418753414 67.01592861633183 127.50201157007648 0.5622443626972997
1.904849611360372 12.696974394341655 61.2618667611731 133.95199714722816 0.5750789415663313
1.921992596305623 12.659161696864969 56.07956646008445 140.78068760172957 0.5884770026405288
1.9383073535359443 12.619289971411991 51.39693999037348 148.01578313036998 0.6024769048547578
1.9538052518963356 12.577438208245711 47.16587614375258 155.68581473499256 0.617114534801697
1.9684226585959688 12.533515972355664 43.34265009628691 163.8243850072443 0.632437352842004
1.9821394494330646 12.487520444194201 39.88338337761903 172.46522849847082 0.6484868053620865
1.9949287833236313 12.439451471976605 36.74764820362162 181.64769154973962 0.6653162678124328
2.006768064872608 12.389294390108223 33.90515721759554 191.4137363419206 0.6829800394959925
2.017616849092359 12.33702738140901 31.330364872788703 201.80938654304845 0.7015373401373143
2.0274552225850533 12.282646560142533 28.993787777816415 212.88461304098843 0.7210509385536265
2.0362673117002164 12.22618719270129 26.872152259867615 224.69482253613475 0.7415909284030836
2.044015433705624 12.167598657593828 24.94393708648021 237.30123198358356 0.7632346458485618
2.050675762180141 12.106899601658737 23.189389928337903 250.7706577757678 0.7860645559661448
2.0562521065429 12.04415955869127 21.595404270668517 265.17616850304034 0.81016875197088
2.0607010396651986 11.979316683287843 20.14350718666882 280.59954492632914 0.8356470970164598
2.0640087849183377 11.912427078919405 18.823248107665375 297.1304269332852 0.8626063107527375
2.0661720012773865 11.843533181355827 17.620000718065544 314.869206762998 0.8911669767981011
2.067167731059254 11.772649068308477 16.524542963741933 333.9252866451085 0.9214549996304903
