M[M_sun], R[km], Lambda[1], P_c[MeV/fm^3], rho_c[fm^-3]
0.24162668629717493 15.618656898711224 2160425.4255784233 3.5677272577965504 0.1711233750220791
0.2536409057656421 15.27737004456803 1723281.8726179705 3.784778967274607 0.17388766651098028
0.26603472992997107 14.981374103206623 1383102.2352090506 4.011316056124307 0.17666562877082842
0.2788081573504071 14.723628811513022 1116548.735813324 4.247595879615672 0.1794559793320657
0.2919597058270033 14.498556937715156 906045.2657245498 4.494242985196314 0.1822652728540888
0.3054918325444097 14.30138445021546 738810.4618952036 4.751409680163261 0.18508915103595247
0.31940500586535653 14.128339589854336 605232.262470028 5.019783626313587 0.18793435088784488
0.3337001440151601 13.976169260382509 497809.19455404364 5.299581466934367 0.19079735061543265
0.34837703340502296 13.84224030572957 411133.2621323404 5.591540319116259 0.19368461921760494
0.3634378114512205 13.724196357254785 340740.27341539605 5.895816697888236 0.1965910211059528
0.3788876064236889 13.620178255938592 283401.0634849725 6.213279046036666 0.19952432913881413
0.3947159656667889 13.528629706500688 236496.01484182823 6.544192623146719 0.2024808616273542
0.41093647592213867 13.448066890479382 197949.22555045295 6.889244063567061 0.20546406392227526
0.4275406478746551 13.377217246462099 166159.05968084568 7.2491452073134175 0.20847713521968858
0.44453103692781315 13.31508606326932 139868.34476030254 7.624166287204952 0.21151580319623142
0.46190808626844315 13.260714535350754 118038.65230789769 8.01523367900082 0.21458588132180514
0.47966891710209464 13.213302308238404 99861.6260139017 8.423062334097969 0.2176891829661035
0.49782018666372774 13.172140124380357 84689.70395371068 8.848108403710258 0.22082339871045603
0.5163535372798025 13.13653746403267 71978.17022359528 9.291214461219566 0.22399150415874933
0.5352675486105376 13.105945431271529 61311.65823302758 9.75327906358829 0.22719662599333634
0.554568095746105 13.079909056092376 52330.1696873394 10.235111152353737 0.23044011411317658
0.574243534206282 13.05794735196413 44757.88080234113 10.737203339026697 0.233718940879378
0.5942979438977206 13.039588358466602 38353.01104999977 11.260757181379292 0.23703875542581934
0.6147288518333345 13.024581171208936 32925.03783286507 11.806729805158405 0.24040143267290193
0.635524701209699 13.01247821850693 28314.43122885411 12.376099384953596 0.24380860408020333
0.656691149441726 13.003061490569152 24388.678249543 12.96958425806347 0.24725855483184483
0.678217509273267 12.996025102296494 21043.277913195598 13.58845207165112 0.2507554127690069
0.7000998617269975 12.991086852747769 18186.163708284173 14.233927468473212 0.2543021326717976
0.722328318615954 12.988006485712337 15742.230964955994 14.907199052202367 0.25790069708878316
0.7449096150086065 12.986644395429861 13644.694002194059 15.609334162041822 0.261551385461731
0.7678233374746123 12.986758532015761 11845.318822420073 16.341522813519678 0.2652553375222513
0.7910609567192086 12.988118550263 10297.539362357791 17.10541583830727 0.26901760933866037
0.8146283592371608 12.990645112605364 8963.920948357341 17.90246685278866 0.27284063067407716
0.8385056045397987 12.994098630311065 7813.870777491421 18.73408697518128 0.27672589931004526
0.8626798508305727 12.998369790611054 6820.628591059659 19.601527631511225 0.2806730714380144
0.887149285402292 13.003321081263628 5961.053281827315 20.506917038854496 0.28468890612542025
0.911902535888465 13.008809586926652 5215.881591903335 21.45204741619948 0.28877641292854433
0.9369165392094656 13.014700938124523 4569.606007176038 22.4384610298164 0.2929359883621689
0.9621874073092437 13.020887300888022 4008.328770227723 23.468064681009444 0.29717048902669196
0.9877057111600966 13.027281607675372 3520.0010414488074 24.543334677209288 0.3014864705843256
1.0134408590597666 13.033747268519088 3094.950989633809 25.66628172570815 0.3058860811892367
1.0393986715765702 13.04019864648769 2724.2198132565486 26.838726965603495 0.31036955249806264
1.0655466464498742 13.046532667230718 2400.5358525348597 28.06383074908599 0.31494611550491924
1.0918685815617273 13.05265008041905 2118.0922947184695 29.34372751889447 0.31961677199104666
1.1183603426327597 13.05849044918153 1870.5770643750707 30.68100947212469 0.3243850969706629
1.1449860259220235 13.063955296408363 1653.7181426223044 32.07924207898479 0.3292602758195377
1.1717412403175629 13.068962856587227 1463.6944367023884 33.54018365563857 0.33423882744589706
1.1985911570796282 13.073422937060991 1296.8536977393921 35.068458858338204 0.33933488483804813
1.225532348573504 13.077293751688504 1150.2938753020057 36.66619439643579 0.34454585104427615
1.2525210842117198 13.080464701108582 1021.3144081848211 38.33823707368878 0.34988493174482876
1.2795574193588324 13.082915190459419 907.7224161682615 40.0870151113591 0.3553498489371451
1.3065959901831283 13.084509095081907 807.7424635094884 41.917915629315054 0.36095467398814285
1.3336275568095146 13.085233589349553 719.3798909473959 43.83427213354145 0.36670053188040136
1.3606316516863688 13.085038740840156 641.3664779841439 45.84103026942198 0.37259662335329913
1.3875581674216353 13.083793290464929 572.4717958154955 47.943387117497586 0.37865217015987523
1.4144099671890358 13.081517410123407 511.42062882487 50.14593654962933 0.3848720169035747
1.4411371769528951 13.078094629232313 457.4312560051844 52.45419487680157 0.3912646958667148
1.4677205515558722 13.073492549606074 409.5011169109817 54.87441983367173 0.39784110155982594
1.4941271529118796 13.067640150907716 366.98859235917917 57.41279146912231 0.40461027853957976
1.5203362341441158 13.060512520730606 329.2362164739751 60.075927062133964 0.41158198009798846
1.5463169291406618 13.05204717338888 295.6581104255615 62.87092047331649 0.41876672659517905
1.5720317374426431 13.042183874462959 265.79653388747107 65.80538526273719 0.4261758685512254
1.5974538899195712 13.030878826074327 239.2206534311718 68.88750195619342 0.4338216550540646
1.622540855686493 13.018080427885126 215.5049235719768 72.12606988957589 0.44171730810873433
1.6472922282665972 13.003761388649567 194.34049564327225 75.53056411482598 0.44987710362872313
1.6716418966715985 12.987852709290411 175.4586571512933 79.1111285734937 0.45831617026236066
1.695581107443213 12.9703289151488 158.57404199493712 82.87749767195523 0.46704590246961425
1.7190439835440006 12.951103331873409 143.46939978172816 86.84260160735936 0.47608872754181397
1.7420504349352108 12.930237254435555 129.95249271802712 91.01825433000731 0.4854599788051892
1.764536685006216 12.907621817931192 117.82631960075712 95.4180131499499 0.49517951148750894
1.7864633316412448 12.883206152373265 106.96382613602228 100.0560473441688 0.5052668819891939
1.807804950784736 12.856980130337988 97.21100076844715 104.94859335270067 0.5157467188433846
1.8285310786062372 12.828901871294638 88.45022536032654 110.11196949865261 0.5266408026208069
1.848605918466027 12.798946956403096 80.57016139552447 115.56404257193472 0.5379734801651055
1.8679987497661528 12.76707451685553 73.48010586193766 121.32500587822082 0.5497740984476804
1.8866758008621491 12.733263877281757 67.0952226926121 127.41613696148595 0.5620720130430641
1.904606105526596 12.697482922507831 61.336823595166095 133.86016372026987 0.5748976338674897
1.921740901597147 12.65965694493016 56.14722490781588 140.68205263754396 0.5882848242213141
1.9380870243630164 12.619887923264951 51.45960150228414 147.90975613673845 0.6022729566573357
1.9535838994289505 12.578043518297829 47.22399049510956 155.57209625210646 0.6168990268932473
1.9682154510240153 12.53416925665415 43.393486813508595 163.7020645532592 0.6322085211178979
1.981944966281239 12.488220963119081 39.930958467833925 172.33362534242812 0.6482438145236451
1.9947447396096083 12.440182576332221 36.79344471960488 181.50610718684803 0.6650583699322474
2.0065914411443284 12.390056450487176 33.94953602242968 191.26125163753906 0.6827059159141469
2.0174597051687453 12.337843607607992 31.369253345561496 201.64498760326467 0.7012455482358163
2.0273102189477235 12.283506701063107 29.027895678044146 212.70759461527618 0.7207412554085189
2.03613634733787 12.227089713278275 26.90341457956792 224.50354675332653 0.7412603036588691
2.043898764329172 12.16854756829318 24.97211837181508 237.09476726813512 0.7628826045425504
2.0505780436223264 12.10789083891467 23.216648692061298 250.5471177434514 0.7856878009732396
2.0561630649079317 12.045171964890786 21.6192849010925 264.934230232637 0.8097661526326115
2.0606363575083435 11.980396627871476 20.16596719512982 280.33770956148675 0.8352173267204392
2.0639697819245257 11.913565539325539 18.84401606582386 296.8465588819663 0.8621463936458069
2.066145750316178 11.844704136538688 17.639480874964708 314.56084318986115 0.890673347367956
2.0671600573987483 11.77386940970852 16.543222196612067 333.59039443032185 0.9209260641282362
