M[M_sun], R[km], Lambda[1], P_c[MeV/fm^3], rho_c[fm^-3]
0.24162668629717493 15.618656898711224 2160425.4255784233 3.5677272577965504 0.1711233750220791
0.2536442600506395 15.277288626393727 1723218.871969241 3.78482483119884 0.17388823818267035
0.26604051136848794 14.981245198509878 1383000.5647915457 4.011412470713385 0.17666679388423742
0.2788161783801504 14.723469682284566 1116404.5973810852 4.247746106176343 0.17945772173378288
0.2919708056551898 14.498392255439725 905851.881911833 4.494450965219826 0.18226758875992027
0.30550601708358827 14.30121646349172 738632.8920020562 4.7516824748725055 0.18509209773944885
0.3194235333521639 14.128090541616151 605125.2122737789 5.020123244579459 0.18793787455843391
0.33372109395384714 13.975920883442996 497653.47100895626 5.29999684918111 0.19080153282541357
0.34840272499942954 13.84201310122162 410997.8728586828 5.592032501828314 0.19368938122073887
0.36346659327055275 13.723945906160456 340625.64489408844 5.896396737674957 0.1965964689623792
0.3789202243702156 13.619980283460512 283294.3956132705 6.213953961265935 0.19953048355305422
0.39475073897903173 13.528472061274202 233291.6350952392 6.544961712464714 0.20248760550168426
0.41097745940400543 13.447854586100023 197857.39973314333 6.890122172902034 0.20547154226985617
0.42758605041099973 13.377038785314163 166072.46434197985 7.250140575584744 0.20848536964630623
0.444581062171541 13.314911367087463 139797.23060783226 7.625276162748792 0.21152463851920802
0.46196283086328077 13.260558547236588 117975.39914110106 8.016477418960442 0.2145955026559134
0.4797287021483202 13.213132539893786 99808.96071386631 8.424449635570745 0.2176996135337669
0.49788523830284426 13.171975186197505 84639.90590639615 8.849634151034564 0.22083444577298567
0.5164242929377016 13.1363911635639 71934.97708548896 9.292903343433759 0.22400339399482677
0.535342856786662 13.105842521331866 61272.40501105165 9.755142530061065 0.22720938427119924
0.554649213288764 13.079826077370699 52296.85714787619 10.237161348090282 0.23045376761699804
0.5743326480032631 13.057835362236757 44727.55274692815 10.739431355699743 0.23373324543657215
0.5943898412866856 13.039532168467272 38322.82797036606 11.263196521787052 0.23705399646883005
0.6148274854326949 13.024498091065336 32900.47233053201 11.8093948775702 0.24041764075974079
0.635631917848783 13.012429019695496 28290.787970441008 12.37900549644085 0.24382581138196144
0.6568028860314225 13.003011826987985 24369.933584259394 12.972718063446804 0.2472764663783386
0.6783351487671418 12.995974137666815 21026.7801419488 13.591858066873638 0.2507743764378852
0.7002239853938895 12.991054280142238 18171.337704370937 14.237623913088305 0.25432218606423945
0.7224585570028895 12.987996478282824 15729.023566606058 14.911205378855815 0.2579218800479962
0.7450460010825302 12.98665477683999 13633.476651469615 15.613631966240195 0.2615733529859469
0.7679667497964344 12.986757789883331 11835.285936095235 16.346170289704794 0.26527850402540676
0.7912116667000845 12.988145706159804 10287.97328735362 17.110436307488715 0.2690420221802162
0.8147864293348331 12.990673176629503 8955.714570987177 17.907885181975917 0.2728663402586416
0.838670353163158 12.994133704194779 7807.028879778038 18.73987913342203 0.2767525112802183
0.862852034322537 12.998401958553337 6814.166868805566 19.607768921341 0.28070107216930507
0.8873326790490612 13.003361727827958 5955.064851276346 20.51363749451167 0.2847183562041331
0.9120888177969063 13.008849433257026 5210.852672038114 21.459279128387678 0.28880737702592446
0.9371085150102566 13.014737331400362 4564.878131282736 22.44617387634928 0.2929680231356376
0.9623930079594222 13.020961054056599 4004.3545244643938 23.47635543918248 0.29720416025905694
0.9879139629228202 13.027332168416294 3516.3564705084436 24.55224236415174 0.30152185659587044
1.0136562889349086 13.033790263019975 3091.6733199181003 25.675771864302064 0.30592270546176814
1.0396204726146003 13.040245089472787 2721.2296043587776 26.848915557526475 0.3104080431636925
1.0657716673240383 13.04657486479737 2398.156377261666 28.074765478289244 0.31498656782302675
1.0921042375529357 13.052707129952024 2115.648315600648 29.355369635046724 0.319658676460899
1.118602324566502 13.058539866278352 1868.4834435001078 30.69349794830085 0.3244291508796074
1.145233782138131 13.063998177894424 1651.9609520204717 32.09253616028599 0.32930595297347426
1.1719978608416233 13.069009280327261 1461.987236516233 33.554439254245665 0.33428687028301673
1.1988539386669663 13.073462483247656 1295.3277586154998 35.08374324464809 0.3393854261599685
1.2257995703781963 13.077334939842098 1148.983461310018 36.6824632222468 0.3445983317579823
1.2527959142297502 13.080492886263112 1020.1020137148894 38.35566012065185 0.3499400772768541
1.2798400291977368 13.082936312076908 906.666789550358 40.105581655830555 0.355407287623058
1.3068822010906398 13.084527277818644 806.6700042950105 41.93768503733705 0.3610144399036455
1.3339195241103523 13.085235710033256 718.5041082063485 43.85546601150743 0.3667635310463828
1.3609283744987368 13.085030568663388 640.5816992065747 45.86360421603531 0.37266226532361185
1.3878592463375936 13.083774830823032 571.7476040986834 47.96743753469942 0.37872062541087526
1.4147161671233557 13.081481972846811 510.7851501891904 50.17172710572659 0.3849442848839372
1.4414394014492127 13.07803155272538 456.8245033137081 52.48168463694767 0.39134017244855296
1.4680350468821897 13.073433108827096 408.97971811854535 54.903730495642144 0.3979200005904427
1.4944435513131504 13.067566897705204 366.49461336069686 57.44405458720011 0.4046928303957687
1.5206556963263973 13.060418496691891 328.803153440509 60.109284929473155 0.41166843304325174
1.5466393030926573 13.051930643983699 295.2660269325589 62.90652709233806 0.4188573482714407
1.5723564412483277 13.042049608217066 265.4405393054854 65.84340741335714 0.4262709476194608
1.5977796964970656 13.030722191444632 238.89792998577795 68.92812037288108 0.43392150299997995
1.6228666777680363 13.017897527986777 215.2119844045075 72.1694805595857 0.4418222612315346
1.6476184699188634 13.003560390428293 194.08282446391794 75.57697971148042 0.4499875252331926
1.671967860942313 12.987624503748428 175.21587708279657 79.16053773520679 0.45843144127135976
1.6959046622037859 12.970072701907783 158.3468499682348 82.93038235072146 0.4671674313073939
1.719385130985361 12.950863350646518 143.26541694477265 86.899233975557 0.4762169719921263
1.7423662312834494 12.929914906438393 129.7735344618767 91.07865796283782 0.4855943546544591
1.7648490491980025 12.907276619488643 117.66776420188039 95.48276979450046 0.49532160202510894
1.7867763849926703 12.882837778377128 106.81088163031463 100.12521338148251 0.5054161392970333
1.8081156793923483 12.856579882544846 97.07541652124112 105.0225273616821 0.5159037178664284
1.8288250542585613 12.828446275494858 88.32439935451325 110.191253624074 0.5268068762779813
1.848904901791495 12.798480099908405 80.45663561949756 115.64904476879592 0.5381490653718176
1.8682808259095627 12.766541548619418 73.3779579669733 121.41607180158938 0.5499594752957209
1.8869601447257474 12.732720056224439 67.00332157748039 127.51377264481631 0.5622679590668151
1.9048832674193805 12.696904097545623 61.251048757662126 133.9645799135671 0.5751037838539986
1.9220248358145535 12.659086311707236 56.06990369717541 140.79420244761312 0.5885033346997461
1.9383385101186936 12.619198873242896 51.387907037656866 148.03031099138067 0.6025048499182181
1.9538351324235725 12.577353934248528 47.158385659496815 155.70139665313272 0.6171440640963446
1.9684516392974754 12.533425160276249 43.33807037104134 163.84111541082862 0.6324686053749388
1.9821662078493636 12.487424661575194 39.87591845791685 172.48326143771328 0.648520101212717
1.9949567814057199 12.439349092767221 36.74371640233948 181.66709239701336 0.6653516067247499
2.006791362024984 12.389189539217313 33.89995034148071 191.43463108704148 0.683017602229891
2.017640521303504 12.336914381436992 31.32657186329602 201.831914167689 0.7015773244488844
2.027474777957793 12.282529557757401 28.989210389076245 212.9088702138708 0.7210933750263236
2.036284773774471 12.22606482587957 26.86679747287998 224.7210337854726 0.7416362351715654
2.0440309862384116 12.16746940302969 24.94093470923356 237.32952500721956 0.7632828880529026
2.0506896121935503 12.106763599171911 23.185972006042945 250.80123698917419 0.7861160091349763
2.0562623797437585 12.044017293368084 21.592014059489575 265.2093236409275 0.8102239240465972
2.0607093552371754 11.979171458442712 20.14062759188021 280.635402014355 0.8357059109864863
2.0640153874083893 11.912275324216258 18.820618775354735 297.1693292709093 0.8626693395102528
2.0661760196722736 11.843372495289534 17.617470578772778 314.9114667462885 0.8912346267194502
2.0671658346804493 11.772481377686065 16.5214413415448 333.9711830079083 0.921527489269357
