M[M_sun], R[km], Lambda[1], P_c[MeV/fm^3], rho_c[fm^-3]
0.24162668629717493 15.618656898711224 2160425.4255784233 3.5677272577965504 0.1711233750220791
0.2536442122852965 15.27728984878623 1723244.277168668 3.784823950966189 0.173888227210995
0.2660403809367681 14.981261850904966 1383090.1498534787 4.011410620283289 0.17666677152288177
0.27881580176207166 14.723496050964796 1116471.5361768696 4.247743222940355 0.17945768829259034
0.2919705744751013 14.498409614590138 905887.555177803 4.494446973513927 0.18226754431134864
0.30550619497692244 14.301200761490998 738656.6243768837 4.751677239153246 0.1850920411836883
0.3194220089987944 14.128144298390266 605094.3257645728 5.0201167262733195 0.18793780692849188
0.3337209442037963 13.975977047848328 497672.4557385045 5.29998887667148 0.1908014525554704
0.3484022517895806 13.842017093717242 411000.36072111153 5.592023055203802 0.19368928982204806
0.3634658122020564 13.723963689677703 340635.21596915787 5.8963856046954035 0.19659636439907924
0.3789188551972884 13.61999061485169 283301.2116951787 6.2139410071982875 0.199530365427555
0.39475153775030164 13.528448475857067 233298.60295296684 6.544946950752643 0.2024874760614115
0.4109770271519253 13.4478742454133 197859.471110453 6.890105318560674 0.2054713987312125
0.42758504634356026 13.377039904297597 166079.15791607567 7.250121470445595 0.2084852115943863
0.4445801056951372 13.3149155196053 139796.97149248057 7.625254859610964 0.21152446893253302
0.4619618876558928 13.260563969941405 117981.1835339237 8.016453546232373 0.21459531798106152
0.47972698352970655 13.213141760840497 99810.24632984812 8.424423007085432 0.2176994133247833
0.49788399509246234 13.17197777672235 84640.47668982939 8.849604864970772 0.22083423372937083
0.5164226119689972 13.136398859070761 71935.64306275782 9.292870925833657 0.22400316577290108
0.535341570945975 13.105838189583624 61274.211390649216 9.755106761111746 0.2272091393780386
0.554649063953959 13.079813832447476 52299.55948231262 10.237121994621475 0.23045350553824762
0.5743305797454892 13.057839301911121 44728.47278668595 10.739388588699892 0.23373297085918554
0.5943879041726284 13.039540957440428 38327.632921227836 11.263149698076761 0.23705370391344083
0.614824944357381 13.024517827227443 32900.458361088 11.809343720520609 0.2404173296395256
0.63563047669833 13.012443340892917 28291.45000145617 12.37894971216418 0.24382548107911992
0.6568005714780937 13.003025567473992 24369.820472237152 12.97265790811437 0.24727612255512627
0.6783326950003243 12.995980515264412 21027.084880159924 13.591792686230397 0.25077401241598013
0.7002195520933978 12.991058757808151 18171.599833047087 14.237552956552223 0.2543218011215682
0.7224556664522843 12.987992134235032 15728.71715792198 14.91112847331841 0.25792147341943017
0.7450436422772438 12.986641514271058 13633.452615091708 15.613549465013453 0.261572931294401
0.767964038133956 12.986757869354287 11835.833022916195 16.34608107550049 0.265278059314974
0.7912100028781706 12.988142442926891 10288.695627565572 17.110339932530927 0.2690415535414318
0.8147845144721247 12.990657226291365 8956.031328359022 17.90778116880044 0.27286584672356123
0.8386670078231624 12.994133290780674 7807.053980630229 18.73976794337896 0.2767520004195017
0.8628487014823624 12.998403061536793 6814.282038255166 19.60764910862316 0.28070053464520206
0.8873285480918205 13.003360325397084 5955.197746842526 20.513508482426555 0.2847177908531725
0.9120839875076175 13.008849048615104 5210.95869124085 21.459140300750644 0.28880678260618536
0.9371050463926972 13.014741787825635 4565.113898547014 22.446025811481952 0.29296740815847405
0.9623890422175878 13.020953014065062 4004.25871355461 23.476196278887556 0.2972035138618081
0.9879099825926364 13.027335076388935 3516.421226519718 24.5520713592289 0.30152117727449185
1.013651952084359 13.033792217917876 3091.7189737931053 25.675589676709656 0.3059220023647617
1.0396161272061784 13.040253425998156 2721.3014705895666 26.848719959875478 0.3104073042309882
1.065767340495597 13.046578451158364 2398.176610426383 28.074555554936097 0.31498579122526177
1.0920998220549851 13.052703886176674 2115.7037528351084 29.3551461300236 0.3196578719800485
1.118599094008549 13.058537013173497 1868.5279483483055 30.69325819305147 0.3244283051274295
1.145229096401729 13.06399422450794 1652.0319608740901 32.09228093735124 0.32930507605260895
1.1719919921745565 13.069007213598102 1461.9567600630103 33.55416556974069 0.3342859479380169
1.1988489089445062 13.073465859188818 1295.4375665287218 35.08344980676368 0.3393844558404359
1.225794875018018 13.07732963396964 1149.0256627613549 36.682150882551475 0.3445973241984744
1.2527904651699535 13.08049229452252 1020.1161917200337 38.35532761152792 0.34993903023749934
1.2798335755184738 13.082939119928747 906.6590755325158 40.10522519776665 0.35540618486089326
1.3068771873338287 13.084525120854165 806.7184014301504 41.9373054830052 0.3610132924533981
1.333913687321348 13.085232150248737 718.5007206496815 43.85505910524977 0.36676232151054866
1.3609227835339566 13.08503500492284 640.5860313346622 45.863170810494154 0.3726610050391718
1.3878533443629573 13.083774037940879 571.7755801105728 47.96697577857665 0.37871931110389173
1.4147101767352555 13.081481613962062 510.78508591258895 50.171231935441526 0.3849428973622296
1.4414342122364523 13.078030806689908 456.8669323668019 52.48115683860724 0.3913387233120591
1.4680278983333714 13.073432767005194 408.9862163420378 54.903167732088306 0.3979184857321666
1.49443746752763 13.067566947220861 366.5056407349952 57.44345433195607 0.4046912453912129
1.520649372945963 13.06042168274201 328.8152549420852 60.10864444979212 0.41166677312434136
1.5466331132662996 13.051933776647529 295.27690300133605 62.905843430560815 0.4188556082978641
1.5723499997464014 13.042054032736123 265.4518090559686 65.84267736639062 0.4262691220471507
1.5977734805343302 13.030725454252316 238.90248987127006 68.927340469584 0.43391958584641815
1.6228609362554478 13.017902512387735 215.21677387540217 72.16864703582787 0.4418202460375445
1.6476127798685325 13.003565230637125 194.08072350443976 75.57608848260585 0.44998540502082063
1.6719607995211665 12.987629297722176 175.22037588609575 79.15958901957977 0.458429227928656
1.6958980341946797 12.97007937144436 158.34931201758934 82.92936689159471 0.4671650977852781
1.719377501788312 12.950869948113198 143.2664159184495 86.8981465453149 0.47621450949765387
1.7423599068495244 12.929921890132237 129.76970016621962 91.07749810885717 0.48559177440627904
1.7648449189878304 12.90728065407091 117.67382460943135 95.4815263428147 0.49531887361446114
1.7867704759114098 12.882844690302136 106.81383286736526 100.12388524936186 0.5054132732455363
1.8081091791100607 12.8565895810694 97.07922203371523 105.02110766170505 0.5159007031305514
1.8288191871813209 12.828455029029929 88.32555935650333 110.18973484370848 0.5268037009122444
1.8488980601632596 12.798489837454845 80.45545483124685 115.64741250132059 0.5381456936704657
1.8682758217938 12.76654949156051 73.37967401166708 121.41432307707113 0.5499559155334378
1.8869545133370247 12.732730775058034 67.00518913991702 127.5119027634519 0.5622642142434809
1.9048781627210942 12.696915531661503 61.25280249308789 133.96257478662545 0.5750998251108295
1.922019582184157 12.65909821002973 56.07036711381292 140.79204878667605 0.5884991385492448
1.9383326588368062 12.619211950865447 51.388114192213344 148.0279958985061 0.6025003967218908
1.953830198574299 12.57736799575596 47.158749646240516 155.69891358789667 0.617139358439164
1.9684474457939447 12.533440621981528 43.33943201454473 163.83844932505957 0.6324636251045654
1.982161559267098 12.487440790518384 39.87812180892518 172.480387781707 0.6485147953211003
1.9949523452781377 12.4393646117262 36.74304160888941 181.6640007529924 0.6653459752522977
2.0067880554509254 12.389206147255996 33.9016620292185 191.4313013770496 0.6830116163703048
2.0176349408636702 12.336932674022789 31.325410159064763 201.82832424331963 0.7015709526872456
2.027472067989502 12.282547486873545 28.99007709553752 212.9050046698774 0.7210866124883752
2.0362823290599463 12.226084880308811 26.86833144359121 224.71685684035668 0.7416290152224937
2.044026988131141 12.167490885442731 24.94103588309701 237.32501631078742 0.7632752003113099
2.0506878597783325 12.106784963144111 23.186983002304867 250.79636396513263 0.7861078096916029
2.056260051856654 12.044040958309479 21.592581405590842 265.204040115978 0.8102151319541148
2.060707797706886 11.979192141007363 20.14082100198677 280.62968790482694 0.835696538516913
2.064013683408147 11.912296895780301 18.81984919786519 297.163129867027 0.8626592953651473
2.066175549908862 11.843398161636017 17.61796978704607 314.90473226315896 0.8912238461365307
2.06716785831433 11.77250826880467 16.522657069369092 333.9638690252907 0.9215159374180494
