M[M_sun], R[km], Lambda[1], P_c[MeV/fm^3], rho_c[fm^-3]
0.24162668629717493 15.618656898711224 2160425.4255784233 3.5677272577965504 0.1711233750220791
0.25364491642041076 15.277244547042812 1723235.0560285177 3.7848373091529375 0.1738883937143486
0.26604108929478887 14.981261267527403 1353263.197465493 4.011438702005033 0.17666711087391634
0.27881733998610675 14.72349237653377 1116284.3484722814 4.2477869783969044 0.17945819578994826
0.2919733760316195 14.498355965528923 905851.2386746677 4.49450755103835 0.18226821885614242
0.30551006809435594 14.301156154587307 738579.2884023158 4.751756695813454 0.18509289946726387
0.31942853304934654 14.128037863071187 605047.129756254 5.020215647530081 0.1879388332747109
0.33372565107012503 13.975933038581063 497648.4219625992 5.300109867059351 0.1908026707279169
0.34840944722078815 13.84195615003656 410964.35347778496 5.592166416972851 0.19369067688660105
0.36347320816304746 13.72391985991549 340633.88617034786 5.8965545589116 0.19659795125283228
0.3789283660469232 13.619950276711714 283276.1510866892 6.214137598681624 0.19953215810517147
0.39476121136302317 13.528397499358762 236385.45209349072 6.545170975557023 0.2024894404563032
0.4109884545466768 13.447801538455508 197835.7081627202 6.890361101786559 0.20547357708849942
0.42759866811931724 13.377023336152561 166062.95677501624 7.250411412607792 0.20848761021158832
0.44459417328889894 13.314872160004171 139782.55439806622 7.625578159492705 0.21152704260747282
0.4619778193569742 13.260521452475398 117956.65949482117 8.016815843366084 0.21459812064229541
0.4797434708093385 13.213125400535699 99797.12301541479 8.424827126937634 0.21770245174112265
0.49790341289771317 13.171933075771141 84627.4452530096 8.850049317615232 0.22083745175641675
0.5164430219271176 13.136364522181116 71926.85125239774 9.293362904435648 0.22400662933293036
0.5353626204000248 13.105813019915352 61262.117583048064 9.755649601806027 0.22721285595277396
0.5546723066003976 13.079787225645083 52295.29074092469 10.237719028274082 0.23045748026015866
0.5743565456877666 13.057809212712137 44718.93705634661 10.740037636367973 0.23373713794626444
0.5944164220621281 13.03948714243286 38320.35917314434 11.263860313260828 0.23705814384997037
0.6148540251643834 13.024481024075522 32893.000304328445 11.810120101697843 0.24042205133244657
0.6356605724425896 13.012416080180358 28284.043122258823 12.379796319765482 0.24383049390554803
0.6568330332886247 13.003009720328716 24364.848340509467 12.973570854350568 0.24728134058144116
0.6783664134159929 12.995967741431333 21022.45294725293 13.592784936224879 0.25077953699810973
0.7002569908010416 12.991056728291767 18167.555666808054 14.23862983123777 0.2543276432192942
0.7224929902634826 12.98799193209048 15724.347709038797 14.91229563553486 0.2579276446460337
0.7450839171187303 12.986649522109479 13630.370840973055 15.614801552616893 0.26157933113568727
0.768006332525538 12.986749952711639 11832.728066704829 16.34743504587791 0.26528480851771796
0.7912541521614623 12.98814569912305 10218.47545032472 17.111802581828798 0.26904866590967275
0.8148312175160671 12.990668621240108 8953.909564782527 17.909359743776857 0.27287333694895083
0.8387149747756887 12.994142863406722 7805.267015729526 18.741455442106144 0.2767597536030178
0.8628977941275126 12.998414628889927 6811.9979284835035 19.609467474748506 0.28070869250722297
0.8873807849451051 13.00337202810354 5953.344477899444 20.515466468815436 0.28472637105311915
0.9121390614772427 13.008862962042251 5209.4435960267265 21.461247259690982 0.28881580399421997
0.9371620346562327 13.01475180013664 4563.762072804931 22.448272965633283 0.29297674155748316
0.9624473489823161 13.020960628768172 4003.1683061071913 23.4786118312394 0.29721332413763946
0.987969747997698 13.027347518060076 3515.287892884234 24.554666681026323 0.3015314872559359
1.0137147957422477 13.033810369541452 3090.7638811379793 25.678354721127388 0.3059326732036872
1.0396802478473701 13.040268360919649 2720.416186739192 26.851688533642992 0.31041851896813216
1.0658347882431272 13.046589305155699 2397.338898823716 28.07774155564836 0.3149975776272757
1.092169320887284 13.05272180394733 2114.8899674681606 29.358538265068024 0.3196700815834269
1.1186698995541757 13.058552532846983 1867.7090372673472 30.696896965434647 0.3244411411327977
1.1453018081924913 13.064015680656764 1651.4561612992172 32.096154469908754 0.32931838512894895
1.1720667691138524 13.06902036105007 1461.4824862044406 33.55831930354725 0.3342999464492129
1.1989250366481097 13.07348263791382 1294.9181004546297 35.08790334909449 0.33939918249756584
1.2258723321405738 13.07734303849812 1148.5882830726457 36.68689130842542 0.34461261607854154
1.2528703110736437 13.080502881379646 1019.801870581556 38.36037416095597 0.349954921337853
1.2799148357828893 13.082938654105437 906.3316813171874 40.1106352367444 0.35542292171411316
1.3069599227708901 13.084523677008253 803.0869536210765 41.943066069664994 0.3610307075795957
1.3339995914998881 13.085242350693456 718.307110949274 43.86123483302496 0.36678067896734773
1.3610093711666356 13.08503310826104 640.3410220291474 45.86974873787556 0.3726801327584531
1.3879412722444588 13.08376939617025 571.5715059898698 47.973984005137496 0.3787392587789887
1.414792330955701 13.081456293370241 510.6133478245015 50.17874731821993 0.38496395629298696
1.4415236118576829 13.078018588436981 456.68007751821 52.48916744585119 0.3913607174382358
1.468119703854829 13.073415006658799 408.8427545861813 54.91170903823632 0.39794147739219665
1.494530005682321 13.067544611642363 366.37529978681744 57.452564685136714 0.40471530174297304
1.5207427149351276 13.060393001670668 328.71184675618724 60.11836532913576 0.41169196654097256
1.5467287164831913 13.051898731874136 295.16325008627723 62.916219729187574 0.4188820168028215
1.5724432073045913 13.042013482392292 265.3493224569195 65.85375770293454 0.4262968297926925
1.5978575383641656 13.030673148628688 238.80650990004548 68.93917753146265 0.43394868364024264
1.6229546286621852 13.017851926351366 215.13964434197393 72.1812979578571 0.4418508319228342
1.6477077464500043 13.003504618111196 194.00699230132747 75.58961526501001 0.4500175849155982
1.672056076062854 12.987565866466461 175.1477833321875 79.17398834721207 0.4584628213952831
1.6959927853832297 12.970004407394375 158.29425142501827 82.94477927196496 0.4672005153904808
1.7194730576023867 12.950787288331345 143.214237101569 86.91465132828618 0.4762518847105761
1.7424531937049832 12.929832235221966 129.71972206064726 91.09510216400825 0.4856309369491704
1.7649364343533758 12.907180632199783 117.62479760553106 95.5003992809963 0.4953602850549539
1.786862514326626 12.882742985810065 106.77490753674036 100.14404350454171 0.5054567738856732
1.8081993171796351 12.856472988933323 97.03916082895407 105.04265577872096 0.5159464606022013
1.8289132258834397 12.828338723093566 88.29040792601236 110.21278685649753 0.5268518965389719
1.8489859021642874 12.79834890804841 80.42810494348076 115.67218709468986 0.5381968694313117
1.868359032901634 12.766404366541574 73.3480239645834 121.44086533150322 0.5500099458368104
1.8870358284624176 12.732575158512152 66.97660328551038 127.54026232219847 0.5623209760588085
1.904957886769998 12.696747039993742 61.22724176412641 133.99300889926118 0.5751599114988805
1.9220969046687435 12.658918243021942 56.046768419060776 140.82473746989567 0.5885628285350346
1.9384081697546298 12.619019355539635 51.367362871970364 148.06313493757943 0.6025679884118246
1.9539020419343298 12.577163686842233 47.14218628320101 155.73660226147848 0.617210782248291
1.9685151504538725 12.5332232532217 43.32215536164808 163.87891605879392 0.6325392172994833
1.9822263811619487 12.487211903482283 39.860648890537675 172.52400523662982 0.6485953301825815
1.9950116860332403 12.439119218283855 36.72827457593577 181.71092706642114 0.6654314521828784
2.0068443440912307 12.38894864181765 33.886848070839214 191.48184132973384 0.6831024726493808
2.017688036415153 12.336661781652936 31.314232458266886 201.88281404700248 0.7016676667138068
2.0275200385651857 12.282267736152786 28.97820453293658 212.9636781721733 0.7211892582703179
2.036325577681689 12.225784802204874 26.85800940189577 224.78025721158937 0.7417386042735181
2.0440649960874486 12.167178914222015 24.931548148158672 237.39345246601928 0.7633918902426325
2.050720027595358 12.106457305424966 23.177694346562856 250.87033041994496 0.786232267061933
2.0562882763796426 12.043696324099047 21.58507179109762 265.28421328687614 0.8103485056852985
2.0607286592447944 11.978834170505227 20.133404523641516 280.7164216903107 0.8358388021122181
2.0640285888128966 11.911924669372729 18.81292349699235 297.2572302787238 0.8628117548931128
2.066184572695977 11.84300895595331 17.61128740576038 315.0069550663665 0.891387484738788
2.067171508014279 11.772104845185954 16.516672290760713 334.0748885432112 0.9216912838784282
