M[M_sun], R[km], Lambda[1], P_c[MeV/fm^3], rho_c[fm^-3]
0.24162668629717493 15.618656898711224 2160425.4255784233 3.5677272577965504 0.1711233750220791
0.25364402400882874 15.277298753022126 1723264.7886040676 3.784820500369755 0.17388818420097507
0.26603998832203585 14.981259400944184 1382957.8670360234 4.011403366425766 0.17666668386429452
0.278815058754706 14.723508372414628 1116460.0579462438 4.247731920396857 0.17945755720011836
0.2919700945935169 14.498415582465153 905918.0475579527 4.494431325680978 0.1822673700690971
0.3055046340860592 14.301234440066496 738656.6296578085 4.751656714696062 0.1850918194803792
0.3194215838586304 14.128123620593495 605075.6099957624 5.020091173987089 0.18793754181365996
0.333719445094007 13.975972046819965 497673.8013456451 5.299957623813794 0.19080113789105138
0.34840039289712044 13.842031728356167 411008.55996656575 5.591986023727204 0.19368893153232494
0.363462916116834 13.72399510091789 340632.84162613086 5.8963419626127065 0.19659595450340292
0.3789164180548908 13.620009139276807 283303.35857173934 6.21389022635621 0.19952990236741935
0.3947481969160314 13.52846039422051 236408.11145728923 6.544889083857926 0.20248696864691917
0.41097349633671615 13.447873353908927 195376.9567722368 6.890039248467336 0.2054708360505724
0.42758143492899814 13.37706301575069 166086.92685408622 7.250046577134797 0.20848459202121958
0.44457635795017814 13.314930658296015 139804.5522871499 7.625171350064545 0.21152380414284708
0.4619575796929831 13.260581133537228 117983.16807348868 8.016359963807691 0.21459459404534845
0.47972174153915687 13.213161432591106 99812.76425339624 8.424318622011649 0.2176986284949561
0.49787978571589475 13.171983515365449 84646.43735803736 8.84949006211905 0.2208334025076729
0.5164173976172307 13.136410442256777 71939.81959965134 9.292743847288879 0.2240022711320234
0.5353359696829569 13.105844430904993 61276.48270891682 9.754966545213952 0.2272081793857817
0.5546419795758495 13.079810193230289 52299.82131152249 10.236967727351109 0.23045247817840683
0.5743250571132109 13.057852719438996 44731.32331977233 10.739220940341413 0.23373189450479315
0.5943796224068247 13.039541302493227 37996.433531686365 11.262966147375124 0.2370525570853354
0.6148183712912373 13.024502955953706 32901.536989374334 11.80914318310235 0.2404161100374333
0.6356216931965273 13.012438113684603 28292.678452063028 12.378731036002685 0.2438241862813413
0.6567924510216444 13.003014207523815 24371.22167489297 12.972422097408078 0.24727477475782783
0.6783244537683447 12.995973273538752 21028.40181786581 13.591536392322272 0.25077258544016495
0.7002115037299035 12.991066669710483 18172.855656753716 14.237274805179768 0.25432029213679747
0.7224453305765816 12.98800115308111 15729.927520753754 14.910827001917815 0.2579198794264947
0.745033325376688 12.986640784195476 13634.507954623718 15.6132260585685 0.2615712782551784
0.7679533886021755 12.986755270919826 11836.263593140395 16.345731354287075 0.26527631604243823
0.791198417830274 12.988134680976584 10289.175337456174 17.109962141297146 0.26903971647059277
0.8147743820963452 12.99066080828301 8956.63780631717 17.907373435920363 0.27286391206019955
0.8386544386040641 12.994133101694608 7758.066393690888 18.739332077335614 0.27674999784055565
0.8628336620711796 12.998404671198116 6814.762461432385 19.60717944193317 0.28069842754696733
0.88731424177503 13.003360373059355 5955.4407898142335 20.513002754500796 0.2847155746749875
0.9120705736170411 13.008847985230405 5211.290421762094 21.458596096196192 0.28880445247987774
0.9370912393060093 13.014737751794412 4565.5084384674365 22.445445397296407 0.292964997448385
0.9623693875679578 13.020938179856833 4004.585794785874 23.47557237106947 0.2972009799867778
0.9878941501263055 13.027327402333677 3516.6552312307876 24.55140102098199 0.3015185143388614
1.013636267776194 13.033792929959901 3092.0255359459225 25.67487550287463 0.3059192462303902
1.0395997203699536 13.040247233954707 2721.519912789747 26.84795321927114 0.3104044076230517
1.0657504411239496 13.046567788725685 2398.3940222361093 28.07373265833368 0.31498274697290657
1.09208210660725 13.052698880553296 2115.8268313138838 29.354269993977503 0.31965471842823284
1.118579583311326 13.058539607897798 1868.6630536768155 30.69231835707443 0.32442498979512063
1.1452100975597266 13.063994719403562 1652.1649093147614 32.091280468941626 0.32930163854169564
1.1719731286069381 13.069002903524598 1462.0925627853474 33.553092733178026 0.33428233236818666
1.1988290759985845 13.07345910130458 1295.5377960322176 35.0822995383107 0.33938065221450037
1.225775458991804 13.07732936490194 1149.101583194331 36.68092652027746 0.3445933745953056
1.2527695178932352 13.080493886357297 1020.2061092189666 38.35402418651638 0.34993492587709285
1.2798119249221884 13.08293832418156 906.7244284059082 40.10382789478532 0.3554018620722778
1.3068557332066424 13.084521630069654 806.7835619120854 41.935817644437115 0.36100879449200024
1.333892352118896 13.085236251008567 718.618496838543 43.853464049462424 0.36675758017984655
1.3608994096215907 13.085034716451572 640.6499786281817 45.86147187974594 0.3726560647793383
1.3878308836901871 13.083774953559937 571.8294456210788 47.96516571602689 0.3787141590815742
1.4146874680967385 13.081484703013373 510.8443949865685 50.169290892572555 0.38493745834620335
1.4414106871608254 13.078031978629559 456.8957571149595 52.479087896853436 0.3913330427731686
1.4680046346586575 13.073437793020037 409.02234989525516 54.90096173013392 0.3979125475716462
1.494413560437938 13.067571656765443 366.5438549765107 57.44110136639299 0.4046850322657563
1.5206252214383422 13.060426866258835 328.85190028771825 60.10613380867773 0.41166026634389785
1.546608910296037 13.051942083905294 295.30386335156237 62.903163520344464 0.4188487877133012
1.572324561599773 13.042062912687705 265.4785388227247 65.8398156314732 0.4262619659267038
1.597748894099504 13.03073655155635 238.9289525308744 68.92428330367991 0.433912070739707
1.6228359676131903 13.017917882348424 215.24474802695164 72.16537968420185 0.4418123466258017
1.6475874131919492 13.003579549812258 194.1024279875138 75.57259493413697 0.44997709395180435
1.671936882804781 12.987645849339735 175.23789683813283 79.15587013016042 0.4584205518021875
1.6958729649955755 12.970102156198484 158.36728567219365 82.92538637652997 0.4671559505732525
1.7193544378172338 12.95088976204503 143.28326374050914 86.89388391336425 0.47620485673354046
1.7423401510591772 12.929951016706518 129.78221411178322 91.07295158575445 0.4855816600658905
1.7648208014146571 12.907305105750021 117.68381874292545 95.47665212890924 0.49530817850079345
1.7867471942982307 12.882870714441669 106.82485144816089 100.11867910049473 0.5054020386021434
1.8080857988816543 12.856620234485307 97.08889162942003 105.01554258059357 0.5158888856691463
1.8287962838433462 12.828487331226281 88.33603798996046 110.18378138280463 0.5267912538091611
1.8488760449719948 12.798524698747485 80.46705829261104 115.64101418956247 0.5381324769662611
1.8682636295993995 12.766618355742379 73.3826745100713 121.40746827289298 0.5499419616641366
1.886932495395969 12.732771543783901 67.01180094242036 127.50455298016182 0.5622494632870627
1.9048560914749768 12.696959553596532 61.25824305049033 133.95471492851235 0.5750843073104499
1.921999543813846 12.659145627245795 56.077395518582094 140.7836067019768 0.5884826901578881
1.9383141542064635 12.619272199985083 51.39147488328531 148.01892103047672 0.6024829407617334
1.9538115024936709 12.577419630465974 47.162862587326515 155.68918029949626 0.6171209128833293
1.9684289004371978 12.533495798677182 43.34049605759445 163.82799863124816 0.6324441031216744
1.982145170233676 12.48750009784571 39.881940559384944 172.46912345434146 0.648493996972236
1.994935871694471 12.439428439021572 36.746488309226834 181.65188195695217 0.6653239006972738
2.0067731330349607 12.389272393582937 33.90500925021 191.4182494122409 0.6829881526966334
2.0176215810780658 12.337002918032653 31.32912360853888 201.814252294216 0.70154597636567
2.0274610494763015 12.28261993665461 28.99341920967623 212.88985235194858 0.7210601044146931
2.0362718104997963 12.226160354997145 26.87139333638194 224.7004839009874 0.7416007142070095
2.0440178660824753 12.167570744029618 24.943655045051965 237.30734298294564 0.7632450656638401
2.0506788971601817 12.106870395778998 23.188371269298354 250.7772625597171 0.7860756693018321
2.056254706761473 12.04412901803951 21.59510532235216 265.1833296487468 0.8101806685333893
2.0607027451213753 11.979284068497101 20.14269202043615 280.6072896532977 0.8356598001712576
2.0640104529935415 11.912392224188126 18.822227235369944 297.1388293874206 0.8626199242339979
2.0661725822336034 11.843498663816536 17.61858965603883 314.87833441565374 0.8911815883747318
2.0671676743380405 11.772613280197143 16.524309455683262 333.93519969737065 0.9214706565046894
