M[M_sun], R[km], Lambda[1], P_c[MeV/fm^3], rho_c[fm^-3]
0.24162668629717493 15.618656898711224 2160425.4255784233 3.5677272577965504 0.1711233750220791
0.25364102442737885 15.277369394177397 1723276.9640048495 3.78478238343294 0.1738877090917459
0.26603610361489044 14.981314085092695 1383031.6976082267 4.011323237474076 0.17666571555320223
0.27880817015852327 14.72364609013214 1116558.7803013632 4.247607069013403 0.17945610911221732
0.2919605356062972 14.498543758470662 906033.6217767808 4.494258476157183 0.18226544534953334
0.30549325345304723 14.301389541838573 738772.4798646698 4.751429998557314 0.18508937051338648
0.31940656504893417 14.128320436766687 605236.2673712063 5.019808921702253 0.1879346133372654
0.3337013437608506 13.976138048419932 497795.3904685346 5.299612405133635 0.19079766211176355
0.34838050665540027 13.842187049003789 411097.02996257937 5.591576977259025 0.19368497389522052
0.3634395755048505 13.72415360912479 340745.5283037276 5.8958598993801825 0.19659142686350758
0.3788897964291976 13.620163848682484 283397.66275803675 6.213329313511648 0.19952478751765998
0.3947180425946758 13.528613131860077 236482.00091065682 6.544249904302637 0.20248136390570856
0.41093952342710266 13.448052676204137 197942.4641514693 6.88930946398603 0.20546462089968742
0.427543652087368 13.37720946965082 166148.74411405472 7.249219340503698 0.20847774850457307
0.4445358720054318 13.315072355639106 139860.17582506986 7.624248948167437 0.21151646123064363
0.46191197716049254 13.260702922659666 118034.02101848033 8.015326309237677 0.21458659789157558
0.4796735437401452 13.213271484911187 99854.07807034165 8.423165655682684 0.21768995979997965
0.4978245846819716 13.17210644023254 84682.21438834067 8.848222035595896 0.22082422145385922
0.5163601750641068 13.136499073713223 71977.8736244965 9.291340241924004 0.2239923896627501
0.5352735114592727 13.105938615495917 61309.793738208435 9.753417845644275 0.22719757616875325
0.5545757939821053 13.079906317842884 52332.077889959015 10.23526384008455 0.23044113095390012
0.574253365704386 13.05792437177686 44756.83232860914 10.73736926896252 0.23372000620096464
0.59430374462852 13.039590837751343 38352.1251171788 11.260938848287926 0.237039890483952
0.6147371004245235 13.024552507648027 32922.57213266406 11.806928281862945 0.2404026397424166
0.6355324755650686 13.012472378312632 28309.18712449869 12.376315811191724 0.24380988555601874
0.6566971722474795 13.003075322198738 24386.565695105346 12.96981763999666 0.2472598887472722
0.6782265980142304 12.996004433265938 21042.03415248204 13.588705722529765 0.2507568250291421
0.7001093184610213 12.991084198608366 18184.834580023537 14.234202747841776 0.25430362607580703
0.7223368080964638 12.98801570919829 15740.904745823562 14.907497406938157 0.25790227460273696
0.7449188121202406 12.98666255856103 13644.166984061534 15.609654221615147 0.26155302139396597
0.7678343982109949 12.986756165696688 11844.631741624435 16.34186891104032 0.2652570627315874
0.7910729872932969 12.988119487651511 10297.152947108689 17.105789710126054 0.2690194273507115
0.8146402276045938 12.99065735783645 8963.130407502407 17.902870350347754 0.2728425452411436
0.8385166395587904 12.994118062456916 7813.205512060988 18.734518309062285 0.27672788106605034
0.8626931808260395 12.998367809110356 6820.077460641071 19.60199240847055 0.2806751565991114
0.8871606075519134 13.003325621480599 5960.320238325975 20.50741749500273 0.28469109920185875
0.9119150204691288 13.008810315595523 5215.63814120393 21.452585940735013 0.28877871873465577
0.936931034410609 13.01469713696241 4569.21852582055 22.439035379862553 0.29293837388527527
0.9622020714453655 13.020897522894716 4008.2079667531175 23.468682061981045 0.29717299639425937
0.9877217839378344 13.027288846269107 3519.6814718810015 24.54399799391726 0.30148910562671516
1.0134578820402955 13.033745993794623 3094.692190067282 25.66698841110436 0.3058888084242806
1.0394149041148104 13.04019698217332 2723.940290645984 26.839485656173476 0.31037241869441895
1.0655631922486326 13.046533798512808 2400.4022152948505 28.064644994793504 0.3149491277538525
1.0918865062570784 13.052661732504765 2117.672421682246 29.344594434626188 0.31961989235539184
1.1183784962585672 13.058496469199568 1870.413263580338 30.68193940430683 0.3243883773666935
1.1450033791083998 13.063952652768787 1653.6448784839806 32.080231993328006 0.32926367706771836
1.1717607253770883 13.068969846560684 1463.597380046178 33.54124515943489 0.3342424048231363
1.1986106160330126 13.073426500832365 1296.7430119083974 35.06959695949858 0.3393386482300456
1.2255520899689498 13.07729726648872 1150.18588855982 36.667405793259675 0.3445497588229098
1.2525408016528188 13.08046811655514 1021.2094205705693 38.339535698492355 0.3498890455035196
1.279578666126893 13.082918709756445 907.6434920646371 40.088397579953615 0.3553541258331236
1.3066179240636695 13.084511214776622 807.6264124272803 41.919387654009824 0.3609591241418059
1.3336497927426734 13.08523199766026 719.3448319761621 43.83585021135309 0.3667052227437793
1.360652784040557 13.085039397218686 641.3102724500657 45.84271109489596 0.3726015109654546
1.3875803989127387 13.083790166204633 572.433255135428 47.945177866975556 0.37865726721095605
1.4144326025106218 13.081514449463297 511.38955059101096 50.14785685068201 0.38487739779874586
1.4411612159947538 13.07809003766071 457.3826689655563 52.45624168214729 0.39127031562732245
1.4677439746253207 13.073487662874552 409.46735217073643 54.876602202429545 0.3978469761040315
1.4941505144527343 13.06763761386835 366.95146550087594 57.41511919401972 0.40461642501577255
1.5203597281591972 13.060505799616797 329.20749065733617 60.07841073516925 0.4115884169857783
1.5463409997680226 13.052037008840752 295.6314382186594 62.873571557972284 0.4187734738163986
1.5720561837890918 13.042171859493472 265.76898958316497 65.80821617347202 0.4261829475920092
1.5974781396002684 13.030866003773578 239.20014494319145 68.89052614603065 0.4338290890992079
1.6225648822683507 13.018066035111536 215.49199589885572 72.12930194670876 0.44172512218967547
1.6473162798993313 13.003746602275601 194.32360357376004 75.53401986927074 0.44988532478665166
1.6716656180813096 12.987837483902734 175.43954158850906 79.11480718012041 0.4583247524095348
1.6956055705524713 12.970311208311973 158.5533398578024 82.88143500318141 0.46705495044530465
1.7190688543980808 12.95108782495151 143.45412932683232 86.8468179211681 0.4760982754181249
1.7420753594895049 12.930211835322016 129.9420451037316 91.02275138179724 0.4854699830901165
1.764560187014313 12.907596401251986 117.81673417534242 95.4228342382954 0.4951900900318357
1.7864604228095777 12.883182543964715 106.97066404338847 100.05430086949667 0.5245688338818738
1.80490588302963 12.856734241959577 98.19231456015305 105.19259552636873 0.7403471900036093
1.8181650494316335 12.82518029237066 91.47362528647173 110.99414577256489 0.9502534601609105
1.8268716070292037 12.7869739720942 86.14856832838085 117.4997378245034 1.1555660607500962
1.831742819325873 12.741939904854217 81.80357492455816 124.73953664586918 1.3569631304346395
1.8333297892931757 12.690006354323874 78.15965559132215 132.74674649811234 1.5552419901075023
