M[M_sun], R[km], Lambda[1], P_c[MeV/fm^3], rho_c[fm^-3]
0.24162668629717493 15.618656898711224 2160425.4255784233 3.5677272577965504 0.1711233750220791
0.2536380054076795 15.27746317281072 1723324.783979135 3.7847203665432443 0.17388693608113379
0.26602803315792684 14.981532526023308 1383312.4997492284 4.011192868784868 0.1766641401245315
0.27879721457467443 14.723845425832375 1116714.5624494809 4.247403941232793 0.17945375313606926
0.2919454368611265 14.49881294351851 906257.2213362858 4.493977262454604 0.18226231396968884
0.30547369024143656 14.301665353390485 739007.3342715293 4.751061154367286 0.18508538629218446
0.3193824259139786 14.128598008554057 605373.983255047 5.019349733607253 0.18792984908354946
0.3336747825937696 13.976387646634167 498001.35156281304 5.29905078863644 0.19079200756552708
0.3483467517567111 13.842434457005783 411278.97933255055 5.590911533825866 0.19367853554694753
0.3634008456812578 13.724440174346295 340900.05800071574 5.895075684473255 0.19658406135114415
0.37884624965756325 13.62048730918635 283546.1109192228 6.212416842422084 0.19951646688000987
0.3946685955693812 13.528887451353217 236623.704008601 6.5432101280739055 0.20247224647285147
0.4108838514255306 13.448291092411328 198055.7859058831 6.8881223172002795 0.20545451065949316
0.42748266959336784 13.377441028709894 166259.23440663985 7.24787368966813 0.20846661628007118
0.44446741244442767 13.315298545973537 139956.658597496 7.622748515894466 0.21150451682497598
0.46183889594026767 13.26091027212686 118113.05967687695 8.013644934230236 0.2145735910965597
0.47959185618644246 13.213503235939346 99935.49259209276 8.421290234727145 0.2176758592561844
0.4977389041051082 13.172275794335459 84752.09756011135 8.846159486427153 0.22080928771661806
0.5162655189465435 13.136661701574427 72036.15763029293 9.289057199052102 0.22397631689860079
0.5351708756685685 13.10609648983744 61364.63799338201 9.750898838950553 0.22718032971554009
0.5544663468306388 13.080044721593094 52379.358764856814 10.232492459843483 0.23042267464261357
0.5741339255691066 13.058029531227765 44796.78705587981 10.734357558193478 0.23370067008491616
0.5941829478587527 13.039697454939935 38052.40062538134 11.257641533957344 0.2370192888043453
0.6146035593174722 13.024644172417702 32953.33889360841 11.803325897268333 0.24038073123363538
0.6353918112388295 13.01254607116175 28109.762517267933 12.372387675674194 0.24378662677414012
0.656544226105953 13.003122113370376 24413.361969278565 12.965581791365828 0.24723567837348984
0.6780681793135126 12.996059987121246 21065.738797334583 13.584102037493096 0.25073119294425894
0.6999422318774353 12.991102071260608 18205.151676010904 14.229206558071779 0.25427652150246566
0.7221616648928773 12.988024674647583 15758.294427225763 14.902082459782948 0.25787364373594757
0.744734709635112 12.986656790303277 13660.113872819087 15.603845389572326 0.2615233304977136
0.7676402029136538 12.98674481565206 11858.340961475415 16.335587568036512 0.26522575181212865
0.7908693793322529 12.988120994024557 10309.483870790924 17.099004352162787 0.2689864324526511
0.814429064850133 12.990623085178576 8975.040760379381 17.895547385614098 0.27280779829709945
0.8382955331442983 12.994079670173596 7823.168930716127 18.72669020964272 0.27669191499958484
0.8624609827289825 12.998332369528793 6828.950325730449 19.59355744265035 0.28063731422713073
0.8869205132428761 13.003275835965633 5968.480578813659 20.498335092982103 0.2846512987079557
0.9116648563323609 13.008747519975252 5222.799592996414 21.44281275574779 0.2887368727867277
0.9366692371511864 13.014640838843208 4575.83557232771 22.42861210992461 0.29289508155606303
0.9619321360212469 13.020822580189861 4013.5137802553136 23.457477975435836 0.2971274932697408
0.9874415873898597 13.027215893162909 3524.7023272491506 24.531960391079703 0.30144128594515995
1.0131693024533268 13.033675637309504 3099.1683529436546 25.654163869884044 0.3058393160498442
1.0391161703495497 13.040123889647179 2728.0265140607703 26.8257174865744 0.3103204050289017
1.0652550840051154 13.04645875047233 2403.9939935048315 28.049868794858007 0.3148944641651069
1.0915662597998488 13.052587639656421 2120.812535995879 29.328862550813103 0.31956326723309064
1.118050940837147 13.058423424925179 1873.2441758657817 30.665064131320158 0.32432884874774265
1.1446680283686737 13.063882094016074 1656.30783022647 32.06215572941997 0.3292012270764572
1.1714140253721241 13.068905429373466 1465.8034062490183 33.521982636535746 0.33417748813491693
1.1982615866425623 13.073382208628711 1298.8531132874589 35.04894467869334 0.33927035673626865
1.225188531890796 13.077253581514146 1152.0554917128777 36.645423654507816 0.34447884784605826
1.2521711345208446 13.080432522651368 1022.8857263878218 38.31597095929352 0.3498143975756422
1.2791992544187445 13.082885356276762 909.1642987958812 40.06331163476516 0.35527651829938334
1.3062309418136007 13.08449865489976 808.9460720544694 41.89267687951872 0.3608783734238547
1.3332556041663988 13.08522731658307 720.5314773147937 43.80721535276133 0.3666201051351863
1.360252830699861 13.08504512357088 642.4597765011155 45.81221211528155 0.37251282407570907
1.3871732271465294 13.083816673587688 573.4173742160899 47.91268459036465 0.3785647808566635
1.41401187320632 13.081537742322256 512.2642009628778 50.11301325063581 0.3847797621915723
1.4407413028406229 13.078151990087015 458.1693693093121 52.41910303548895 0.39116834681824714
1.467316801600359 13.073559091842153 410.21609733895957 54.8370041876601 0.39774038536981987
1.4937224514903056 13.067740521899434 367.5947484753943 57.372884185495366 0.4045049013238246
1.5199279209156071 13.060639538133625 329.78614387658257 60.03334661255444 0.4114716251631435
1.5459064341749824 13.05219255296833 296.16314179643774 62.82547039695962 0.41865105253740953
1.5716189135777243 13.042352688559307 266.2546969952943 65.75685280455356 0.4260545071650851
1.5970335539880034 13.031067499633098 239.622012705077 68.83565656649662 0.4336942090310892
1.622128149247202 13.018296869379439 215.87349343484578 72.07066156923106 0.44158334850276665
1.646877072360358 13.004014961447616 194.68550404260586 75.47132158836183 0.449736167062213
1.6712307604172054 12.988141150478647 175.7665556283149 79.04782660877699 0.4581680454366371
1.6951541139077837 12.970635317727456 158.8572360234186 82.8100009571703 0.4668907952156208
1.7186502767614709 12.951499355351428 143.71961466513056 86.77032330375778 0.47592505274575836
1.741649047703294 12.93064483923284 130.1876058703957 90.94116434028916 0.4852884819538715
1.7641308729018732 12.90805220911238 118.04476435734581 95.3353695483076 0.49499817297208615
1.7860614629764047 12.883680279560071 107.15863485909824 99.9677781923134 0.5050764009889387
1.8074046936309116 12.857481333584387 97.38080696465354 104.85424133726828 0.5155463621408444
1.8281405624499936 12.829456923585537 88.60244445926298 110.01063704939283 0.5264282924204521
1.8482245836724525 12.799543916972947 80.71698768205849 115.45557085606099 0.5377494150308219
1.867625173960153 12.767717194818625 73.61591291862514 121.20879889959846 0.5495375436243121
1.8863115375298052 12.733955926375664 67.2148911474742 127.29154291874967 0.5618219537934457
1.9042528340543872 12.698222722749332 61.44865421897727 133.72692685515204 0.5746345829260676
1.9214038337116268 12.66046809188832 56.25048694798046 140.53895119486074 0.5880060081922388
1.9377463819018996 12.620705883813358 51.548714726000995 147.75593403668864 0.6019770721947633
1.9532725712193604 12.578959573897844 47.30999330694441 155.40711926954873 0.6165863789968716
1.9679217998107372 12.535138947039622 43.475019654916416 163.5244160527029 0.6318758860201218
1.9816625182605314 12.489234046915726 40.00127484443819 172.14271200294687 0.6478913139163256
1.994491560616887 12.441286694240727 36.856741519666514 181.30071965968713 0.6646842537036646
2.006340692725887 12.391181864900332 34.007760844302425 191.04005759096557 0.682308272723798
2.017233597841929 12.339049041398646 31.42523678923603 201.4065174108238 0.7008222871673785
2.027095610848528 12.284745730177425 29.07848861998783 212.45052687862605 0.7202910738710007
2.035948189887393 12.228397682866659 26.950247676113012 224.22610577219106 0.7407807403180434
2.043733122381322 12.169919501033545 25.015133610356173 236.79521593743488 0.762371705596327
2.050433989099167 12.109331742014843 23.256543637885475 250.22282135073786 0.785141110558725
2.0560450797971392 12.046675497263669 21.65574200263256 264.5833368101476 0.8091822455911111
2.060542618387127 11.981964683382913 20.199687099973165 279.95755387778115 0.8345926715206331
2.0639038451575056 11.915202700421434 18.87466914278494 296.4348793077393 0.8614793989703541
2.066105988812218 11.846406232016067 17.66745398896194 314.1136546892754 0.8899574865337269
2.067149330588407 11.775635436469262 16.56829102762127 333.1047509243391 0.9201590290034659
