M[M_sun], R[km], Lambda[1], P_c[MeV/fm^3], rho_c[fm^-3]
0.24162668629717493 15.618656898711224 2160425.4255784233 3.5677272577965504 0.1711233750220791
0.25364427631822467 15.277259834173902 1723192.9390639008 3.784824566215506 0.17388823487978095
0.2660403519641149 14.981249809194997 1382980.721235705 4.011411913663844 0.17666678715262246
0.2788161759043579 14.723467229716197 1116373.007396343 4.247745238213017 0.17945771166671629
0.29197061988003364 14.498384925446013 905846.5948862138 4.494449763564899 0.18226757537921376
0.30550620314041965 14.301220331159554 725408.3701161887 4.751680898722189 0.18509208071401728
0.31942342912244837 14.128104304325065 605130.9742890028 5.020121282321584 0.1879378541992511
0.33372122662822284 13.975950457716458 497668.76412929845 5.299994449152449 0.19080150866110734
0.3484025825447467 13.842014303129853 410998.6217608243 5.59202965803472 0.19368935370625356
0.36346532823088146 13.723974486579795 340651.0900594804 5.896393386223953 0.19659643748484212
0.3789195728119626 13.619985957724845 283302.50842086866 6.213950061597632 0.1995304479927748
0.39475096431377155 13.528447742223447 236398.85225225386 6.544957268626081 0.20248756653522276
0.4109774949427727 13.447868740466841 197862.5677176178 6.8901170991016105 0.20547149905924264
0.4275850865925854 13.377072729361391 166077.74595318353 7.250134824207641 0.20848532206663742
0.444580801450685 13.314933390660983 139801.986274084 7.625269749689512 0.21152458746713257
0.46196251746395334 13.260559427742978 117974.91934903307 8.016470232355479 0.21459544706171388
0.4797274091556902 13.213143772396887 99807.11896128887 8.424441619376577 0.2176995532631932
0.4978848643358376 13.171975939824822 84639.9356355796 8.849625334806692 0.22083438193972899
0.5164245564834596 13.136383320209303 71936.97149931874 9.292893584492468 0.2240033252912717
0.5353428485066987 13.105833882001724 61274.87611395347 9.755131762234017 0.22720931054895552
0.554651651889219 13.07979904017355 52297.33698631384 10.237149501184094 0.23045368872122432
0.5743317617056114 13.057839094884987 44728.455425269276 10.739418481188485 0.23373316277822184
0.5943900154709049 13.039517532909096 38325.8157092926 11.263182426048632 0.23705390839840132
0.6148267442695527 13.024519013586707 32900.779544167926 11.809379477328418 0.240417547100576
0.6356314397432437 13.01244851360634 28290.804824371553 12.378988703223932 0.24382571194807798
0.6568022262774924 13.00301212329875 24369.912021733257 12.972699954372196 0.2472763628742941
0.6783344566869176 12.995974223908314 21026.819067289514 13.591838384777105 0.25077426685324483
0.7002239421826465 12.991045656239475 18171.679843058715 14.237602552430811 0.25432207018163006
0.7224578643655242 12.988001218050789 15729.096944842557 14.911182227316957 0.2579217576370832
0.7450451249937271 12.986649648997636 13633.531133243783 15.613607130180608 0.2615732260404847
0.7679659476318423 12.98676131242136 11835.490395471325 16.346143432776802 0.2652783701503567
0.7912118545439891 12.988133776919279 10288.237417158678 17.11040729489402 0.2690418811017927
0.814787209343122 12.990665170807333 8955.928254617933 17.907853869978844 0.2728661916854544
0.8386667951964442 12.994148099435671 7806.84687974764 18.73984566090697 0.27675235749133076
0.8628512134664763 12.99840254562702 6814.256914849537 19.607732853063013 0.2807009103536888
0.8873316173109741 13.00335255473318 5955.173261866315 20.513598656863284 0.28471818601153603
0.9120873101191374 13.008845120554765 5210.9168106790175 21.459237335872757 0.2888071980824781
0.9371071031619274 13.014744871416598 4564.961094524054 22.44612930306549 0.2929678380035929
0.9623917206938905 13.020950991909812 4004.3295638063105 23.476307525738672 0.29720396566832513
0.9879127699169187 13.027335269267837 3516.366221326167 24.552190885008706 0.3015216520936735
1.013654667022696 13.03379033321014 3091.6938245401343 25.67571701873544 0.30592249380216385
1.039619224117314 13.040254252981326 2721.296838188228 26.848856675003635 0.3104078207161242
1.0657708742065497 13.046578305819532 2398.200100975937 28.07470228316473 0.3149863340367818
1.0921029246113547 13.052703873484907 2115.661516526127 29.35530235130372 0.3196584342807366
1.1186010768381167 13.05854079268767 1868.5023631109186 30.693425772597394 0.3244288962751366
1.1452324625656847 13.063993521070325 1651.9779014577919 32.092459328198004 0.3293056889859876
1.1719960284013669 13.069006623413905 1461.9818846281544 33.554356864494004 0.33428659262105886
1.1988522543378952 13.0734629919311 1295.4196400749245 35.08365490834634 0.3393851340557666
1.2257981846747863 13.077338660695277 1148.957157307628 36.68236919575095 0.3445980284430617
1.252794873656448 13.080497966233827 1020.1017898433797 38.35556002235812 0.34993976207692323
1.2798369975996635 13.082933546901112 906.6638103503863 40.10547434795422 0.3554069556483379
1.3068803387263712 13.08452160093522 806.7058836661205 41.93757077656639 0.3610140944760254
1.3339190789158357 13.085233546543947 718.5571025134028 43.85534351671814 0.3667631669285194
1.3609253969463353 13.08503644425881 640.564899024975 45.863473743906894 0.37266188592838567
1.3878575599704803 13.08377176205682 571.7688942479454 47.96729852791639 0.37872022975269837
1.4147151863739824 13.081481988437966 510.79200174323546 50.17157803994656 0.3849438671851942
1.441437566713784 13.07803032535105 456.8318046911532 52.48152574882037 0.3913397362012856
1.468032701770155 13.07342992866986 408.9823804167111 54.903561081588485 0.3979195445582787
1.4944417093251356 13.067565516666422 366.4984125889244 57.44387388664809 0.4046923532467541
1.5206539128396563 13.060419598586426 328.8182919536823 60.109092119755175 0.4116679333420021
1.5466374616830372 13.051931810980639 295.271318048916 62.90632128307834 0.41885682447051215
1.5723541710876914 13.042049568935601 265.4436021356549 65.84318764029459 0.4262703980498634
1.597777880605611 13.030724028284446 238.89715305778824 68.9278855910607 0.4339209258607309
1.6228648534653893 13.01789928721084 215.21674114112878 72.16922963585088 0.44182165457815775
1.6476165755399053 13.003561943741085 194.08505492681812 75.57671141618282 0.44998688696503775
1.6719654975010545 12.987626351626659 175.22136126325827 79.1602521340835 0.45843077496720663
1.695902957997423 12.970075333494783 158.34761479962015 82.93007665711255 0.46716672882437094
1.7193831671340596 12.950865217264777 143.2649043332875 86.89890661573587 0.4762162306831956
1.7423636368295472 12.929918086923843 129.77145600943388 91.07830880054692 0.48559357789688384
1.764848141416316 12.907277806108498 117.67002065128155 95.48239546591654 0.4953207806646123
1.7867743051882639 12.882839406885305 106.80688509329785 100.12481356065985 0.5054152765010437
1.8081134751722843 12.856583384724027 97.07753577594767 105.02209997522398 0.5159028103103888
1.8288232835885558 12.82844835124729 88.32519304342256 110.1907964103989 0.5268059203658091
1.8489023153248418 12.798483115918179 80.45775040534475 115.6485533908846 0.5381480503546143
1.868278905064284 12.766543673063833 73.38229581478646 121.41554536537011 0.5499584036644958
1.8869582663295867 12.732722772694222 67.00163652543034 127.5132101960541 0.5622668333701488
1.9048817922337875 12.696907509131243 61.25362444147763 133.9639762897725 0.5751025921132046
1.9220233491553989 12.659090496586686 56.07049623167963 140.79355410901903 0.5885020714896141
1.9383374415727086 12.619203353586558 51.38941717574498 148.02961405517001 0.6025035093267421
1.953832628781102 12.577359270297814 47.15754946228229 155.70064915036824 0.6171426475037799
1.9684490822828096 12.533429155752708 43.337378124090534 163.8403128113837 0.6324671061125057
1.982164630004054 12.4874297004675 39.876038752930434 172.48239635109954 0.6485185039248713
1.994955651603306 12.439353665479537 36.74300314398982 181.66616168704672 0.6653499114236407
2.0067905043097096 12.389193701905974 33.899896199894414 191.43362870941644 0.6830158002436129
2.0176396331821116 12.33691956267624 31.325479197766445 201.83083345480574 0.7015754062901202
2.0274737639978357 12.2825353212312 28.988848811026735 212.9077065281072 0.7210913392277013
2.0362842154604683 12.226070448464382 26.867386644167187 224.7197763550878 0.7416340616732101
2.044029405406933 12.167475917963442 24.940669014377608 237.32816770595073 0.7632805737295555
2.05068900139 12.106770464118087 23.18573743901852 250.7997700101826 0.7861135407680918
2.0562616731885615 12.04402445758687 21.591597773287795 265.2077330840893 0.810221277267609
2.060709178794542 11.979175832869691 20.140607619668845 280.6336818336447 0.8357030894897528
2.0640149232332092 11.912279842857927 18.820132314255524 297.1674629963548 0.8626663158110733
2.0661759106991946 11.843380150441519 17.617495528745877 314.90943939051584 0.8912313813216084
2.067167910758567 11.772488604752622 16.5224082385888 333.96898119853563 0.9215240116873322
