M[M_sun], R[km], Lambda[1], P_c[MeV/fm^3], rho_c[fm^-3]
0.24162668629717493 15.618656898711224 2160425.4255784233 3.5677272577965504 0.1711233750220791
0.25364377872367266 15.27729949402018 1723300.79180411 3.7848159339619274 0.17388812728290443
0.2660395546728406 14.98128435467303 1382971.8612438294 4.01139376691951 0.17666656785992665
0.2788142583501393 14.72353840162141 1116465.5007421277 4.247716963020131 0.1794573837170886
0.29196770639456543 14.498454324997299 905943.1428839613 4.4944106179348795 0.18226713948353826
0.3055049029787345 14.301193407348094 738633.9840647727 4.7516295534501625 0.18509152608708548
0.31941993857971207 14.12815342210583 605123.0325346504 5.020057359159127 0.18793719097176853
0.3337162523565978 13.975976202882597 497678.4670221613 5.299916265145629 0.19080072147788937
0.34839793678842335 13.842052520295839 411021.13137258677 5.591937017950798 0.1936884573879572
0.3634590779798139 13.724039322416145 340666.0407052504 5.896284208738972 0.19659541206679879
0.378913333487799 13.62001941466107 283315.48963863513 6.213823025476145 0.1995292895763083
0.3947456617906661 13.528463894562163 236407.6642595482 6.5448125057376245 0.2024862971602561
0.41096917323052157 13.447920597418968 197879.68356149254 6.889951814765316 0.20547009142847586
0.4275769060148331 13.377074606476762 166083.5760295334 7.249947467379798 0.20848377211161612
0.4445717208083879 13.314947838521869 139806.42682860087 7.625060838180362 0.21152292439719006
0.46195227477910494 13.260589651257126 117986.55878690313 8.016236122198194 0.21459363603037734
0.4797165436942092 13.21316786039305 99817.69617823376 8.424180484975142 0.2176975898975536
0.4978726937148683 13.172006484803536 84649.4446196775 8.84933813898376 0.22083230251926164
0.5164111694574343 13.136405603236005 71939.52124970139 9.29257567946019 0.2240010872200254
0.5353292320397622 13.105851021532578 61282.59166000754 9.754780992466948 0.2272069089934569
0.554633327013328 13.07984335407725 52303.34845300668 10.236763580175918 0.23045111863785814
0.5743159096270573 13.057852039802723 44332.00781754847 10.738999085754733 0.23373047012962472
0.5943720901562201 13.039534891552913 38331.35446366455 11.26272324900024 0.23705103945189357
0.6148082187319059 13.02451173070039 32903.82628746739 11.808877806008404 0.2404144961019302
0.6356121728441032 13.012460495215112 28062.949969679255 12.378441655736973 0.24382247283931513
0.6567805945919034 13.00303721635754 24372.994676511746 12.972110042850806 0.24727299118194246
0.6783129115712528 12.9959763386307 21030.249066075863 13.591197232225023 0.2507706970876099
0.7001994213989153 12.991056100193923 18173.621536770595 14.236906721017293 0.2543182952622517
0.7224333477497725 12.988005267639945 15731.630357267872 14.910428058321108 0.257917770061316
0.7450194658336093 12.986654573727696 13635.005083670583 15.612798088298774 0.2615690907550435
0.7679382692658933 12.986764376216039 11837.858659012894 16.34526856173346 0.2652740091376309
0.7911828838799673 12.98813505965958 10290.033517182434 17.109462203794504 0.26903728544381045
0.8147551978847469 12.9906682034664 8957.342708826287 17.90683387681334 0.27286135189081706
0.8386379863678577 12.994130245697747 7808.341534902224 18.738755289781363 0.2767473478001818
0.8628173359784724 12.998405173407578 6815.554084652271 19.60655792630433 0.28069563919831014
0.8872923125184221 13.003348248207496 5956.211734382003 20.51233351945407 0.2847126419832462
0.912051925483167 13.008846891702664 5211.845943255376 21.457875945548054 0.2888013690033487
0.937071299293275 13.01472694941059 4565.920855956574 22.444677330925373 0.2929618073379504
0.9623484565185935 13.020934455461079 4004.8028864320913 23.47474675032313 0.2971976268956111
0.9878730868503109 13.027324454285933 3517.0090663936307 24.550513959744226 0.3015149904656715
1.0136143253697656 13.03378059113153 3092.277913499307 25.673930434829177 0.30591559903079296
1.0395772067360898 13.040238025026818 2721.8013056033283 26.8469385908298 0.310400574539504
1.065727544451469 13.046564188076177 2398.6525659427925 28.07264372007121 0.314978718516767
1.0920589584850016 13.052701366346238 2116.007960471054 29.353110605267 0.31965054534074333
1.1185556625252657 13.058529996616958 1868.8997804898702 30.691074676091265 0.324420602629864
1.145185590510107 13.063988365802517 1652.3417770653266 32.08995655477937 0.32929708970303445
1.1719478359519702 13.069006811130828 1462.2381190878934 33.55167305662177 0.3342775479118173
1.1988034022998355 13.07346235506965 1295.619350908608 35.08077739885618 0.3393756189119772
1.2257480076101115 13.077323065757282 1149.2541856772434 36.679306335024144 0.3445881481284777
1.252742261241135 13.08048887337916 1020.3080933901156 38.352293236769384 0.3499294585880508
1.2797830263594343 13.082934138855208 906.8544259500553 40.10197886382739 0.35539614178821527
1.3068262846470042 13.084525001073585 806.8884020149386 41.9338488114022 0.3610028424114588
1.3338632671502784 13.085236557255165 718.7293534538155 43.851353340756106 0.3667513060619932
1.3608706355748057 13.085034755550726 640.7136203140042 45.85922371796042 0.3726495274302557
1.3878007998927895 13.083775489874924 571.9064873562295 47.9627704987351 0.3787073415199688
1.414656994587481 13.081488640994449 510.91241411677225 50.16672235583608 0.38493026102320915
1.4413798315601056 13.07803967207332 456.9579770687159 52.476350118104705 0.3913255258584816
1.4679742396972224 13.073441852497814 409.0871344287516 54.89804258697235 0.3979046897632517
1.4943812509683694 13.067580104145753 366.5924107884249 57.43798775449658 0.40467681061490046
1.520594300882926 13.060438277504455 328.89029673292623 60.10281155388947 0.41165165611985566
1.5465764707520815 13.05195340026361 295.33949264093866 62.89961728198715 0.41883976225474334
1.5722915357545004 13.0420777551258 265.4943348071849 65.8360287959152 0.4262524964782233
1.597716475803442 13.030752460074984 238.96033502909398 68.9202378670569 0.4339021262718996
1.6228034985872104 13.017935912973794 215.27655208543374 72.16105612306204 0.4418018936370978
1.6475606589615186 13.003596356640099 193.9934712138904 75.5679720626301 0.4499660962500438
1.6719047808387661 12.98766814038233 175.26671347504615 79.1509490806602 0.45840907105000395
1.6958418208194068 12.970126582405012 158.3941108258409 82.92011913751428 0.4671438464733351
1.7193223833320315 12.950918710453749 143.30468446458053 86.88824337109718 0.47619208368050514
1.742308651022828 12.929981510967366 129.80051310127607 91.06693539237968 0.4855682762501128
1.7647884251871808 12.907340258825684 117.70087641658242 95.47020232963555 0.4952940262010168
1.7867166642929257 12.88290877829248 106.85050896678038 100.11179007934079 0.505387172393365
1.8080552997861832 12.856658977404619 97.10224797166595 105.00817861529505 0.5158732482733994
1.8287668856413646 12.828529788800447 88.34885868434478 110.1759035090614 0.5267747832707397
1.8488473196788562 12.79856968835354 80.48051060314567 115.63254768682863 0.5381149880931785
1.868234540085644 12.766667983110322 73.39325747151962 121.39839773719038 0.5499234973774266
1.8869049246271796 12.732825644956744 67.0213674496447 127.49482748724888 0.5622299443003875
1.9048284376497968 12.697017585837076 61.26637609286072 133.94431450383865 0.5750637736428408
1.921972683270504 12.659207025067683 56.084079480121524 140.77243587767637 0.5884609251441012
1.9382874779242183 12.619327768414715 51.40021461002196 148.00691291223043 0.6024598425488455
1.9537862389136882 12.577490314159427 47.1698725434617 155.6763009650877 0.6170965052553855
1.9684053157669366 12.533570238753692 43.34681245033718 163.81417003460885 0.6324182711882286
1.9821227724861266 12.487579676091372 39.88736242326746 172.45421827242308 0.6484664761835226
1.9949148327925768 12.439511781996764 36.75199453104043 181.63584615860955 0.6652946912682438
2.0067538622107444 12.389358867558895 33.90898221903929 191.40097886648834 0.682957105229405
2.0176034255653974 12.337095908696355 31.332602911348637 201.7956321326452 0.7015129274156093
2.027442976511509 12.282718360947195 28.99708873539582 212.86980267712786 0.7210250287081283
2.0362559743893662 12.226262412811451 26.874807468166367 224.67881914213484 0.741563266155568
2.0440050439440203 12.167678049302975 24.946912331352053 237.28395759776194 0.7632051914338839
2.0506681915032945 12.106981977180912 23.19141907183873 250.75198760063267 0.7860331411726845
2.05624395625083 12.044246625821192 21.597232592338543 265.15592565486793 0.8101350666954363
2.0606940672247616 11.979407407896185 20.144623242472797 280.5776524640327 0.8356111882828676
2.064004856513918 11.912519492293564 18.8245381138677 297.1066752730739 0.8625678288073462
2.066170085364483 11.843631221045678 17.621517452268076 314.843405187715 0.8911256735508524
2.067167385369868 11.772750052089412 16.526323697069742 333.8972649877066 0.9214107416609782
