M[M_sun], R[km], Lambda[1], P_c[MeV/fm^3], rho_c[fm^-3]
0.24162668629717493 15.618656898711224 2160425.4255784233 3.5677272577965504 0.1711233750220791
0.2536447551665147 15.277249708246664 1723155.97874895 3.784834494456584 0.17388835863051644
0.26604080504974675 14.981244593690306 1382965.3206988273 4.011432784908834 0.1766670393693008
0.27881700484717004 14.723496107110508 1116405.9695612972 4.24777775867234 0.17945808885503714
0.2919726767854972 14.498380675719385 905869.0128447516 4.494494786707378 0.1822680767223546
0.3055090555221952 14.30118736670682 738583.2403214178 4.751739953415486 0.18509271861741247
0.31942671049156857 14.12808844230539 605028.2268573223 5.020194803688946 0.1879386170118141
0.33372684518773427 13.975852702348615 497638.34081114875 5.3000843729527745 0.19080241404456605
0.34840792036621715 13.8419692599418 410970.5772454356 5.592136208899718 0.19369038461518354
0.36347353239076025 13.723923895288065 340636.1116857164 5.8965189581337505 0.1965976168827928
0.3789261318784941 13.619954616327576 283265.9193562635 6.214096174310183 0.1995317803647821
0.3947596490669274 13.528396477097253 236377.19123159 6.545123770552664 0.2024890265321858
0.4109859424798539 13.44782323348581 197834.95064131366 6.89030720476636 0.2054731180788584
0.4275950472312931 13.37701169251059 166055.71450901157 7.250350317726853 0.2084871047892956
0.44459100718795297 13.314884358009646 139776.2230958069 7.625510035566262 0.21152650029721481
0.46197456356044825 13.26054548273051 117966.16247986484 8.016739502028292 0.21459753008032828
0.4797402766450621 13.213117400977492 99797.0288013749 8.424741972792653 0.2177018115009957
0.4978983877692424 13.171953548590693 84626.81364289399 8.84995566460284 0.22083677366859217
0.5164390236310189 13.13636337138301 71926.71756627728 9.293259236798498 0.22400589950630193
0.5353588192904205 13.10581187926219 61264.08319517099 9.755535216533765 0.22721207281065242
0.5546666634361788 13.079800313680524 52296.67302393079 10.237593387637057 0.2304566448318404
0.5743512772886641 13.057813654557014 44721.05553353213 10.739900871152395 0.23373625987121585
0.5944096151205436 13.039500992944603 38320.581866449225 11.2637105744906 0.23705720827942428
0.6148482501251666 13.024481598281746 32894.14844170315 11.809956504637972 0.2404210563893669
0.6356540173569584 13.012419439722326 28286.299121113367 12.379617924478207 0.24382943761381462
0.6568262103296917 13.003002298534662 24365.725305974072 12.973378480065136 0.2472802410489124
0.6783593562117198 12.995978501940433 21023.121554084384 13.592575850859435 0.25077837286681226
0.7002498982074552 12.991044668555595 18168.903304025633 14.238402913516563 0.2543264121795819
0.7224856614096055 12.988003970236202 15725.712065718582 14.912049692129974 0.25792634425054295
0.7450750318597782 12.98663914967786 13630.830470708284 15.614537713448797 0.2615779825648714
0.7679969835362701 12.986758586652543 11833.43681753528 16.34714973756107 0.2652833863273163
0.791244802681902 12.988138896279743 10286.543765286451 17.111494372206238 0.26904716719064675
0.8148210798115484 12.990669181629325 8954.10117812065 17.909027105730594 0.27287175860520607
0.838703754521932 12.994135310130641 7805.4440331343985 18.74109985111489 0.2767581198464007
0.8628863336828989 12.998422051952392 6812.406797598105 19.609084306642554 0.28070697347358303
0.8873706562287141 13.00337165002731 5953.846315513331 20.51505387908275 0.2847245630209375
0.9121275075576283 13.008861087495667 5209.822238375947 21.460803277497533 0.2888139029910391
0.9371502083464699 13.014752292674473 4564.041368710479 22.447799440604154 0.2929747748040964
0.9624350171321406 13.020957982259512 4003.425609010733 23.478102820121716 0.29721125689224864
0.9879556389261963 13.027351009462732 3515.5103685185595 24.554119787511286 0.30152931470762323
1.0137013890518134 13.03380046884367 3091.1125876565607 25.677772062374416 0.30593042461134573
1.039666864800911 13.040261460506557 2720.5983504971427 26.8510629854638 0.3104161557597534
1.0658195543693048 13.046590149679998 2397.436721545135 28.077070189328076 0.3149950939513245
1.0921543236310782 13.052722635951774 2115.058202231257 29.35782346031092 0.3196675087251937
1.1186516163970952 13.058555559487845 1867.750547434503 30.696130186863204 0.32443843627170094
1.14528784159818 13.064001629834557 1651.5715992877315 32.09533822042533 0.32931558057612126
1.1720517343457615 13.069018037720664 1461.5845772957882 33.55744400710489 0.33429699660995527
1.19890843626013 13.073477241757594 1294.9881586688027 35.086964873701575 0.3393960792138627
1.2258567999794372 13.077342783748549 1148.6887148681276 36.685892377817076 0.3446093936830302
1.2528536756605089 13.08049792286754 1019.8265725126519 38.35931072055144 0.34995157266596755
1.2798977864539598 13.082944366673168 906.3904648725032 40.109495197366506 0.3554193948131405
1.3069422128679744 13.084526425693982 806.5162664684826 41.94185215863196 0.36102703774263617
1.333980749635421 13.08523991857646 718.3477539863957 43.85993343799249 0.36677681054827926
1.3609913585741105 13.085031985618084 640.4235566389829 45.868362586102826 0.37267610201739243
1.387922898909779 13.083767119130444 571.6123108229751 47.97250717493359 0.37873505524349715
1.4147754521773024 13.081459308998554 510.6585605043879 50.1771636126887 0.3849595185755605
1.44150466157264 13.078021049708576 456.7154045609116 52.487479379481165 0.3913560826404475
1.468100419476231 13.073417150682388 408.8702203323505 54.909909135101344 0.3979366323766628
1.4945111132640951 13.067547148090984 366.40369505872616 57.4506448636841 0.4047102323566095
1.5207217554991943 13.0604005520833 328.72708178477114 60.1163168479563 0.4116866575315722
1.5467071467273454 13.051908375743883 295.18538438783855 62.914033127373145 0.41887645172736127
1.5724233456368342 13.042022540374159 265.3706630167801 65.85142273442213 0.4262909909164875
1.5978368401110208 13.030685495579348 238.82400609870544 68.93668309268692 0.43394255182595054
1.6229348619640054 13.01786047601099 215.15772853684763 72.17863200795361 0.44184438650820373
1.6476870394112406 13.003517895104565 194.02253818246766 75.58676473771476 0.4500108035787155
1.6720361082166109 12.98758065824476 175.16811977549844 79.1709539412902 0.4584557421609832
1.6959729533062686 12.970021999727921 158.3077758818386 82.94153137590651 0.4671930517347979
1.7194533033036679 12.950804346396337 143.22613647752124 86.91117321931586 0.47624400850502047
1.7424295122991371 12.929826940258012 129.73777331648898 91.0913923945192 0.48562268407757436
1.7649173910663765 12.907202603963386 117.63450660770941 95.49642210568531 0.49535155824426147
1.7868431687561512 12.88276177085624 106.78629803622738 100.13979546012858 0.5054476067901259
1.8081803328823787 12.856496904018782 97.04782693922127 105.03811483250885 0.5159368178934016
1.828894009748373 12.828364379272283 88.30099122867287 110.20792897588764 0.5268417400028506
1.8489673650190415 12.798378984102381 80.43179839144642 115.66696619145208 0.5381860848468177
1.8683429006723296 12.766433987534212 73.35824270656978 121.43527190505458 0.5499985596703231
1.8870173316114083 12.732608902013167 66.97924676555151 127.53428623296037 0.5623090153893479
1.9049412675175847 12.696781745653858 61.232937611200356 133.98659528607877 0.5751472490350492
1.9220802855268686 12.658956420028678 56.052408633293574 140.8178487160725 0.5885494066229264
1.9383927420286553 12.619059382736216 51.3723175761772 148.05572978051293 0.6025537442237776
1.9538862997535917 12.577208782462398 47.146207168038764 155.7286597781484 0.6171957304473267
1.968500254753133 12.533266372770369 43.324083862381194 163.87038810735237 0.6325232870153182
1.982212997777421 12.487259401603728 39.86490458766083 172.51481327588925 0.6485783582321022
1.9949977777466803 12.439171473479272 36.730118471663346 181.70103776826878 0.6654134386891709
2.0068331025678843 12.389003167312563 33.89114023616414 191.47119045923813 0.6830833254517528
2.017676458512221 12.336718749174409 31.31451727044571 201.87133074457768 0.701647284984737
2.0275103902997467 12.282326553290112 28.981167618268845 212.9513131529603 0.7211676264089802
2.036316186320394 12.225847771755815 26.859547152060856 224.766895996073 0.7417155090944126
2.044056293195936 12.167245155664782 24.932628337346937 237.3790299476126 0.763367298523874
2.0507129021518504 12.106526693186822 23.179082178260547 250.8547423735278 0.7862060383171515
2.0562822974039032 12.043768180049675 21.586339221667085 265.2673364961375 0.8103204608081424
2.060724930942717 11.978909174466816 20.135701038145005 280.69814287107965 0.8358088205943213
2.0640261049748916 11.912004094659801 18.815180945335715 297.23739889927566 0.8627796245049981
2.0661831966281645 11.843091039776956 17.61282033606571 314.9854118366275 0.8913529982652031
2.0671705074784597 11.772187530749246 16.518142616365317 334.0514913389813 0.9216543298633026
