M[M_sun], R[km], Lambda[1], P_c[MeV/fm^3], rho_c[fm^-3]
0.24162668629717493 15.618656898711224 2160425.4255784233 3.5677272577965504 0.1711233750220791
0.2536438780561186 15.277273833335853 1723081.4597362222 3.784816288981163 0.17388813170804793
0.2660395731161674 14.981259587092179 1382988.5334811334 4.011394513240639 0.17666657687877704
0.2788143161489923 14.723550387399177 1116477.3992061156 4.2477181258922085 0.1794573972046523
0.29196790653302607 14.498476701075841 905942.1963412416 4.494412227872377 0.18226715741056596
0.3055048732081155 14.301205467047438 738659.0173777624 4.751631665117715 0.18509154889712523
0.3194198626325375 14.128148173010551 605154.1815348428 5.020059988111584 0.18793721824816495
0.3337165756553175 13.976023857455848 497701.21044371027 5.29991948059574 0.1908007538521366
0.3483981277001281 13.842050908470137 411020.14527779224 5.5919408279265115 0.19368849425052032
0.3634591116311531 13.72403347248562 340638.3446744411 5.896288698836157 0.19659545423874175
0.37891361997059325 13.620022134730188 283313.1453817925 6.213828250030753 0.19952933721795554
0.39474439333203043 13.528497261488772 236408.87987893098 6.544818459324986 0.20248634936517435
0.4109694289097146 13.447919386063475 197877.72758763496 6.889958612318181 0.20547014931928856
0.42757721276027794 13.377098849324717 166090.2567593892 7.249955172684668 0.2084838358556286
0.44457216364517704 13.31493860277157 139809.4892504381 7.625069429940383 0.2115229927931243
0.46195241327484676 13.260591045050564 117986.05841327974 8.016245750272763 0.21459371051131812
0.4797161484038859 13.213188467274684 99819.9212958004 8.424191224441392 0.21769767064332632
0.49787384497119497 13.171994340849471 84650.71893162727 8.849349950243424 0.22083238803782815
0.5164121728805909 13.136426825386334 71942.63440616753 9.292588753654298 0.224001179263167
0.5353290057427391 13.105854465336042 60689.682524152624 9.7547954182405 0.22720700775993866
0.55463564549513 13.079830274419248 52304.67089086777 10.23677945156019 0.23045122433508594
0.574316648479182 13.057879323034138 44332.44369493361 10.739016333788554 0.2337305808673446
0.5943731219806665 13.039529902973099 38331.27669465476 11.262742133066034 0.23705115743987837
0.6148090592593032 13.024511962601954 32904.373791195954 11.808898437662297 0.240414621576809
0.6356129801784763 13.01244523541673 28294.26730284441 12.37846415349462 0.24382260605020756
0.6567815273519508 13.003035944594282 24372.97616720167 12.972134303399095 0.24727312984528796
0.6783135045440326 12.995984568386314 21029.902410768456 13.591223600064618 0.25077084389667637
0.7002001445721361 12.991062513893688 18174.334915800882 14.236935337525734 0.25431845050820656
0.7224343776374953 12.988001047186131 15731.631713106468 14.910459073959501 0.2579179340526876
0.7450204820374663 12.986642993388147 13635.045773441387 15.612831360580872 0.26156926082087917
0.7679401805928919 12.986762857195231 11837.34115646527 16.34530454122869 0.2652741884863906
0.7911840544323627 12.98813220978467 10290.021666908518 17.10950107107308 0.2690374744422246
0.8147564544255835 12.990662365147132 8957.074287113874 17.906875824417043 0.2728615509291972
0.8386403283005983 12.994125878927063 7808.396138712631 18.7388001316575 0.27674755382540084
0.8628197600851376 12.998389601712887 6815.3557915374295 19.606606245495808 0.28069585597604896
0.8872939589172743 13.00333871719873 5955.978176312532 20.512385548515308 0.28471286998265977
0.9120534677910734 13.008838361933426 5211.80056882449 21.457931932958072 0.28880160872522515
0.9370731101061505 13.014734917226711 4565.73354064848 22.44473704346392 0.2929620553498404
0.9623511290181042 13.020929686973188 4005.0960851646464 23.47481093732437 0.2971978875780949
0.9878749066914275 13.027328002438649 3517.057555853468 24.55058292332344 0.30151526442523313
1.0136165436879074 13.03377880621767 3092.2208934275072 25.67400390804167 0.3059158825780701
1.0395789739604109 13.040241729683485 2721.787790306989 26.84701747187926 0.31040087253790477
1.065729507557137 13.04656467727139 2398.635256247986 28.072728378187566 0.3149790317039516
1.0920605944023314 13.052695277097078 2115.9372032199944 29.353200740412273 0.3196508697719231
1.1185592002360139 13.05852731968087 1868.8951062552544 30.691171364359008 0.32442094370399366
1.1451876086221955 13.063992001816038 1652.3564017452838 32.09005948060555 0.3292974433460354
1.1719498983973413 13.069003632974667 1462.227020543317 33.55178342727875 0.334277919872311
1.198804649923013 13.07346036460363 1295.6080060485028 35.08089573525246 0.33937601021835867
1.225750531565948 13.07732490868597 1149.2959154879816 36.67943229376461 0.34458855445187647
1.2527445629325176 13.080494936820784 1020.335510323818 38.35242826702868 0.34992988633431066
1.2797857929445944 13.082936681268174 906.8347582190585 40.10212261361724 0.35539658650204137
1.3068292311782717 13.084525023414235 806.8667021750987 41.93400187490571 0.3610033051456189
1.3338657399038611 13.08523496090659 718.7224081561229 43.85151743400801 0.3667517938320006
1.360872390073265 13.085032690181434 640.7169720092423 45.85939849714079 0.37265003566437027
1.3878023763396148 13.083777341536944 571.8940152638971 47.9629567103499 0.37870787153833496
1.4146597462892168 13.081486440988241 510.8963185823146 50.1669220416773 0.3849308205649421
1.441381786340492 13.078036890139812 456.9525567747472 52.47656296118658 0.3913261102458391
1.4679761393839768 13.073443791593046 409.0747745274222 54.89826952970455 0.39790530065227203
1.4943847795294314 13.067578224927583 366.5860145629898 57.438229815623195 0.40467744978963865
1.5205961829735932 13.060435461539578 328.9064693316683 60.10306983532364 0.411652325502897
1.5465789637611662 13.051952511757843 295.3362879817158 62.899892976327216 0.4188404639187575
1.5722950459739327 13.042074929770472 265.5090631509892 65.83632319471847 0.426253232658672
1.5977190714879437 13.030751478274608 238.9595055331964 68.920552369957 0.433902899381024
1.6228066632805433 13.017932578875998 215.2753108918903 72.16139224782452 0.441802706279323
1.6475581275075453 13.003598573545021 194.1298112458034 75.56833145625434 0.44996695123895886
1.6719073464548928 12.987666335215916 175.2652579528045 79.15133165512081 0.4584099635918436
1.695844148070835 12.970124470805745 158.38985618115774 82.9205286252431 0.4671447874749433
1.7193249310805667 12.950917099328214 143.30359354377805 86.88868187992311 0.4761930766872454
1.7423111960391189 12.929980311996419 129.79991095186605 91.06740310483289 0.48556931673816245
1.764790853290856 12.907337095201212 117.69573634877634 95.47070375112305 0.49529512643172235
1.7867183195701322 12.882907461938785 106.84417669881367 100.11232564645708 0.505388328123967
1.808057480132695 12.856656397753142 97.10075482446182 105.00875110509085 0.5158744639566808
1.828769264996372 12.828526205119394 88.34848535744261 110.17651595061913 0.5267760637231227
1.848849185307223 12.798567736922944 80.47569795525649 115.63320588889334 0.5381163477115162
1.8682361914734682 12.766664010906124 73.39111459696814 121.39910289727175 0.5499249328249399
1.88690691361952 12.732820934998914 67.02072753074046 127.49558356417658 0.5622314617407486
1.9048306306919527 12.697012817731196 61.26803885689917 133.9451230504437 0.5750653699648907
1.921974922159536 12.65920222932917 56.08283257019257 140.77330431555785 0.5884626171913445
1.9382899761917645 12.619322406708788 51.40090610821609 148.00784644170045 0.6024616382392272
1.953788313755572 12.577484797511564 47.16966644545674 155.6773022232536 0.6170984027398373
1.9684074055901615 12.533564992302727 43.346837346285845 163.81524508870348 0.6324202793982117
1.9821244528443926 12.48757342893639 39.88640947065679 172.45537702037956 0.6484686156849293
1.9949161862179965 12.439505088028001 36.75090416251063 181.6370928007679 0.665296962044221
2.006755497624878 12.38935236418685 33.90951495788101 191.40232149785825 0.6829595188939211
2.0176048171218564 12.337088715920947 31.33226915994063 201.79707968293232 0.7015154966745798
2.0274443883227815 12.282711256394615 28.996555210717723 212.87136135747414 0.7210277555261413
2.0362575336867637 12.226257301825212 26.874217349734305 224.68050337846782 0.7415661773981655
2.0440057060600476 12.167669329313853 24.94624939666863 237.28577559478936 0.7632082912858196
2.05066867133199 12.106973762516448 23.191307543368126 250.75395249201608 0.7860364473364744
2.0562446452915286 12.044237489304162 21.59735963611843 265.1580560557446 0.8101386118062689
2.0606949860644903 11.979400919005686 20.14481644102744 280.5799564717123 0.8356149673917153
2.064004792747417 11.912509373081996 18.824061658737623 297.1091749439822 0.8625718787221115
2.066170354786382 11.843621069859237 17.621293462625168 314.84612059276213 0.8911300203802537
2.0671669290943115 11.772740015340972 16.525646762869318 333.90021403514857 0.9214153994458446
