M[M_sun], R[km], Lambda[1], P_c[MeV/fm^3], rho_c[fm^-3]
0.24162668629717493 15.618656898711224 2160425.4255784233 3.5677272577965504 0.1711233750220791
0.2536443060060078 15.277269217249412 1723154.3085665656 3.784824711364615 0.17388823668899456
0.26604042259486205 14.981239857483116 1383075.939661735 4.011412218797147 0.17666679083997835
0.2788157488170871 14.723501257218922 1116455.4516309043 4.247745713654602 0.1794577171811222
0.29197075870601463 14.498390683492289 905871.5868242263 4.494450421791671 0.18226758270872165
0.30550616695596555 14.301222304864746 738644.6158921834 4.751681762085125 0.18509209003998475
0.31942350650726603 14.128109376013631 605127.1214335272 5.020122357181423 0.18793786535133677
0.33372119796149213 13.97591769223724 497660.5726303598 5.299995763808582 0.19080152189751318
0.34840266057664204 13.842013644766023 410998.211645849 5.592031215770556 0.1936893687777763
0.36346646510252223 13.723987646422858 335704.02811260335 5.896395222037641 0.19659645472719278
0.37891991301193123 13.619981395291116 283295.5603043801 6.213952197706532 0.19953046747151593
0.39475070849129407 13.528470833971033 236402.93005891613 6.544959702813395 0.2024875878797571
0.4109774144746387 13.447868636614325 197863.10037831037 6.8901198783609985 0.20547152272858185
0.42758460209074456 13.377074151221512 166081.6766493852 7.250137974620999 0.20848534812919975
0.44458098008002894 13.314912891196155 139800.36388910835 7.625273262550321 0.21152461543176337
0.46196268976670757 13.2605589248408 117975.13586090525 8.016474168938856 0.21459547751436892
0.4797276935462851 13.2131436621565 99808.59045461794 8.424446010381258 0.2176995862774099
0.4978850695128361 13.171975525861667 84639.91491979653 8.849630164043154 0.22083441690546435
0.5164242469239521 13.136388951312165 71936.99363669666 9.29289893011589 0.22400336292479384
0.535342836530713 13.105836705363899 61273.57371733817 9.755137660491387 0.22720935093154762
0.554649708661305 13.079818531360763 52298.40009731805 10.237155990524958 0.23045373193770297
0.5743325323625147 13.05786271576901 44728.163820726135 10.739425533417114 0.23373320805571415
0.594390269444608 13.039515446728252 38324.27588183156 11.263190147224666 0.23705395664044893
0.6148271743090591 13.024498421921967 32621.908589388462 11.809387913067821 0.2404175984039463
0.6356317589976266 13.012455582274654 28290.613783252087 12.378997901988539 0.2438257664146458
0.6568025656090732 13.003012769502947 24369.813943824494 12.972709873919626 0.24727641957035953
0.678334829378853 12.995982047334213 21027.15977167789 13.59184916597332 0.2507743268800569
0.7002238566185549 12.991060072542203 18171.68631578305 14.23761425308653 0.2543221336582584
0.722458365590023 12.988003687347408 15728.965676734582 14.91119490895753 0.2579218246896973
0.7450455033701464 12.98664266745575 13633.398061949241 15.613620734545213 0.26157329557697245
0.7679663452180449 12.986757857577794 11835.679921028432 16.34615814410539 0.26527844348263996
0.7912123435247908 12.988136742601263 10288.143639099737 17.110423187024576 0.26904195837984207
0.8147884612119558 12.990664540349211 8957.180463685938 17.907871021644908 0.27286627306888345
0.8386698156864538 12.99413414213308 7807.027718967602 18.73986399603235 0.27675244173174507
0.8628515172176348 12.998407229247725 6814.321741959282 19.60775261006021 0.28070099899087514
0.8873320928261702 13.003352916160683 5955.142172591757 20.51361993082862 0.2847182792373507
0.9120879785560005 13.008844556821648 5210.962103586089 21.459260228414774 0.2888072961017137
0.9371077818580229 13.014746959901833 4564.974130159122 22.44615371881928 0.2929679394127339
0.9623923530345925 13.020947486642282 4004.342533558496 23.476333771119887 0.2972040722586165
0.9879133913061957 13.02733211371298 3516.3452954841323 24.552219083560086 0.30152176411313164
1.0136550349934306 13.033798573480269 3091.7149094145525 25.675747061300502 0.3059226097422083
1.0396205202894961 13.04024902829471 2721.276710249973 26.848888928877507 0.31040794256545173
1.0657720812956832 13.046576522321345 2398.2106163271346 28.074736899336646 0.314986462097054
1.0921037381501042 13.052703351571871 2115.643836453924 29.355339207083304 0.31965856693891354
1.1186018731873462 13.058538006963394 1868.4930384827633 30.693465308028127 0.32442903573893034
1.1452338896797463 13.064001548057556 1651.9901594624614 32.09250141423937 0.32930583358948046
1.1719966548088585 13.069006984887725 1461.9896043164165 33.554401994836354 0.3342867447149657
1.1988529691334449 13.073470624092055 1295.3300863750478 35.08370329600829 0.3393852940606467
1.2257988078167046 13.077332056716912 1148.9668149886581 36.682420700309414 0.3445981945887946
1.2527951000960829 13.080495130996512 1020.078976080406 38.3556148528427 0.3499399347328628
1.2798391984431081 13.082934519809381 906.6588701410138 40.10553312760483 0.3554071374929399
1.3068813966896062 13.084526228336712 806.6958012371811 41.93763336477782 0.3610142836896706
1.3339185424573836 13.085238938407675 718.5398009961496 43.85541061524689 0.36676336638004764
1.3609283035368704 13.085031481099328 640.5657826441271 45.863545212152545 0.3726620937483358
1.3878584482273628 13.083773301459747 571.7551280688095 47.967374671157515 0.3787204464809422
1.414715540031229 13.08148237513904 510.7886370448594 50.17165969316601 0.38494409598651347
1.4414384697097593 13.078028675638668 456.8268125299675 52.48161278238949 0.39133997516285773
1.4680342665937942 13.073430331791801 408.98555018954505 54.903653880904045 0.3979197943573466
1.4944426947511102 13.0675657661173 366.496991183507 57.443972868325545 0.4046926146129167
1.5206545827283502 13.060420627565975 328.8076354112579 60.109197734423766 0.41166820706151386
1.5466384257032075 13.051930907852839 295.26684130991663 62.90643401845554 0.41885711139101
1.5723556300761394 13.042049897727575 265.4427613795692 65.84330802456984 0.4262706990855632
1.5977788497211192 13.030722617464301 238.89883201845586 68.92801419662463 0.4339212419981493
1.6228646774379398 13.017900926364833 215.20299662751742 72.16936708340798 0.44182198688241237
1.6476176110980398 13.003561244368733 194.08543571552102 75.57685837929256 0.44998723658679307
1.6719666804566564 12.987624650870286 175.2126821456879 79.16040857673748 0.45843113994612855
1.6959040220707544 12.970073842747315 158.3474936813482 82.93024410574763 0.4671671136208467
1.719384125465231 12.950864779852672 143.26387485475212 86.89908593238583 0.4762166367471823
1.7423652329704666 12.929915057335089 129.77336790021624 91.07850005984912 0.4855940033784312
1.76484925126497 12.907276632779237 117.66944188639937 95.48260051045791 0.49532123057812033
1.7867757982302048 12.882837814636085 106.81243360380479 100.12503256898242 0.5054157491115024
1.8081144985639894 12.856581663112276 97.07706808788015 105.02233408306364 0.515903307438877
1.8288242460550233 12.828446980062548 88.3248319469754 110.1910468565727 0.5268064439821378
1.8489039563260012 12.798481098250324 80.45648814759187 115.64882255106257 0.538148606346662
1.8682801950037058 12.766542516781442 73.38038059504989 121.41583372929406 0.5499589906677714
1.8869591881499321 12.7327214621224 67.00322099312399 127.51351828642163 0.5622674499886268
1.9048826367992129 12.69690562535967 61.25344980928826 133.9643069344177 0.5751032449083985
1.9220242135678853 12.659088824077251 56.07028719993946 140.7939092469046 0.5885027634332674
1.9383374514361975 12.619201226278056 51.388509842882506 148.02999581316976 0.6025042436572483
1.9538342381945888 12.577356941719195 47.15830811244355 155.70105860699817 0.6171434234650808
1.9684507305974754 12.533427231151364 43.337087363708804 163.84075244809137 0.6324679273575292
1.9821657051878316 12.487426999098528 39.8768027446901 172.48287021613956 0.6485193788648563
1.9949580230986075 12.439350241119158 36.744283969114015 181.66667149831264 0.6653508400519305
2.006791005245646 12.389190982559674 33.900228030838576 191.4341777777705 0.683016787310378
2.0176400255998246 12.336916051485385 31.326336496928608 201.83142543252885 0.7015764569921848
2.02747378826892 12.282532833105941 28.988836265006796 212.9083439555286 0.721092454368839
2.0362841393149975 12.226067870813036 26.866719246518166 224.72046513259443 0.7416352522415278
2.044029467074482 12.167472290787046 24.939899027548886 237.32891118929803 0.7632818414369601
2.0506892888365407 12.106766389601646 23.185417636532538 250.8005735712169 0.7861148928552437
2.0562622075685772 12.044020776590303 21.591563319732582 265.2086043368156 0.8102227270827642
2.06070897026729 11.97917146978698 20.140639443778138 280.6346240898679 0.8357046350092671
2.0640150592304667 11.912275828045962 18.820283900428404 297.168485277753 0.8626679720901119
2.0661760580972177 11.843375642103206 17.61718947801861 314.9105499066508 0.8912331590395187
2.0671677108745032 11.77248406956074 16.522630984582747 333.97018727433345 0.9215259165877142
