M[M_sun], R[km], Lambda[1], P_c[MeV/fm^3], rho_c[fm^-3]
0.24162668629717493 15.618656898711224 2160425.4255784233 3.5677272577965504 0.1711233750220791
0.25364114135497173 15.27737029393928 1723191.6645637418 3.784784225569062 0.17388773205308397
0.26603659711496025 14.981305495034437 1383099.6039683467 4.011327109963448 0.1766657623499509
0.2788080890487929 14.723655912641684 1116533.8376169566 4.247613102818547 0.17945617909526423
0.29196038866528534 14.498566838613245 906034.8720599932 4.494266829558182 0.1822655383665922
0.3054935706314534 14.301375205645023 738774.6083502464 4.751440955130896 0.18508948886529208
0.3194069408641828 14.12831919684394 605211.2825917117 5.019822562102832 0.18793475486168612
0.33370103814643226 13.97621763061187 497832.93143540446 5.299629088404388 0.19079783008461748
0.34838154101319335 13.842185993216113 411102.6235936165 5.591596744997896 0.193685165153532
0.36344097121731805 13.724146596170952 340745.1979371476 5.895883195611594 0.196591645666643
0.3788912871459953 13.620148983250019 283403.65615938057 6.213356420070195 0.19952503469683552
0.3947194408730502 13.52862221434696 236485.43300190254 6.544280792988993 0.20248163475775935
0.4109411665405163 13.448044993712314 197938.73758215844 6.889344730990661 0.2054649212482981
0.42754563391964334 13.377197734690137 166151.15420141906 7.249259316667051 0.20847807921712747
0.44453783177189 13.315050511292942 139862.9310002714 7.62429352294819 0.2115168160745599
0.46191422757292877 13.260705034599647 118034.25995662433 8.015376259974959 0.2145869843009119
0.4796756016152576 13.21326965551277 99856.60719171638 8.423221371762951 0.2176903787070136
0.49782782880746085 13.172110442796777 84681.21852541718 8.84828331154325 0.22082466511789925
0.5163625220386036 13.136505224134895 71974.0542918333 9.291408069173649 0.22399286717081612
0.535276290978713 13.10593958785533 61307.89913893419 9.753492683935741 0.22719808855131085
0.554579538561738 13.079900140456955 51843.40277430097 10.23534617708646 0.2304416792862131
0.5742561551837873 13.057910068203748 44754.41299131269 10.737458746899854 0.23372058067703913
0.5943090462447287 13.039579232552393 38350.559989442176 11.261036812489486 0.2370405025660561
0.6147403191150943 13.024578024709996 32922.13137744231 11.807035310864851 0.24040329065732213
0.6355373934028506 13.012480975529217 28310.00487820338 12.376432519615403 0.24381057659525546
0.65670252164757 13.003074189731025 24385.117303168772 12.969943491911158 0.24726060806520744
0.6782313264037221 12.996003703455887 21042.12950887106 13.588842504646593 0.25075758659532243
0.7001141501135179 12.99108198875283 18184.828529249386 14.234351193318668 0.25430443139976405
0.7223425912815411 12.988005726445158 15739.987007552296 14.9076582960293 0.25790312528400944
0.7449251593498326 12.986657141017847 13643.928625374367 15.609826815251777 0.2615539035781505
0.7678395305802532 12.98675399422157 11843.938265963723 16.342055545916367 0.2652579930596349
0.7910805456628712 12.988110396457662 10296.374059838516 17.105991322602076 0.26902040772391067
0.8146464901436069 12.990654418677096 8962.876792695772 17.90308793885047 0.27284357768303064
0.8385230593600976 12.994109017757097 7812.920601248843 18.734750908627415 0.27672894974070184
0.8626999940436285 12.998377744266378 6819.99418024988 19.602243042638744 0.2806762810365574
0.8871698187988155 13.003323129729358 5960.2820599387 20.507687369644252 0.28469228183438267
0.9119235386015 13.008809054148998 5215.4145613019755 21.452876344277236 0.2887799621585265
0.936937576416997 13.014698132247249 4568.99332461096 22.439345102801084 0.2929396602980324
0.9622111315719536 13.020898687314734 4008.1597304656993 23.46901498997918 0.2971743485137823
0.9877301724713662 13.027286753655408 3519.6179168083654 24.544355693462347 0.3014905265971998
1.0134669125680311 13.033749752236266 3094.5440271393495 25.667369497871665 0.3058902791115088
1.0394243220332584 13.040201759106974 2723.904522577722 26.83989478757641 0.3103739643191871
1.0655723975148008 13.046535324563196 2400.2765120135405 28.06508408523926 0.3149507521403425
1.0918961968793839 13.052654538490177 2117.6588161760646 29.34506192826091 0.3196215750454343
1.1183879591852377 13.05849666238032 1870.3669139189842 30.68244088068769 0.3243901463571219
1.1450138569871446 13.06396000933481 1653.576251827308 32.08076581615037 0.3292655112303565
1.1717714579476153 13.068971182403654 1463.5254660775538 33.541817588223715 0.3342443339671745
1.1986211929946358 13.073429452660676 1296.7491910049455 35.0702106949102 0.33934067768666776
1.2255622900476224 13.07730269676692 1150.0994486296793 36.6680590547743 0.34455186614343325
1.2525526237081241 13.080474328851015 1021.1807619230474 38.34023599949262 0.34989126390356723
1.279590603721091 13.082914573702507 907.6292503748213 40.089143095430515 0.3553564322089485
1.3066290084747203 13.084516100053358 807.5608185549476 41.92018146448823 0.3609615239511439
1.3336610917276832 13.085237597975166 719.2930717288529 43.83670121333583 0.36670775236177783
1.3606655494869235 13.085038884311462 641.2833742425505 45.84361750582557 0.3726041466853113
1.3875924712922825 13.083789784744203 572.388548002693 47.94614355691217 0.37866001587624715
1.4144444556840021 13.081513478667057 511.349147066515 50.14889240441588 0.38488029953442854
1.4411724229344005 13.078088814475878 457.3513858823788 52.45734545634018 0.3912733461777077
1.467756634494373 13.073485263592374 409.4461858605108 54.877779082506265 0.3978501440535408
1.4941632252235681 13.067632770046972 366.9259325082794 57.41637446103388 0.40461973961228126
1.5203729416908336 13.060502825828783 329.1993463837947 60.07975010121631 0.41159188819508485
1.5463541772477387 13.052033183736794 295.61343608812507 62.87500120513334 0.41877711238208554
1.5720693747367642 13.042167086318276 265.76026749404684 65.80974279668466 0.42618676510128306
1.597491506644469 13.030860779067503 239.18352746055226 68.89215700032584 0.43383309805535986
1.6225784792525653 13.018060016936523 215.47526195711717 72.13104489931129 0.4417293360918909
1.6473307313530472 13.003738725942952 194.3194081808252 75.5358834571166 0.44988975821797306
1.671678827675654 12.987828443576483 175.43200192331759 79.11679094740471 0.4583293805159133
1.695618354218099 12.970301225086946 158.5430624835816 82.88355829552846 0.46705982976493415
1.7190825585361094 12.951075036650385 143.44622404092897 86.84909166351417 0.47610342432583624
1.7420875024874034 12.930198904591595 129.93401188017083 91.0251765207667 0.485475378131662
1.7645729663665373 12.90758273933907 117.80827793385491 95.42543412447873 0.49519579476264824
1.7864987349045363 12.883164230423558 106.94084352018467 100.06397356304701 0.5052839864256637
1.8078405037376961 12.856935565866335 97.19537140005953 104.95706589743317 0.5157647103098832
1.8285644059177477 12.828852024721158 88.43372188723332 110.12106900544084 0.5266598857281909
1.8486401822719063 12.798892969761472 80.55722915041262 115.57378330780345 0.5379936011641407
1.8680320584571175 12.767018564375121 73.46613762134366 121.33544138647252 0.5497953413182938
1.8867084201785327 12.733202148356417 67.08358759295 127.42732580021446 0.5620944689531149
1.9046381303175774 12.697416239149762 61.32748768854279 133.87212886290544 0.5749212567741961
1.9217717933883312 12.659587116949913 56.1372711912367 140.6949038545621 0.5883098632791363
1.938116357290975 12.619811591421104 51.45223687699521 147.92357034410577 0.6022995289725064
1.9536123708350592 12.577970790168088 47.218199577357346 155.5869124591018 0.6169271050886267
1.968243006554961 12.534085670056653 43.38815018991961 163.71801903429042 0.6322383948311078
1.9819727092639954 12.488131105010755 39.92393021978452 172.35077140336185 0.6482754728504476
1.9947708568848141 12.44009040279483 36.78689007978469 181.52455349153183 0.6650919701320015
2.006613318580637 12.389954954221475 33.9443356630653 191.2811179035016 0.6827416297387278
2.0174796889174216 12.337737580654027 31.36358067453221 201.66640588842827 0.701283563579242
2.027330036000054 12.283397223927217 29.02436487767143 212.73065678093613 0.7207816012875754
2.036155152683119 12.22697134648658 26.900191052554597 224.52846611951892 0.7413033773765786
2.0439143853815303 12.16842332088267 24.96940455955754 237.12166517086328 0.7629284679375853
2.0505909985472353 12.107761576289352 23.21320022769352 250.57624674240824 0.7857369058811939
2.0561737116562617 12.0450370448982 21.616462701311605 264.9657488672728 0.8098186014718396
2.060644596158577 11.98025635564885 20.163189239459786 280.3718573623368 0.8352734368939214
2.063975631787689 11.913419043701731 18.84141388260961 296.8835390992809 0.8622063082240131
2.0661487150297706 11.844551266603787 17.63653269443601 314.6010140011564 0.8907376529358492
2.067162162486303 11.773710287477126 16.540909815326554 333.63402061713873 0.9209949682054782
