M[M_sun], R[km], Lambda[1], P_c[MeV/fm^3], rho_c[fm^-3]
0.24162668629717493 15.618656898711224 2160425.4255784233 3.5677272577965504 0.1711233750220791
0.25364608195277305 15.277250778314055 1723055.1794612675 3.7848595887804386 0.17388867141915737
0.26604395357029614 14.981181569709 1382928.828445811 4.011485538786893 0.17666767686878393
0.27882240044233986 14.723366720034866 1116348.2780757174 4.247859957469078 0.17945904223720838
0.2919791179852775 14.49826404747867 905711.5188872609 4.494608588021506 0.18226934392639932
0.30551674458346273 14.301083321190143 738525.8929807688 4.751889222068151 0.18509433100374476
0.31943635688228283 14.127959260009652 604984.9693805897 5.020380639900418 0.18794054513423433
0.33373853579195323 13.975795284166242 497559.7068393088 5.300311670146249 0.19080470255015008
0.34842141929505843 13.841855274528678 410899.88346599817 5.5924055352675515 0.19369299042188146
0.3634863652882461 13.723822532558199 340564.9805271665 5.896836365488978 0.19660059803984364
0.3789432797415864 13.619857414508028 283210.16568740073 6.214465504716343 0.19953514821338353
0.39477995328071 13.528287842547112 236333.1136979183 6.545544641234499 0.20249271699949709
0.41100838624792113 13.447712017990147 197800.7510072934 6.890787741941908 0.20547721053509496
0.4276202657341754 13.376901998348329 166019.89009621675 7.2508950318737355 0.2084916110698345
0.44461805088519457 13.314795394855219 139738.2768394656 7.62611742178165 0.21153133548203734
0.4620027484979252 13.26045240769222 117926.4949341297 8.017420156332744 0.2146027954916586
0.47977316642268963 13.213038510948172 99766.51967624215 8.42550120423206 0.21770751986003398
0.49793390407400523 13.171880029146484 84602.40186610102 8.850790674291668 0.22084281949551146
0.5164774776735215 13.136297890958097 71905.25534360809 9.294183540100876 0.22401240665917424
0.5354003577695544 13.105744977535965 61247.63163929336 9.756555082152476 0.22721905535052445
0.5547114306764329 13.079722216450762 52276.70394948702 10.238705568313152 0.2304639901779896
0.5743986888607047 13.057765443822927 44705.3806515287 10.74112028561953 0.2337440888898222
0.5944595462659742 13.039454186286255 38305.54802170425 11.265045667338244 0.2370655499636966
0.6149022424768633 13.024448033913952 32881.8855805952 11.811415165123687 0.24042992747884134
0.6357108921459766 13.012398691319515 28274.43265673635 12.381208534142663 0.24383885573166583
0.6568862945401406 13.002982585458868 24355.64843643855 12.97509373443439 0.2472900447395139
0.6784234223798964 12.995948268242532 21014.049878653404 13.59444011162446 0.2507887525712866
0.700317328798294 12.991048725969916 18160.848734583342 14.24042617934644 0.2543373884954545
0.7225568402467227 12.988001863707856 15718.122905039107 14.91424260424428 0.25793793900351575
0.7451497540063781 12.986652701074403 13624.481417900506 15.616890196838249 0.2615900068994944
0.7680755485227674 12.98676133230209 11827.459857387828 16.349693656337234 0.26529606712437864
0.7913270352573785 12.98815072047769 10282.352879114667 17.114242497439506 0.2690605303930629
0.8149052644741946 12.99069161281612 8949.205094279596 17.911993055350468 0.2728858318240768
0.8387945747326057 12.994144902489404 7801.3818583930815 18.744270468544524 0.2767726871929684
0.8629798222391948 12.998429830421264 6808.8509517990105 19.61250082670587 0.2807223012444207
0.8874674009836847 13.003391002502713 5950.706623905704 20.518732750240105 0.284740684404767
0.9122283409977526 13.008893949744001 5206.875128192093 21.464762074764305 0.28883085341451925
0.9372547694004881 13.014774934310502 4561.867452675085 22.4520216707675 0.2929923115444216
0.9625436097786317 13.020991369859 4001.1444254326957 23.48264148164831 0.29722968974527586
0.9880706601689799 13.02736885673805 3513.51639099412 24.55899624987915 0.30154868657764533
1.013818693436731 13.033834433134993 3089.4898263605837 25.682967446390933 0.30595047459883995
1.039788383938962 13.040296615006 2719.0286314406367 26.856640821465597 0.3104372278197698
1.0659452553767386 13.046615816728567 2396.2445099687775 28.08305659495671 0.31501724026883354
1.0922823894544325 13.05274513967887 2113.7133995618337 29.364197214800033 0.3196904503278493
1.1187862933602193 13.058577864712147 1866.6890530731735 30.702967406111288 0.3244625550056393
1.1454237748023746 13.064037428316047 1650.430196564863 32.10261658478373 0.3293405883191666
1.1721910582880968 13.069039190900419 1460.764833031525 33.56524891375512 0.33432329995008614
1.1990525749567025 13.073499329136352 1294.2214219172306 35.095333171694904 0.3394237509066759
1.2260037725164545 13.077363948839725 1147.9180332827532 36.69479977777114 0.34463812757644613
1.2530028311817907 13.080515149480307 1019.2114925360605 38.368793380897195 0.3499814326543264
1.280051428138176 13.082950400474092 905.8252230966211 40.11966092923535 0.3554508441913911
1.3071062724233717 13.084553231012208 805.9645414600276 41.95267664022914 0.3610597617904062
1.3341405810372644 13.085237840689315 717.8183936103648 43.87153806542574 0.36681130550248225
1.3611531356947453 13.0850284235611 639.9694203108141 45.880723037798035 0.37271204453188167
1.3880938941246355 13.083773953439778 571.1882294040307 47.98567626143165 0.37877253871474426
1.414941079594592 13.081443361025206 510.2933413015373 50.191285781895864 0.3849990904499742
1.4416741878796342 13.077996584236702 456.36129014596145 52.502532206865325 0.39139741206463735
1.4682709710951396 13.07338488154966 408.57475938496356 54.92595929323964 0.3979798365158131
1.4946836522658038 13.067504233171396 366.1304230170258 57.4677644267208 0.4047554374350763
1.5208968945881858 13.06034600525793 328.48589296079496 60.134583775319335 0.4117339995770149
1.5468823365684967 13.051846364455871 294.97927700652883 62.93353179576825 0.4189260773886397
1.5726011159375362 13.041948806605538 265.1742820644491 65.87224452347947 0.4263430583632333
1.59801532364637 13.030599817767829 238.63512447714183 68.95892703029187 0.4339972317386611
1.6231242309239389 13.017776259491946 214.98771982441318 72.2024054820366 0.4419018631687634
1.6478647447741814 13.003409067119533 193.86277845776164 75.6121842821113 0.45007127607243447
1.67221366589417 12.987457370871642 175.0423373735354 79.19801332180899 0.45851887138615416
1.6961504425999736 12.969888158008215 158.1806259456485 82.97049469179835 0.4672596093503625
1.7196302289179861 12.95065187007888 143.1172277060915 86.9421896185924 0.47631424538902306
1.7426146274060668 12.929700809502377 129.62909424975044 91.12447478555883 0.48569628022044714
1.765090274779756 12.907018823176395 117.53842660888347 95.53188930057924 0.4954293811892985
1.7869996817584657 12.882525736371722 106.70845638551316 100.17767834481589 0.5055293564117787
1.7926212194873352 12.86158226027784 102.93457202290631 107.49610880423738 2.837263852170066
