M[M_sun], R[km], Lambda[1], P_c[MeV/fm^3], rho_c[fm^-3]
0.24162668629717493 15.618656898711224 2160425.4255784233 3.5677272577965504 0.1711233750220791
0.253639704406643 15.277414896492933 1723333.9987783486 3.784757386000008 0.17388739751080357
0.26603245010070375 14.98141291348979 1383151.3912280796 4.011270688802333 0.17666508053351632
0.27880363592103524 14.723740033759949 1116635.8753220174 4.24752519224781 0.17945515946512208
0.2919545049893303 14.49864003393597 906126.6099639331 4.494145123770169 0.18226418314439624
0.30548486026820265 14.301521253121997 738905.5153084844 4.751281322849446 0.18508776453198966
0.3193977303924034 14.12839888935962 605247.7450837097 5.019623828526196 0.18793269292412443
0.33369101261141254 13.976244833466389 497883.3759516433 5.299386022843882 0.1907953828177419
0.3483673133422677 13.842299544577982 411174.13403150736 5.591308741700146 0.19368237864239932
0.3634241220621851 13.724274869846427 340817.7757333375 5.895543785882804 0.19658845785864346
0.37887124320015475 13.620296583243455 283453.85761643894 6.212961498221324 0.19952143348509066
0.39469835456178587 13.528742536669316 236532.534473982 6.543830770165536 0.20247768866554866
0.4109172412989963 13.448137341260331 197987.24682243558 6.888830921791536 0.2054605454335467
0.42751931299652307 13.377304896439123 166205.26293344164 7.2486769015727175 0.20847326104631225
0.44450819882004117 13.315152139261523 139899.76757997734 7.623644112720178 0.21151164635157552
0.4618822223513912 13.260809431168804 118062.34028379022 8.014648530356002 0.2145813547239651
0.4796404268737495 13.213362796956192 99888.1359613403 8.422409650445243 0.21768427569747004
0.4977897685316658 13.172178350045327 84712.19688233772 8.847390592311148 0.22081820144922926
0.5163208015897073 13.136574402152219 71999.64073778612 9.290419909025907 0.2239859104617714
0.5352323352686853 13.105993642712443 61331.2982353801 9.752402385802505 0.22719062379316227
0.5545313477522889 13.079958273678132 52352.91709491571 10.234146637085347 0.23043369081774775
0.5742034414189292 13.057960300977946 44772.53365486841 10.736155177448905 0.23371221135736875
0.5942555862615819 13.039648082955507 38364.594255004195 11.259609615535666 0.23703158541366168
0.6146834312330108 13.024589522550235 32935.422622720085 11.805476058967669 0.24039380780423292
0.6354758272383733 13.012499181470327 28321.759148458088 12.374732259727772 0.24380050923029645
0.6566389892463736 13.003080489609136 24397.269644449418 12.968110031647315 0.24725012875818508
0.6781621527204776 12.99604336228328 21050.669001628954 13.586849816653897 0.2507464918424522
0.7000423174719869 12.991085572720428 18193.304933150383 14.232188597998313 0.2542926992146056
0.7222666274927635 12.988016029241962 15747.711786342774 14.905314427801356 0.2578907323691605
0.7448452096191547 12.986645824234662 13650.60822571177 15.60731244071433 0.2615410517633656
0.7677559754639712 12.986749972092731 11849.909065426564 16.339336626746423 0.26524443992950114
0.7909916521033332 12.988118069675973 10302.001621303916 17.103054219473545 0.2690061255859832
0.8145558359460678 12.990630646499811 8968.382039841033 17.899918108431752 0.27282853706434756
0.8384283892003688 12.994087566449169 7817.258151599281 18.731362407863262 0.2767133813329479
0.8625997042131042 12.998357514748674 6823.639624170174 19.598591828957947 0.2806599003434716
0.8870647289611222 13.003291099498608 5963.551546047079 20.503755878278206 0.28467505342962923
0.9118153060807133 13.008793272298618 5218.430049800499 21.44864580801874 0.2887618482273759
0.9368256460617974 13.014668214227829 4571.818564886283 22.43483314036279 0.2929209201747856
0.9620922065318447 13.020878190654779 4010.200899180296 23.464165001906686 0.2971546512711481
0.9876074794049454 13.027262128577838 3521.6888241858824 24.53914486265376 0.30146982644009485
1.013345201089871 13.033723321304757 3096.7260865440544 25.661817989197104 0.30586885477037346
1.0392942444937743 13.040170191268714 2725.519198820037 26.833934761261737 0.31035144841298956
1.0654387854979097 13.046506195300516 2401.8091307515597 28.058687656873293 0.31492708897043653
1.0917574370718754 13.052628069358606 2119.00015329909 29.33825176082439 0.31959706262412696
1.118245404388816 13.058465831701007 1871.4864637266437 30.67513570392556 0.3243643768727298
1.1448668564582323 13.063926479117153 1654.7294967427856 32.072956876569656 0.3292385816450505
1.17162187858056 13.068941301624921 1464.4572410449082 33.53347888846099 0.3342162316892182
1.1984687482271097 13.073401999840051 1297.5662654605396 35.061270311401856 0.3393111142621491
1.2254043564873873 13.07728493954751 1150.9065952105584 36.65854292213813 0.34452116857261467
1.252392983435529 13.080456669043 1022.0084573825064 38.33003468327506 0.34985894837014087
1.2794273492831518 13.082904752199145 908.2720817157807 40.07828317789508 0.3553228352521579
1.3064612898271573 13.084508423842383 808.1463746323333 41.90861807736059 0.36092656608001156
1.3334903224436379 13.085228297588863 719.8659207481758 43.82430477909226 0.36667090374824224
1.3604916297771363 13.085043244079651 641.8190896308668 45.830413987843535 0.3725657526485818
1.3874171027275293 13.08380132154562 572.8294835642536 47.932076588223175 0.37861997674244197
1.4142652804586267 13.081528821723303 511.7401491544369 50.133807820628185 0.3848380308682999
1.4409916270962753 13.078114785489744 457.69787026334836 52.44126719254606 0.3912292012893339
1.4675731400400662 13.073521774166469 409.76522978430245 54.86063598442456 0.3978039979166238
1.4939775348188349 13.067680500562552 367.21201495692634 57.39808961268613 0.40457145753857754
1.520185682095608 13.060561666584697 329.4436738047794 60.06024030925435 0.41154132504128865
1.5461655051025827 13.052099961151791 295.84173597756956 62.85417643173269 0.41872411167813794
1.571879671444923 13.04224859629284 265.9922619037197 65.78750553527522 0.426131158091673
1.597295721864464 13.030940273745188 239.36426192419947 68.86840158774028 0.4337747026440055
1.6223877547681729 13.01816103395827 215.63378156650955 72.10565675713619 0.4416679556800527
1.6471393662997524 13.003855139406964 194.46971853255369 75.50873825414455 0.44982518042339814
1.67149230055905 12.987960416472758 175.56442709324307 79.08785077343651 0.4582617812884229
1.6954283422575558 12.970448407740838 158.67902783630737 82.85263049881961 0.46698875777817356
1.7188916861647376 12.951236776126093 143.56906692721816 86.81597259177764 0.4760284259232463
1.7419078547637965 12.930398217270312 130.04071550803866 90.9898523846021 0.48539679493104293
1.7643871921401113 12.907781881669445 117.9118257683323 95.38756486123485 0.4951127011432956
1.786315748819049 12.883381625031705 107.03509718600509 100.02352620589107 0.5051967027836802
1.8076583318892625 12.85716350769168 97.27759169027208 104.91383083676658 0.5156729005679335
1.8283875039652377 12.829111077558455 88.50516414381886 110.07463482161238 0.5265625058880627
1.848464891692233 12.799165861966154 80.62226224156419 115.52407720415104 0.5378909255062525
1.8678615597733919 12.767314160407006 73.52567824236884 121.28219017595995 0.5496869413680817
1.886541655867436 12.733520840699722 67.13913467066875 127.37023071180153 0.5619798795662398
1.9044758856656663 12.697754997689655 61.37979884100323 133.81107267626805 0.5748007129039963
1.921632092778598 12.659999504748821 56.18564335156108 140.62932651933872 0.5881820936923209
1.9379659316800582 12.620197571875714 51.492757239488924 147.85307943433452 0.60216393620042
1.9534647807763716 12.578361708079212 47.25756315018273 155.51130894145814 0.6167838288546731
1.9681052258568013 12.534521934244147 43.424401768997114 163.63660765218492 0.6320859573888443
1.981840181472967 12.488590422375978 39.95633720558162 172.2632801862059 0.648113929884061
1.9946464469301939 12.440575414478175 36.81724001526709 181.43042804887855 0.6649205193330854
2.0064993070674504 12.390470086537293 33.970820439534826 191.17974745592855 0.6825593948693699
2.0173797176670063 12.33829999608595 31.39068482434048 201.55711670418862 0.7010895860577058
2.0272333176667607 12.283965870483533 29.048251003324598 212.61298019158994 0.7205757331348809
2.036067910564391 12.227572619760823 26.920587940349055 224.40131384197088 0.7410835916377704
2.0438384483017895 12.169054106627119 24.98845168583114 236.98441817462393 0.7626944492012734
2.0505254153069 12.108424326974992 23.231792004582374 250.42761658285121 0.7854863490283788
2.0561201854308595 12.045724659135645 21.63261723886052 264.8049267297665 0.80955098409146
2.0606020456020357 11.980976910575064 20.17939637533596 280.19762127757826 0.8349871397767051
2.063943997524462 11.914169856707655 18.854872212154863 296.6948521693544 0.8619006015883978
2.066131495293972 11.845332061217356 17.649585617626958 314.3960490341285 0.8904095443371438
2.067156133211523 11.774521155586589 16.55190012207862 333.4114268435155 0.9206433991207056
