M[M_sun], R[km], Lambda[1], P_c[MeV/fm^3], rho_c[fm^-3]
0.24162668629717493 15.618656898711224 2160425.4255784233 3.5677272577965504 0.1711233750220791
0.25364213447312256 15.277359045290892 1723166.746965584 3.7848055623112584 0.17388799800528226
0.2660382521688617 14.981280289299361 1383065.4476846484 4.0113719636880845 0.17666630438074227
0.2788121104255104 14.723601513173984 1116422.9576715033 4.24768299062035 0.17945698968844648
0.2919651940525668 14.498505971313708 905906.1520798099 4.4943635849565755 0.18226661576040906
0.30550448245476725 14.301210335210815 738681.633330437 4.751567862966377 0.18509085971212255
0.31941594257398015 14.12818552838079 605164.5153765639 5.019980556797718 0.18793639411762592
0.33371212716695053 13.976050541084119 497728.22594762576 5.299822328985179 0.19079977569662193
0.3483927501212816 13.84208910341559 411057.73404462624 5.591825713513422 0.19368738048690678
0.3634539699429667 13.724049116377358 340685.08789000695 5.896153035507432 0.19659418006004892
0.3789058263333913 13.620093369446428 283356.9753394165 6.213670396158799 0.19952789778071175
0.3947364261183419 13.52853440230066 236448.19493003655 6.544638578859892 0.2024847720565021
0.41096006761566567 13.447940876241802 197896.6812923034 6.889753232806625 0.20546840022118398
0.42756691662778423 13.377112716824637 166106.83959376882 7.249722366985411 0.20848190991374163
0.444560525007697 13.314999722653594 139828.10484894205 7.6248098415568695 0.21152092630267677
0.4619408466679764 13.260611010513271 118000.12458349825 8.015954851538766 0.21459146017442912
0.4797026663867848 13.213213812796392 99833.16741703622 8.42386674711413 0.2176952310274363
0.49785814186858 13.172034015340737 84662.06952576767 8.848993090764044 0.2208298042227231
0.5163946540737011 13.136449068513258 71952.76697739828 9.292193737159307 0.22399839832241586
0.5353114601162422 13.105884356816011 61289.84075472934 9.754359566587874 0.22720402368881507
0.5546161704562625 13.079850682757376 52311.48001199861 10.236299923880509 0.23044803086780363
0.5742963580399948 13.05787250101577 44740.969112869774 10.73849521364964 0.23372723511462998
0.5943516418832713 13.039547410265422 38338.25778647155 11.262171583918995 0.23704759263848285
0.6147859125954906 13.024526292246321 32910.68558274044 11.808275089199723 0.24041083057812263
0.6355864729946071 13.012439161037603 28301.333482532827 12.377784425153873 0.24381858132826414
0.6567562586032751 13.003044758312639 24376.86183199389 12.971401316585395 0.24726894039323624
0.6782860264462766 12.995984874058205 21033.83650836435 13.590426946697425 0.2507664083441641
0.7001719582482703 12.99107246104414 18178.155693226192 14.236070746370867 0.25431376005899503
0.7224039055303333 12.98800440591681 15734.209099557358 14.909521999360102 0.2579129793860476
0.7449893438724092 12.986647527899459 13638.686382680382 15.611826107416709 0.26156412263351475
0.767907032851884 12.986759353316199 11839.408177440728 16.344217496984047 0.2652687698434712
0.7911492629061466 12.988125998897127 10293.32510302299 17.108326780479167 0.2690317642647146
0.8147222713102688 12.990658805046664 8959.329971013589 17.905608470543296 0.27285553742568647
0.8386012806976778 12.99412237631011 7809.529858591722 18.7374453355636 0.27674132923833966
0.862779928234283 12.998391429519453 6816.844852704492 19.605146392559725 0.28068930653660584
0.8872527899115971 13.003329972115921 5957.179352952644 20.510813613011788 0.2847059815175509
0.9120117701025073 13.008821762674023 5213.091330168084 21.456240408078436 0.28879436610553416
0.9370281848424186 13.014715632264537 4566.779525239912 22.442932975215196 0.2929545622774159
0.9623041723114156 13.020918374646769 4006.240709960777 23.472871687383105 0.2971900117078761
0.9878261161959683 13.027312618534696 3517.8413595188977 24.54849936452582 0.301506987435242
1.0135666895114246 13.033771744217704 3093.343616702578 25.671784105200175 0.3059073159313949
1.0395275264727142 13.040231172900574 2722.555120574747 26.844634289329502 0.31039186930337037
1.0656760528570026 13.046553967293905 2399.2956632470723 28.07017066124255 0.3149695695967914
1.0920044475158042 13.05268344635159 2116.3991104609745 29.35047755360368 0.31964106797145736
1.1185014865298482 13.058520635623612 1869.3429775053041 30.688250198027504 0.32441063910047246
1.1451296752384827 13.063975282096557 1652.74823744021 32.086949868290205 0.3292867590244044
1.1718897731445426 13.068992611560764 1462.7462863263104 33.548448896478014 0.334266682159708
1.1987429073011728 13.073446074881417 1295.948249385856 35.07732054913619 0.3393641880471073
1.2256868341864955 13.077322930748485 1149.5662466731105 36.675626826588164 0.3445762786038389
1.2526803372530813 13.080481557132876 1020.565131058512 38.3483487386035 0.34991696328258126
1.2797194234648865 13.082928004467709 907.1024400655554 40.097779657745754 0.3553831508474628
1.306762000318621 13.084521079803324 807.108169584636 41.929377541129526 0.36098932508403003
1.3337962859958716 13.085229722675018 718.7896446282266 43.846559880585694 0.3667370574193717
1.3608031660020419 13.085036967111096 640.9185030458998 45.854118111013705 0.372634681018799
1.3877328027954676 13.083780588525272 572.0617746661842 47.95733093949347 0.3786918587784392
1.4145877393635589 13.08149753532834 511.0543788594058 50.16088920367352 0.38491391588802304
1.4413101721833497 13.078047498575396 457.06429584831034 52.47013263220971 0.39130845497170463
1.4679024423156355 13.073458250007086 409.20542634036065 54.891413239696845 0.39788684475264813
1.4943096507569638 13.067597084246959 366.6905607990781 57.43091678854883 0.4046581393690387
1.520521658187432 13.060460092391047 328.99093139858337 60.09526678272141 0.41163210248106386
1.5465037245993196 13.051979650358524 295.4272001206259 62.891563870265315 0.4188192656816367
1.5722189867734766 13.042106602425546 265.58832487547517 65.82742901785669 0.4262309916745364
1.5976430341460583 13.030786639794306 239.03720107317142 68.91105084014458 0.43387954277798063
1.6227258425809923 13.017946292246354 215.33616261405962 72.15123751434403 0.44177815537997633
1.6474819846456716 13.003646356181402 194.19555966438088 75.55747376446527 0.44994112104750167
1.6718336738431263 12.98771970782656 175.32223843501828 79.13977366378928 0.45838299893029916
1.6957691506499843 12.970182679883221 158.43995321009334 82.90815758107587 0.46711635885147734
1.7192332042299239 12.950948648442175 143.3523124743905 86.87543410754677 0.47616307700084104
1.742235866838293 12.930054773424082 129.8389232750359 91.05327308968097 0.485537882655521
1.7647171365711751 12.907415779232858 117.73827603861645 95.45555539038301 0.4952618875457941
1.7866451967356245 12.882993977603027 106.87241436938129 100.09614575053638 0.505353412610515
1.8079838244159327 12.856749519208211 97.13232427799035 104.99145578265102 0.5158377373032274
1.8286978421193187 12.828628611519632 88.37628529389546 110.15800395153157 0.526737344161804
1.8487787161762592 12.798676297179956 80.50038227434986 115.61332123159157 0.5380752728711984
1.868167541121414 12.766784084494088 73.42007174728559 121.37779966062256 0.5498815672418874
1.8868410808286313 12.732947881764836 67.04165386455382 127.47274215848542 0.5621856192217812
1.9047666929130143 12.697147143460855 61.28923786667899 133.92069656592938 0.5750171445001033
1.9219124413964304 12.65934941449934 56.10307008064019 140.74706856046936 0.5884114999634786
1.938230060536109 12.619475227857585 51.41671687669624 147.97964432498918 0.6024073900645902
1.9537414799735913 12.577684820836357 47.1865419914893 155.64705408173876 0.617041079483785
1.9683513411643458 12.53374045950129 43.358840910766006 163.78276764391845 0.6323596112614468
1.982072912385495 12.487760363082984 39.898938239534125 172.42037128022355 0.6484039814131797
1.9948684055357306 12.439701057617295 36.76366158970324 181.5994318812811 0.6652283621571775
2.006704422882216 12.389545985732797 33.92163680641059 191.36176086894403 0.6828866025648704
2.017562732077896 12.337305824363849 31.343623772071787 201.75334960159427 0.7014378800938216
2.0274064202117392 12.282939260313833 29.005587391512282 212.8242741992184 0.720945379359908
2.036223329458456 12.226493330196027 26.8831059882775 224.62962337979545 0.7414782301091793
2.043974902879618 12.16792071285121 24.953348007404873 237.23085491309075 0.7631146464784238
2.050642153296153 12.107237437224331 23.198568118460692 250.6944944518501 0.7859362447907305
2.0562175769378412 12.044490091166862 21.603364152881156 265.093698254285 0.8100315166855306
2.060679785383918 11.979686602040763 20.151590398854044 280.51035436143604 0.8355008037311129
2.0639988438357526 11.912823492713178 18.830047466809525 297.03366228169483 0.862449534678763
2.066163138709328 11.843931517718858 17.626682362197005 314.764091110935 0.8909987073138058
2.0671655751284357 11.773062728492507 16.530565302935937 333.8111267897327 0.9212746932579492
