M[M_sun], R[km], Lambda[1], P_c[MeV/fm^3], rho_c[fm^-3]
0.24162668629717493 15.618656898711224 2160425.4255784233 3.5677272577965504 0.1711233750220791
0.2536457179304381 15.277249680317079 1723095.576207197 3.7848582391951893 0.1738886545972283
0.26604383716687496 14.981189372166307 1382891.2472567693 4.011482701644415 0.17666764258359147
0.2788219142250932 14.723384755877545 1116323.5333105815 4.247855536738133 0.1794589909633913
0.2919788471354606 14.498264630085576 905718.0873204742 4.494602467650927 0.18226927577465246
0.30551626866605514 14.301080774288863 738516.6849003629 4.751881194187642 0.18509424428731383
0.3194359167863216 14.127974723572088 604980.6749684149 5.02037064532441 0.1879404414366507
0.33373628893441837 13.97576298368762 497567.55944181554 5.300299445680049 0.19080457947005952
0.34842069316920526 13.841861406297383 410903.68423431646 5.592391050338184 0.19369285027620517
0.363486362888389 13.723815548693477 340570.951896264 5.896819294595524 0.19660043770639973
0.3789426738311294 13.619843458405704 283204.73704106064 6.214445641202678 0.19953496708205615
0.39477936379120326 13.528285948860994 236329.16875434908 6.545522005672739 0.2024925185161996
0.41100714919190595 13.447714728088597 197787.66091966332 6.890761897253226 0.20547699043088083
0.42761892068615337 13.3769057019304 166016.39349486673 7.2508657354459585 0.2084913687079955
0.44461687782351333 13.314799798583072 139741.18948404366 7.626084754539811 0.21153107542978733
0.46200079468666266 13.260433949553816 116610.2880589668 8.017383548349514 0.21460251229931201
0.4797713359518395 13.213040598847096 99766.55063977021 8.425460369937543 0.2177072128432245
0.49793212485982136 13.171882956897464 84603.07506673195 8.85074576420941 0.22084249432732733
0.5164754447761146 13.136301049306917 71905.65415862126 9.294133827271311 0.22401205667775487
0.5353978727651446 13.105759727949984 61244.46885190863 9.756500229382087 0.2272186797994231
0.5547085310671435 13.07973025010887 52278.01417808058 10.238645804885104 0.23046359581487155
0.5743957824155691 13.057771297379746 44705.692955510385 10.74105469979336 0.23374366780850223
0.5944557021410183 13.03946342164526 37971.88034881954 11.264973859518955 0.23706510130714223
0.6148977704468099 13.024467109769569 32883.457969168805 11.811336710940823 0.24042945034651161
0.6357080906556786 13.01241099804803 28275.494377869287 12.381122982743408 0.24383834917548267
0.656882874664216 13.002986173909946 24161.665038910476 12.975001478695129 0.24728951744353952
0.6784202430554228 12.995949018366035 21014.762193926214 13.594339841136948 0.25078819429207616
0.7003132978624288 12.991048239024469 18160.692645903513 14.240317356264004 0.25433679812492116
0.7225530847461311 12.987992557246008 15718.316704412702 14.914124656153732 0.2579373153675002
0.7451459128001797 12.986643559821662 13624.559532301428 15.616763665649946 0.26158936015599127
0.7680711661654338 12.98676869759788 11827.906581375511 16.349556828055324 0.265295385069711
0.791322023084452 12.988154362636942 10282.49088994572 17.11409468507324 0.26905981163157916
0.8149012226468081 12.990688725346619 8949.764703922183 17.911833526350843 0.27288507487038044
0.8387891485673091 12.994159981763932 7801.824221193871 18.744099930593443 0.27677190365932186
0.8629757805335745 12.998433067289366 6809.275698540997 19.612317061703514 0.28072147680674964
0.8874621262858765 13.003385078751453 5950.760267562958 20.518534873363468 0.2847398172776123
0.9122241242014809 13.008887044201026 5207.241680530505 21.464549140584325 0.28882994169202353
0.9372501314607916 13.014776535405488 4562.064432505086 22.451794566466326 0.29299136828244815
0.9625386737246269 13.020982943392307 4001.355438085887 23.482397356276397 0.2972286982796038
0.9880642161867244 13.02736712082685 3513.53257284773 24.558733953873105 0.3015476446001311
1.0138123627786526 13.033832073311101 3089.5981666101857 25.682687995297194 0.30594939614324995
1.0397819182021593 13.040294460133644 2719.124434936556 26.856340797737136 0.31043609438414876
1.0659383615405849 13.046618988438784 2396.3354896124542 28.082734593584675 0.31501604904574143
1.0922760695114826 13.052737917140405 2113.812816886596 29.363854377311327 0.31968921632339325
1.1187789217915256 13.058578688676416 1866.7037624640282 30.702599637862978 0.3244612576793126
1.145416614072377 13.06404420500276 1650.5341813441419 32.10222508643081 0.32933924316938706
1.1721842479567737 13.0690381217114 1460.8137389526748 33.56482909131736 0.33432188510518535
1.1990449289756009 13.073494310730075 1294.2960418022212 35.09488304281407 0.33942226245249724
1.225995340769426 13.07736265687165 1147.9718754724993 36.694320649087395 0.3446365819814799
1.2529962935806203 13.080511225990575 1019.246091377607 38.368283307220906 0.3499798264812188
1.2800430899312205 13.082950164838746 905.8486580694531 40.119114110681245 0.355449152517465
1.3070977926821223 13.084552008440973 805.9972166435517 41.95209438520737 0.36105800154526413
1.334121064300941 13.085251223871376 717.8592258192649 43.9232901684247 0.36692404162532605
1.3446837817716248 13.074096470131801 680.8235193609806 46.54631671369895 1.2420282146982982
