M[M_sun], R[km], Lambda[1], P_c[MeV/fm^3], rho_c[fm^-3]
0.24162668629717493 15.618656898711224 2160425.4255784233 3.5677272577965504 0.1711233750220791
0.25363673389253505 15.277472731981506 1723414.4939447613 3.7846880585817813 0.17388653337798002
0.26602376137913336 14.981665424177063 1383359.2214774075 4.011124953864602 0.17666331941280072
0.2787915039673032 14.723961498188164 1116847.557005177 4.247298124632852 0.17945252582297216
0.2919367666729924 14.498929223760156 906341.3714991654 4.4938307705147915 0.18226068274794002
0.30546460146741733 14.301742689183376 739081.160868853 4.750869016542795 0.1850833108369794
0.31937159736031806 14.128704063667367 605472.1643072842 5.019110537772904 0.18792736733444698
0.3336587546469215 13.976542280972357 498096.0912226967 5.298758241599562 0.19078906210228905
0.34832937384520485 13.842626075294252 411373.2503974711 5.5905649084695925 0.19367518185127222
0.36338009441495545 13.724604103360617 340982.77788860525 5.894667198359824 0.19658022476312192
0.3788234562556254 13.620571618421286 279699.150133028 6.211941557116606 0.19951213285030467
0.39464282669725914 13.529028366954188 236683.776408178 6.542668540327826 0.20246749747996756
0.41085689020757266 13.448420172673055 198125.16460228447 6.887503978295391 0.20544924462590328
0.42745119083542144 13.377566875019673 166319.3945110647 7.247172803024297 0.2084608180244886
0.44443253959103096 13.315411970865876 140002.1509152995 7.621967021712005 0.2114982956287845
0.46180156854232984 13.261008231378447 118153.1141653883 8.012769210136348 0.21456681666270097
0.4795500418598364 13.213591215532286 99970.80164679239 8.420313458987621 0.21766851526813064
0.49769228408992916 13.172382853776186 84783.42278476781 8.845085263045203 0.22080150988035238
0.5162157201071743 13.136756174963837 72069.49660419639 9.287868155302066 0.2239679459564723
0.5351174344683403 13.106168939736188 61387.25006917538 9.749586921265804 0.2271713476326318
0.554409125728959 13.08012141232494 52404.08060836844 10.231049125664873 0.2304130626000305
0.5740721700064108 13.058119793655976 44817.976263155266 10.732789080039886 0.23369059996931638
0.5941176225882278 13.03975370718361 38405.34674920113 11.255924340853646 0.23700855975075857
0.6145348997639806 13.024683283170996 32969.62063051927 11.801449855758849 0.24036932177115156
0.635318205659308 13.012597837820143 28354.916070525855 12.370342020566573 0.24377451429845423
0.6564683724162026 13.003128315043124 24428.783636933847 12.963375915909966 0.24722307049394593
0.6779861462308018 12.996082450526638 21077.36657907015 13.58170464150148 0.25071784488567844
0.6998555215162368 12.991129392876589 18215.053427105573 14.226604801221733 0.2542624068445754
0.7220701830939168 12.988042549093535 15767.256405764652 14.89926267732555 0.25785873448317026
0.7446376063834935 12.986669270313774 13668.062932554221 15.600820532166717 0.2615078694331234
0.767538862401924 12.9867442451858 11784.03757003781 16.332316706225015 0.2652094473863588
0.7907643848849922 12.988103849743432 10315.952710002255 17.095471088629413 0.2689692513885517
0.814317713123349 12.99060412979203 8980.61060479556 17.89173423668889 0.2727897051781026
0.8381786958856025 12.994055884561838 7828.3191375899305 18.722614080904506 0.2766731872970784
0.8623405136285066 12.998308661271682 6833.4925131765585 19.589165381168588 0.2806176098171903
0.8867944698896786 13.003233542925509 5972.286687833947 20.49360598429553 0.2846305750204312
0.9115342540135719 13.00871699928213 5226.264696628029 21.43772404055498 0.2887150843818978
0.936533322805007 13.014606435051455 4579.044485390191 22.423184973990395 0.29287254032313487
0.9617905463181732 13.02079101435111 4016.347866240788 23.451644376686406 0.2971038012918883
0.9872962846362291 13.027181419825625 3527.366530066308 24.525692904058857 0.3014163881945419
1.0130188872987806 13.033639989451725 3101.610262626167 25.64748673922936 0.305813547716705
1.0389600947219064 13.040082684307372 2730.082115908419 26.818549164950195 0.31029332440060187
1.0650932374637365 13.046422150965581 2405.858798395504 28.042175768688818 0.31486600431612294
1.091403317457837 13.052542714167528 2122.7032060461597 29.320672065193705 0.3195337865138446
1.1178795907958612 13.058386014303789 1874.7364594000437 30.656278503930825 0.3242978568778323
1.144496127049001 13.063865657836526 1657.5138038665618 32.05273379208775 0.32916864235193855
1.1712342360369192 13.06887777785732 1467.0256362504101 33.511954449999436 0.3341436921123403
1.1980766998989132 13.073352942193619 1299.9023313780697 35.03819315351238 0.3392348043572403
1.2249997436133446 13.077227612994605 1153.0367852395416 36.63397996308083 0.34444193226896014
1.2519829491318422 13.0804268556552 1023.7225005871437 38.303703588992434 0.3497755372358033
1.2790027040547283 13.08287640488756 909.9353770765887 40.050252534044375 0.3552361178045169
1.3060287131674342 13.084480606674148 809.652517877698 41.878772130615324 0.3608363372613595
1.3330503636794762 13.085223834619969 718.2267684874515 43.792309251835405 0.36657579649436667
1.3600443985164152 13.08505670571863 643.0091691251307 45.79633586339907 0.37246665809186064
1.3869622425392982 13.083837884719708 573.9099080802542 47.89577045828371 0.3785166377767605
1.4137960423862372 13.081562098219166 512.7416778365697 50.094876009677435 0.38472893964364163
1.4405252542392355 13.078185628330026 458.5897824520785 52.3997714459067 0.391115269516175
1.4670938244272802 13.07360341287385 410.5791803202915 54.81639276076107 0.397684903115492
1.4935004666614922 13.067793947096668 367.9401796477976 57.350900513269565 0.40444685231721006
1.5197035024301442 13.060708796066626 330.09323311098865 60.00989074870651 0.4114108350504925
1.5456791241476402 13.052270151245269 296.43724436492016 62.80043417623236 0.4185873333651909
1.5713904658936202 13.042450929985673 266.5288960008267 65.73011909347782 0.42598765622956164
1.596804122667629 13.03117420250595 239.8427468180503 68.80709843786698 0.4336240076122406
1.621897661813404 13.018421104716483 216.09197122845688 72.04014139165919 0.44150956046991985
1.6466365316943354 13.004152224703525 194.86758855331783 75.43869002119139 0.44965853733722766
1.6710017950895835 12.988299354907406 175.93527452786924 79.01292149142557 0.45808629829876546
1.694933135327951 12.970827373270053 159.01668980118197 82.77282413022779 0.46680536297558345
1.7184217833540818 12.951694612426786 143.8554315865125 86.73051356398169 0.4758349032719301
1.7414225766638887 12.930860555480619 130.31244163470345 90.89870510624726 0.48519402578681053
1.7639069430957546 12.908289504111671 118.16101188201503 95.28985243859898 0.4948982982699088
1.7858399409932217 12.883932060127359 107.26054756775146 99.91916359365115 0.5049714927941101
1.8071782092702904 12.857745034914792 97.48631699864325 104.80227752720045 0.515436016881245
1.8279267921057185 12.829764699579687 88.694219180667 109.95483001883234 0.5263112562357724
1.8480029913944793 12.799845067735381 80.79775208000598 115.39583316619624 0.5376260175774532
1.8674188125057778 12.768075051219935 73.68274142886074 121.14480252324417 0.5494072704541103
1.886111267209675 12.734336717269976 67.28577056440203 127.22292912608312 0.5616842464590429
1.904040831586536 12.69856719217981 61.509276652196604 133.65331003813782 0.5744888594278685
1.9212154982316618 12.660902245742896 56.30570385524716 140.460148630088 0.5878524708289607
1.9375760744674522 12.621194491193586 51.60664217292399 147.67122980124975 0.6018141393835981
1.9530910095103997 12.579424559402337 47.35513551323084 155.3162743656058 0.6164142188101966
1.9677440420770964 12.535631453941821 43.516801170835116 163.42659594264003 0.6316927243172459
1.9815048210335304 12.489788559113183 40.04211976503116 172.0375901571834 0.6476972179219083
1.9943439592660006 12.441876492410147 36.893028137461386 181.18763062779718 0.6644782604640088
2.006203918739291 12.391800295839246 34.042326049858566 190.9182682790051 0.6820893306170436
2.017093782846928 12.339662698841341 31.453647872818955 201.27521921280064 0.7005892458173867
2.0269802840827396 12.285432231551887 29.107062428702932 212.30882678560914 0.7200426728242789
2.035832090490444 12.229090125251059 26.97443316325626 224.07335873270247 0.7405167134238961
2.043639756667318 12.170676463120286 25.03874422587646 236.62999933367954 0.7620894530951823
2.050355315276686 12.110124924342921 23.278286168289878 250.04428772772047 0.7848401432258617
2.055974620891002 12.047491548374985 21.675685084655303 264.39016635431204 0.8088607987296338
2.0604821586177127 11.982816330256115 20.217104883453814 279.74828047617706 0.8342488026161389
2.0638593074061964 11.916090829667217 18.89168779431069 296.20814637378373 0.8611118647952728
2.0660836784980297 11.847344299498607 17.6828786502428 313.86749523726223 0.8895634336668917
2.067143926459314 11.776611275009945 16.58280360002301 332.8374320184656 0.9197368201449223
