M[M_sun], R[km], Lambda[1], P_c[MeV/fm^3], rho_c[fm^-3]
0.24162668629717493 15.618656898711224 2160425.4255784233 3.5677272577965504 0.1711233750220791
0.2536459378122946 15.277236033413995 1723134.5737546538 3.784858226114968 0.17388865443418966
0.2660437612617203 14.981201524566828 1383037.1446052946 4.011482674146762 0.17666764225129855
0.2788220886002583 14.723375686501736 1093899.7603249983 4.247855493892318 0.1794589904664444
0.2919788394601776 14.498279209538893 905777.97279352 4.494602408332159 0.1822692751141242
0.30551626107946334 14.301080700395525 738516.7001372329 4.751881116381273 0.18509424344685654
0.3194359520108951 14.127974691420466 604947.6817254964 5.0203705484568255 0.18794044043161212
0.333736364189122 13.975806513922805 497566.66290314775 5.300299327200351 0.19080457827716554
0.3484206861315831 13.841861465726447 410903.72109623294 5.592390909950086 0.1936928489179117
0.36348708985641476 13.72380430874698 340562.2684539097 5.896819129144265 0.19660043615244652
0.3789422590097426 13.619856420010546 283211.5999193859 6.214445448685355 0.19953496532652995
0.39477908516470145 13.528284006771546 236337.53405302894 6.545521786288767 0.20249251659249853
0.41100715325532194 13.447739121179067 197795.87487135816 6.890761646766432 0.2054769882976302
0.42761891588542605 13.376938317823118 166022.68253972646 7.250865451504949 0.20849136635902432
0.4446168773913868 13.31479934061414 139747.71386593155 7.626084437928933 0.21153107290936116
0.462000378135525 13.26043988710469 117928.09514230942 8.017383193545072 0.21460250955461282
0.4797713305950858 13.213039949776066 99765.2469093389 8.425459974171787 0.2177072098676193
0.4979321237106073 13.171890015306236 84604.3438057661 8.850745328941217 0.22084249117579963
0.5164754251434602 13.13630108249139 71905.64126708772 9.294133345455048 0.22401205328573834
0.5353970156483598 13.105761041196683 61244.16531088675 9.756499697749693 0.2272186761595863
0.5547085884693597 13.079759318771103 52276.69772124516 10.23864522565877 0.23046359199270955
0.5743962844952275 13.057780655736142 44706.44093764886 10.741054064136565 0.2337436637273887
0.594457817841941 13.039448569240571 38305.885554040884 11.264973163558809 0.23706509695877062
0.6148987073192875 13.024455185491437 32884.33374640107 11.811335950564441 0.24042944572215455
0.6357079995175065 13.01241879351715 28275.718788217295 12.38112215358111 0.24383834426595116
0.6568829289548309 13.002999756468848 24162.0558984575 12.97500058455465 0.24728951233299923
0.6784203010593542 12.995961994281862 21015.377427714506 13.59433886931796 0.25078818888124843
0.7003132198996381 12.991036155397172 18160.864003593073 14.240316301553706 0.25433679240306634
0.7225536057760037 12.987995357316434 15719.11717853766 14.914123513004345 0.25793730932323844
0.7451459659615476 12.986652661165994 13624.777342929354 15.616762439313616 0.2615893538877734
0.7680710830031005 12.986755663629848 11827.577781982862 16.349555501920218 0.2652953784592601
0.7913220654776194 12.98816112110892 10282.237347180146 17.114093252481062 0.26905980466536855
0.8149010906744444 12.99068656327715 8949.888140215087 17.91183198020176 0.2728850675340136
0.8387900190150909 12.994157347530756 7752.232163253323 18.744098277746307 0.27677189606534447
0.8629750929505844 12.998431742671135 6809.173544911061 19.612315280660702 0.2807214688163338
0.8874620234875062 13.003384839996164 5914.7009136292945 20.518532955549357 0.2847398088734535
0.9122240232726916 13.008880284060814 5207.211491677724 21.464547076835974 0.28882993285565073
0.9372500745901201 13.014776490888801 4562.066164621199 22.451792365382207 0.2929913591403978
0.962538006374712 13.020989663691626 4001.332737300905 23.48239499022542 0.2972286886703678
0.9880641544979483 13.02737263458681 3513.6474804804434 24.558731411713733 0.3015476345013387
1.013812351741878 13.033833908033035 3089.549894285017 25.68268528687214 0.30594938569091606
1.0397814336490006 13.040291935923012 2719.1174951800954 26.85633788992382 0.3104360833989537
1.0659382805236708 13.046617509539248 2396.317134796519 28.082731472765932 0.31501603750047585
1.0922757472595188 13.052740198971643 2113.7145054885955 29.36385105455079 0.3196892043634955
1.1187781817391431 13.058580386450153 1866.7046176840488 30.702596073475796 0.32446124510570584
1.1454164044242856 13.064038630725058 1650.5542935266167 32.10222129205368 0.32933923013228095
1.1721846527957858 13.069039663300124 1460.8227586007683 33.56482502242591 0.33432187139260167
1.1990446223427407 13.073497218555143 1294.285021440758 35.09487868019559 0.3394222480265006
1.2259960892089752 13.07735864925817 1147.9788113026566 36.69431600540574 0.34463656700168166
1.2529967262053308 13.080516454753171 1019.2578302922052 38.36827836362356 0.34997981091430463
1.2800430177410789 13.082947715125387 905.8439240291436 40.11910881095644 0.355449136121887
1.3070978386679784 13.084555687762935 805.9853392327851 41.95208874203615 0.3610579844851026
1.3341320332626232 13.0852387097257 717.8683569761749 43.87090779323083 0.3668094320075662
1.3611439288501752 13.08502943619674 639.990134542582 45.880051712698034 0.3727100924096835
1.388084526206333 13.08377494548616 571.1862738775252 47.98496101480138 0.37877050289194786
1.414931954915134 13.081443912627757 510.3116318973577 50.19051876735548 0.38499694119070527
1.4416657790485388 13.077997259041473 456.3922032150551 52.501714642493575 0.39139516733918744
1.468261841081977 13.073386635342251 408.59235727888773 54.92508755737154 0.39797748995963445
1.4946751184879872 13.067505260109803 366.15627825486666 57.466834604253755 0.40475298219147615
1.520888001374029 13.060349804727487 328.50324589156867 60.13359163143339 0.4117314282567266
1.5468736882990868 13.051848652342379 294.9945569020582 62.93247274702305 0.41892338202538504
1.5725915158019788 13.041952712477848 265.179597147124 65.87111360599525 0.4263402303648456
1.5980050095033151 13.030603522321341 238.64599630566428 68.95771886468944 0.43399426183329387
1.6231147548819285 13.017781538331526 214.9943073601923 72.20111423476344 0.44189874134563567
1.6478560538358955 13.00341417284311 193.8798792983195 75.61080362274588 0.4500679915165234
1.6722046257212284 12.987463763704175 175.0531806640223 79.19654358913182 0.4585154425166332
1.6961415804566888 12.969893911038126 158.18726471786468 82.96892153903823 0.4672559942499015
1.7196207650580224 12.950660356408557 143.1244660902 86.94050494347191 0.47631043042875104
1.7426046523756453 12.929710639976811 129.6359449454739 91.12267788699805 0.485692282782564
1.7650654452707029 12.90701953305765 117.55553092229387 95.4415752385173 0.4950788167585686
