M[M_sun], R[km], Lambda[1], P_c[MeV/fm^3], rho_c[fm^-3]
0.24162668629717493 15.618656898711224 2160425.4255784233 3.5677272577965504 0.1711233750220791
0.25364480903319525 15.27723949401324 1723094.006947452 3.784835749095161 0.17388837426898104
0.26604097806665966 14.981259978673402 1382893.4261105265 4.0114354224277875 0.1766670712421608
0.2788171510753565 14.723494188924288 1116420.3585681238 4.247781868321856 0.1794581365207784
0.2919729420075221 14.49837332600483 905827.8469653318 4.494500476347201 0.18226814007781453
0.30550931069110826 14.301168114950265 738615.5113803953 4.751747416257674 0.18509279923035116
0.31942809060695604 14.128053653922024 605047.5082841117 5.020204094726968 0.1879387134099196
0.33372413518653415 13.975929699454351 497648.09492348024 5.300095736820275 0.1908025284598557
0.3484085948728542 13.841963507042651 410968.6847622287 5.592149673990278 0.19369051489363884
0.36347387490157035 13.723895687508495 340627.2444586155 5.896534826990001 0.1965977659264489
0.3789271580680376 13.619951554955469 283271.7969391785 6.214114638997239 0.19953194874049512
0.39475956634177933 13.528418515745159 236370.9769766431 6.545144811920162 0.2024892110365533
0.4109869643154795 13.447806780801246 197836.11548370443 6.890331229056385 0.20547332267979365
0.42759600532620384 13.377018335396905 164048.408386544 7.250377550415345 0.20848733007834835
0.4445928995687628 13.314898452781907 139779.59746892002 7.625540401403985 0.21152674202880825
0.4619759509073332 13.260518216867192 117959.94681333672 8.016773530719968 0.21459779331976941
0.47974387324832346 13.213086116236559 99794.00978559641 8.42477992973053 0.21770209688410572
0.49790014626373463 13.171950262134791 84628.80431063056 8.849997409849504 0.22083707592201438
0.5164405634561887 13.136373446293744 71927.67538042748 9.293305445990253 0.22400622482189267
0.5353608057344346 13.105809102353842 61263.31756906975 9.75558620303075 0.2272124218911995
0.5546687917386183 13.079797604008535 52294.174762292576 10.237649483842702 0.23045701841068678
0.5743536416034715 13.057811289631152 44720.10507929975 10.739961833336698 0.23373665126732282
0.5944103054969703 13.039513895303196 37987.51940427017 11.263777319534187 0.23705762530366445
0.6148512642121341 13.024478061631667 32894.69542864782 11.81002942690257 0.24042149987840378
0.6356572895855971 13.012440849481722 28285.964969638608 12.379697442931459 0.24382990844847682
0.6568292294837689 13.003002203303476 24365.363640567728 12.97346422954158 0.24728073115775653
0.6783625066381594 12.995969061185423 21022.98935125865 13.592669049158856 0.25077889176997414
0.7002530835923123 12.991057068556902 18167.970711431677 14.238504060435773 0.2543269609065551
0.7224892597202713 12.9879960117135 15725.467432027353 14.912159319582274 0.25792692389220767
0.745078832866212 12.986651910995489 13630.676854012774 15.614655317781327 0.26157858368020925
0.768000926166301 12.986765998097798 11833.295231580261 16.34727691157481 0.26528402025787845
0.7912480731109804 12.988149042501883 10287.459814510361 17.111631754269354 0.2690478352330982
0.8148256198369187 12.990666818524952 8953.954769700043 17.909175376538837 0.27287246213958927
0.8387094566460661 12.994146599965433 7805.436316442575 18.74125835298707 0.27675884808049234
0.8628936840022757 12.998412778315439 6812.307365010286 19.609255100753412 0.2807077397190443
0.8873740817638803 13.003373338908006 5953.544881142527 20.51523778760219 0.2847253689365851
0.9121284964798138 13.00886970149999 5209.345677755535 21.461001178901782 0.2888147503475424
0.937155231651027 13.01475167864998 4563.858254458333 22.448010510441268 0.29297565146803484
0.9624405988412474 13.02097352784751 4003.3776384473535 23.47832970753001 0.29721217834942854
0.9879626164831005 13.02734532737726 3515.3682884748487 24.55436356061643 0.3015302831024454
1.0137070619304738 13.033808519764461 3090.9176596287393 25.678031777474942 0.305931426901937
1.0396729505068063 13.040263049226583 2720.471605111003 26.851341818083394 0.3104172091391809
1.065826191172155 13.046590742374278 2397.393464186802 28.07736944490476 0.314996201027829
1.092160375596263 13.052721208019477 2114.940433154554 29.35814207811805 0.3196686555536671
1.1186605101166083 13.058551891361118 1867.741823149156 30.696471971441273 0.32443964193894714
1.1452933803524976 13.0640116281561 1651.5371218019923 32.09570205613444 0.32931683067978135
1.1720583360774866 13.069017129517082 1461.5161038973465 33.55783416234808 0.33429831147335154
1.1989156543897412 13.073474804206292 1294.9662099410086 35.087383190259516 0.3393974624733139
1.225863729867182 13.077346116243355 1148.6403723303874 36.68633764161783 0.34461083003512605
1.2528619010948416 13.080503103629265 1019.7698250520077 38.35978473887182 0.3499530653042159
1.2799055547260632 13.08293776386586 906.4156563276682 40.11000335879745 0.3554209668948421
1.3069504945665171 13.084525914517265 806.5272961630834 41.942393247506 0.361028673536277
1.3339895380741322 13.0852420516167 718.3289557069703 43.86051352182759 0.36677853485743445
1.3609987841287134 13.085031158561899 640.3832752796577 45.86898044925877 0.37267789867951956
1.3879317285832495 13.08377052564803 571.5777621344679 47.97316545692251 0.3787369289265357
1.4147817543186212 13.081462025509715 510.627340474122 50.17786953304848 0.38496149664220264
1.4415131175779312 13.078019832153105 456.69818124992395 52.48823181741297 0.3913581485530941
1.4681090135742916 13.073415318120324 408.85943730935344 54.91071142289216 0.3979387919911074
1.494519508896458 13.067547914722095 366.38233447537266 57.45150060356902 0.40471249198137693
1.5207316908752493 13.060397389680926 328.7189577186441 60.11722993629034 0.41168902396510226
1.5467158549141362 13.051904426428889 295.1738023042856 62.91500778121542 0.41887893229887824
1.5724322501860746 13.042019158288598 265.35521723978167 65.85246352080121 0.4262935935309514
1.5978461949750904 13.030678614593178 238.81903064215936 68.93779496084791 0.4339452850135304
1.6229437071276547 13.017857300494288 215.149958778954 72.1798203249259 0.44184725947876813
1.6476965737967992 13.003511907308091 194.01787467627835 75.58803532758122 0.45001382628189696
1.672045435715978 12.987574470255273 175.1637443488097 79.1723064925948 0.4584588976477027
1.6959816728603585 12.970014458495251 158.301242948858 82.94297908750396 0.46719637857183244
1.7194620706606014 12.950796784554784 143.2208383578937 86.91272354511149 0.4762475192301728
1.7424437445078582 12.929851623545398 129.7221380552479 91.09304597976977 0.485626362696094
1.764923050097047 12.907195123078889 117.62481003421792 95.49819488326133 0.49535544811410526
1.7868518401295812 12.882753231016286 106.78215218438915 100.14168897374027 0.5054516929103522
1.808188878671378 12.856485239412084 97.04485944899143 105.04013890286309 0.5159411160110415
1.8289023383701697 12.828354735410894 88.29700421665109 110.21009431510892 0.5268462671511652
1.8489758162496333 12.798366153473342 80.42792363239089 115.6692933425555 0.5381908919379592
1.8683508298776057 12.766419794075649 73.357231784717 121.43776510277144 0.5500036349072196
1.8870259549966324 12.732592877806947 66.97966433772547 127.53694999685361 0.56231434670188
1.9049476885364836 12.696767180598728 61.22983738254786 133.98945406951222 0.5751528931611912
1.9220875358711127 12.658939915000289 56.05022829442692 140.82091928600533 0.5885553892608343
1.9383996313994698 12.619041820213265 51.37206575382457 148.0590305289896 0.6025600933776949
1.9538933822974622 12.577188393607395 47.14497847322393 155.73220003124507 0.6172024395813291
1.968506939329694 12.533247043713509 43.32210550896798 163.87418932340088 0.6325303877184871
1.9822189177335543 12.487237750950818 39.862645210690516 172.51891046309393 0.6485859232402985
1.9950044034957755 12.439146233827433 36.73025971272467 181.70544578202282 0.6654214679473445
2.0068379972183212 12.388978636363158 33.889273148520275 191.4759379310087 0.683091860038692
2.0176810764141537 12.336694131319687 31.315091244047583 201.87644925862043 0.7016563698422632
2.027514887526966 12.282300807193693 28.98055798680475 212.9568246770632 0.7211772684906543
2.036320443517358 12.22581934697995 26.858977899656878 224.77285155710604 0.7417258034234401
2.0440612363947053 12.167214644676124 24.93195140890039 237.38545856554546 0.7633782599079925
2.0507162837487924 12.106494976679103 23.178957669965683 250.86169050453577 0.786217729375161
2.0562849286340983 12.043736370930382 21.58591140355372 265.27486326829097 0.8103329750806638
2.0607266221807974 11.978875786869459 20.134790334675582 280.7062903643342 0.8358221843795711
2.064027049456453 11.91196992181508 18.814554495003023 297.2462384168677 0.8627939461073718
2.066183902732459 11.843054422144741 17.61195661107578 314.9950143785613 0.8913683700461644
2.0671703246912676 11.772151498404288 16.51726262251162 334.0619202539958 0.9216708015015121
