M[M_sun], R[km], Lambda[1], P_c[MeV/fm^3], rho_c[fm^-3]
0.24162668629717493 15.618656898711224 2160425.4255784233 3.5677272577965504 0.1711233750220791
0.2536417424763657 15.277368875209456 1723187.1004695934 3.784797845926047 0.1738879018242631
0.26603790059146304 14.98127856030468 1383102.819069482 4.011355742397223 0.17666610835601537
0.2788113307999419 14.723568531763368 1116542.2291068668 4.247657715725895 0.17945669653775925
0.29196410479760077 14.49851138255324 905945.6089741179 4.494328593322895 0.1822662261204469
0.3054982757960235 14.301309326804024 725510.3307637543 4.751521966578311 0.18509036394353684
0.3194124597241777 14.128232406786601 605179.3354436185 5.0199234176738 0.18793580127716158
0.33370952248938607 13.976052256331284 497720.3589391166 5.299752442944195 0.19079907206015112
0.348388320623751 13.842132851868122 411072.6940390635 5.59174290617326 0.1936865793031112
0.36344855294385264 13.724107018740165 340709.6201010891 5.8960554466495765 0.19659326348484396
0.3789010534265829 13.620094358290759 283353.5350064162 6.21355684497917 0.19952686233067807
0.39473048182041076 13.52854240904954 236445.59015144082 6.544509183359201 0.2024836374327658
0.41095331383138617 13.44798952958922 197913.9591392184 6.88960549523307 0.2054671420260119
0.4275593244326655 13.377142698918268 166121.87942788156 7.249554901183791 0.20848052451208265
0.44455199465808404 13.315003454328806 139836.23223586677 7.62462311048231 0.21151943980325558
0.46193073617094244 13.260647801720332 118013.3463049825 8.015745598451188 0.21458984143262286
0.47969312078088416 13.21323107706072 99848.73069488215 8.423633340527864 0.217693476136204
0.4978473608891064 13.172053965560133 84668.5809447495 8.848736391364774 0.2208279456093932
0.5163826475303596 13.136473159046291 71960.59358805769 9.2919095911439 0.22399639791675294
0.5352986595506715 13.105904187466331 61297.2133423291 9.754046047660614 0.2272018771722838
0.5546009051808125 13.079889944680218 52318.097836937544 10.235954988708668 0.2304457337341188
0.574280211080693 13.057913614569687 44746.278752652936 10.738120361015214 0.23372482844460216
0.5943366499112577 13.039555731853092 38342.90508185035 11.26176117715105 0.2370450284095699
0.6147694591849797 13.024535150776146 32913.590619694485 11.807826704183825 0.24040810364911208
0.6355683200738229 13.012454525891872 28304.940558095484 12.37729548655716 0.2438156862865523
0.6567369399105857 13.003043062565654 24380.414373355423 12.970874069666714 0.24726592686605683
0.678266169230684 12.996011052938542 21036.539939884806 13.589853905248972 0.25076321780290606
0.7001508202390684 12.991066301220474 18180.249024932313 14.23544883832114 0.25431038617747304
0.7223816909589984 12.988007085673377 15735.401332274432 14.908847955271332 0.2579094154608675
0.7449655825162339 12.986658064190053 13640.164602263061 15.611103023749877 0.26156042670945023
0.767882612515222 12.986747412592612 11840.560650690422 16.343435582834566 0.26526487219754685
0.7911241802220813 12.988119643966147 10224.979949351433 17.107482112213795 0.26902765692896874
0.8146959338670479 12.990641914648112 8960.674759163814 17.904696864423077 0.272851211919829
0.8385734759511473 12.99411567509944 7810.756544558168 18.736470834670246 0.27673685191095504
0.8627513183640828 12.998384694474936 6817.929139432106 19.604096327647383 0.28068459555758546
0.8872217655527738 13.003326654122258 5958.594700366502 20.509682930984436 0.284701026693592
0.9119793174538091 13.008827175404535 5213.910005549585 21.45502370985157 0.2887891565560667
0.9369948876657921 13.014715590371067 4567.590798668831 22.441635328686164 0.2929491725925022
0.962270078913194 13.020911555643192 4006.906188569 23.471476810299222 0.29718434669758015
0.9877916935079134 13.027312994508174 3518.451477020243 24.547000692471016 0.3015010339226213
1.0135317810955486 13.033755057022507 3093.8627564485114 25.670187438763893 0.3059011540881167
1.0394892690282882 13.04021965283959 2722.988967458901 26.84292011186688 0.31038539344958777
1.0656408486268292 13.04654932450894 2399.467677153481 28.0683309501946 0.3149627637056574
1.0919660768258959 13.052676521727621 2116.894731132105 29.348518828502783 0.3196340177637575
1.1184604273812635 13.058511278546922 1869.6816076391406 30.686149077424037 0.3244032272613945
1.1450871903183444 13.063963836716548 1653.071824807107 32.084713208972644 0.3292790740832913
1.1718470430914993 13.068980898772931 1463.0364854764405 33.54605046709108 0.3342585992053856
1.198699199696177 13.073440092221041 1296.2253796469263 35.0747490318152 0.3393556847364667
1.225641890686308 13.077314245876869 1149.7293261327163 36.672889682672455 0.34456744900126757
1.2526333231130353 13.080478214553661 1020.7678497090951 38.34541448141762 0.34990766819906954
1.2796729445059265 13.08292701400808 907.3187183483864 40.0946559352206 0.3553734870935383
1.3067141822001094 13.084512948593964 807.2635766931684 41.92605144339633 0.360979269786681
1.3337482648530896 13.08522760225249 716.0434691696706 43.842994123626774 0.36672645814561605
1.3607523761267095 13.085038272585907 641.0473637063969 45.85032016509728 0.37262363710798596
1.3876820748920577 13.08378489437478 572.1899729807627 47.95328458554214 0.37868034154890223
1.4145361818414948 13.081502821306296 511.16592734727107 50.15655008100509 0.3849017571881249
1.4412573045820092 13.078059254322795 457.1693880183152 52.46550762787947 0.3912957564426532
1.467851018660253 13.073467688630632 409.3034240390856 54.8864818787536 0.39787357041587484
1.4942575100196376 13.06761080763802 366.7807346125209 57.42565693774319 0.4046442504649888
1.520468076072116 13.060474890597618 329.0633104450514 60.08965450205299 0.41161755724085125
1.5464504041672016 13.051998981261795 295.5038504250634 62.88557324972015 0.4188040190760738
1.572164881238506 13.042130865382372 265.6467958523815 65.82103199768454 0.4262149951381087
1.5975875447631152 13.030815034333571 239.08601847553007 68.904217012826 0.433862743905052
1.6226696120648185 13.017978784395373 215.38854428674927 72.14393390617171 0.4417604975901928
1.6474269831568655 13.003678969309641 194.24266562229292 75.54966459440232 0.44992254321698605
1.671775431593603 12.987761932242966 175.35042487493467 79.13146084334443 0.45836360521530617
1.695715044093775 12.97022521546868 158.47831344062647 82.89926002467877 0.4670959122927907
1.7191775293612475 12.950987428877955 143.392437844112 86.8659060238103 0.4761415005790843
1.7421827122787283 12.930106965523555 129.8801923932388 91.04311051220317 0.4855152746613432
1.764663960127511 12.907472377832923 117.76591770211779 95.44466044369715 0.49523798160004195
1.78659335005862 12.883054649741025 106.89992617556007 100.08450894885296 0.5053283008973305
1.8079326103169855 12.856816641607535 97.15547743679684 104.97901679721335 0.5158113230915773
1.8286463880709065 12.828701495912577 88.39761220882184 110.14464436196072 0.5267093269858933
1.8487285104955293 12.798753788676041 80.52439940833274 115.59902008775063 0.5380457316429683
1.8681186444444586 12.766869133317924 73.43493823290072 121.36247833009527 0.5498503786275751
1.8867934829937645 12.733039363642206 67.05901698438544 127.45631464301019 0.5621526493292999
1.904720298516344 12.69724423851055 61.30168070092935 133.90312913047714 0.5749824609278803
1.92186968030707 12.659452162597596 56.11673398890772 140.72819998947205 0.5883747368118211
1.938186035510816 12.619584661042461 51.431076470237244 147.95936165484903 0.6023683753394499
1.9536905703633816 12.577774863693149 47.20112991436759 155.62530002508072 0.6169998533688063
1.9683119857085123 12.53386582706698 43.370309296510804 163.75935598397143 0.6323157955423767
1.9820374922929545 12.487894415761223 39.90861334042398 172.39519586398478 0.6483574977597178
1.9948322240161316 12.439840695501495 36.771038511207145 181.57234704428308 0.665179026751033
2.0066716437569334 12.389693437136453 33.92867745767614 191.3325907755356 0.6828341631381075
2.0175325220966673 12.337462424746816 31.3501645325384 201.721900287707 0.7013820606638907
2.0261025491770535 12.28531729828616 29.18931607752349 213.18768593218425 1.0522105106305009
2.0285072182532002 12.2340370384707 27.75985278300506 226.86465220803115 1.5231485531264783
