M[M_sun], R[km], Lambda[1], P_c[MeV/fm^3], rho_c[fm^-3]
0.24162668629717493 15.618656898711224 2160425.4255784233 3.5677272577965504 0.1711233750220791
0.2536443218942758 15.27729221613203 1723135.5529236458 3.7848263088268137 0.17388825660059024
0.26604070797715573 14.981241234240002 1382951.5939715635 4.011415576992661 0.17666683142178927
0.27881595568253215 14.723487880197261 1116384.5014372787 4.247750946207888 0.179457777870855
0.29197154802177244 14.498391239616069 905869.4807453702 4.49445766602077 0.18226766337489395
0.30550638940499686 14.301209272367531 738606.6145307164 4.751691263978778 0.18509219267857083
0.31942344101492054 14.128104735410881 605109.9248200848 5.020134186745265 0.18793798808762743
0.3337231601763236 13.975874939454684 497669.5695860951 5.300010232498203 0.19080166757320977
0.34840351938009295 13.842006398756201 410993.69704844 5.592048359723239 0.19368953465023464
0.3634664755996404 13.723961574590168 340628.9770836438 5.896415426434205 0.19659664449116102
0.37891986291825813 13.61999384650984 283300.0438246352 6.2139757070660515 0.19953068184856765
0.3947520854072717 13.52845046815025 236404.10305426485 6.544986492739605 0.20248782279121855
0.4109788215427874 13.447851173650236 197856.53197022164 6.890150466054771 0.20547178322621765
0.42758584584881043 13.377058431548107 166073.13662022664 7.250172647133488 0.20848563496600978
0.44458312901915115 13.314905476124268 139798.1229809031 7.625311924061833 0.21152492320225427
0.4619646301342469 13.260570791448481 117976.37046652661 8.016517493828012 0.21459581266741318
0.4797295716196025 13.21314284513702 99806.89924187784 8.424494336512593 0.21769994962235883
0.49788773229977557 13.171969220042987 84635.37138666741 8.849683313240268 0.22083480172836037
0.5164253964017839 13.136398884897622 71935.64135447842 9.292957762536766 0.2240037771087046
0.535345599867324 13.105830117817554 61273.268031152365 9.755202575063162 0.22720979537106728
0.5546527589238947 13.079809035267179 52302.03820630204 10.237227410416494 0.23045420756631962
0.5743357721237332 13.057843984428885 44323.75145319107 10.739503148313915 0.2337337063673937
0.5943933501004267 13.039525960421564 38324.59850445913 11.26327512439702 0.23705448757935957
0.6148294297310966 13.024504276850015 32899.918677540576 11.809480754555997 0.240418163035097
0.6356352717233883 13.012428150217158 28289.982728563475 12.379099141155374 0.24382636585926487
0.6568065957639873 13.003029776270058 24369.249635286353 12.97281904585652 0.24727704355238275
0.6783389916397126 12.995985381283171 21026.398278135148 13.591967821022783 0.2507749875195827
0.7002281184515935 12.991059369376307 18171.1826659685 14.237743027503901 0.25432283226575747
0.7224576225169191 12.988034046140317 15727.728105168077 14.91133447988058 0.2579225626537791
0.745049205274957 12.986649925879638 13632.90078262237 15.613770460768997 0.2615740608781111
0.7679720255176616 12.98676091756824 11835.344064129304 16.346320053341355 0.265279250559573
0.7912178103469854 12.988136883406332 10288.091536013239 17.110598091922178 0.26904280888313137
0.8147927642266266 12.9906694610884 8955.38794491743 17.908059788733585 0.2728671687552217
0.8386759667556072 12.994129616444813 7806.72308969036 18.740065788032847 0.27675336886157736
0.8628556787074717 12.998412065081228 6771.3849124933995 19.607970050902065 0.2807019745107998
0.8873379416130642 13.003357022131901 5954.980124509778 20.513854067128083 0.28471930525891836
0.9120945655576735 13.008845696250564 5210.709317606284 21.459512178461168 0.28880837487885086
0.9371153876032213 13.014743091425046 4564.827869551934 22.446422433045235 0.2929690554986459
0.9623993596640468 13.02094877604114 4004.1734073883867 23.4766226218897 0.29720524536741866
0.9879206880957893 13.027333550506015 3516.248588422265 24.55252943056987 0.3015229969744728
1.0136628298147887 13.033791718238644 3091.569285899893 25.676077703192178 0.3059238857529463
1.039628120283352 13.040248837189559 2721.1749660391647 26.84924390805263 0.3104092836128544
1.0657794011571808 13.046582833370811 2397.8794013973925 28.075117877564825 0.31498787150118207
1.092112730141305 13.052700330149321 2115.5951758932765 29.355744834052224 0.31966002694694545
1.1186102217579077 13.058542349485654 1868.4201037024673 30.693900426803808 0.32443057064860653
1.145241514834469 13.063998407367537 1651.8935947040238 32.09296460461976 0.329307425066005
1.1720053929719008 13.06900876167575 1461.8982015829606 33.5548986903203 0.33428841862995806
1.1988619193740977 13.07346337182121 1295.274322379968 35.08423584106143 0.3393870550427642
1.2258082060084265 13.077332532188665 1148.9336903800852 36.6829875494511 0.3446000231563793
1.2528038099758803 13.08050001868617 1020.0261842878004 38.35621830663221 0.3499418349509949
1.2798493846831747 13.082935676149779 906.6250012219753 40.10618004536303 0.3554091388403625
1.3068914005785142 13.084523136146565 806.6369067403866 41.93832219901854 0.36101636613993826
1.3339245213041628 13.085241823238967 718.4672628353758 43.8561490894437 0.3667655615072713
1.360937838567927 13.085031191367301 640.5352849833192 45.86433177887116 0.37266438097750654
1.387869438937987 13.083770230305236 571.7302406530115 47.96821269026913 0.3787228317538523
1.4147260409549418 13.08147981045266 510.7652573943605 50.17255835443642 0.38494661413442766
1.4414499128898581 13.078029015408786 456.81925541510327 52.482570659135305 0.3913426051335164
1.4680440789459357 13.073428879526226 408.955661394586 54.90467521477728 0.39792254360445045
1.4944537198569892 13.067563119410524 366.4886909746884 57.44506224457157 0.40469549116639975
1.5206656134793761 13.06041705204793 328.7940595154315 60.11036011264546 0.4116712195748665
1.5466496433813663 13.0519267760486 295.25213561036014 62.90767476644699 0.41886026919329206
1.5723655891683974 13.042047306172183 265.42910494045594 65.84463295556256 0.42627401223861244
1.5977901686294176 13.030718133640454 238.8888495879845 68.92942961032858 0.4339247213595446
1.6228768808867382 13.017894093070085 215.19914413117752 72.17087981127793 0.4418256441748214
1.6476289827381971 13.00355370684448 194.07338002723156 75.57847583450504 0.44999108447441255
1.6719782231095246 12.987620163963808 175.2025722400286 79.16213036297287 0.4584351568537172
1.695915745963181 12.970066637204207 158.34357493075802 82.93208702295047 0.46717134863921134
1.719395439615392 12.950854986808748 143.25761920828953 86.90105946809084 0.47622110583455607
1.7423787563036024 12.929917009443109 129.76244266364068 91.08060503549967 0.48559868617444
1.7648596682597357 12.90726516554009 117.66251337240591 95.48485720557701 0.49532618227110714
1.7867864421600717 12.88282711382462 106.8095167007791 100.12744294858618 0.5054209506061159
1.8081250194779777 12.856567828888473 97.07245418569327 105.02491064706439 0.5159087787779333
1.8288348602182687 12.828432181163718 88.31974367867116 110.19380323940068 0.5268122068454119
1.8489147099044965 12.798464281657544 80.45159044663558 115.65178489941373 0.5381547255361276
1.8682903367099262 12.766524599591797 73.37840176949058 121.41900743326093 0.5499654511660151
1.8869694889338282 12.732702584181851 67.0000184456772 127.51690909879227 0.5622742364311233
1.9048925963697003 12.696884664187042 61.2493207221093 133.9679459784587 0.5751104295112485
1.922033517292873 12.659067484707414 56.06764201791282 140.79781786292395 0.5885103789036445
1.9383479736534148 12.619177097547713 51.385839034528885 148.03419740964594 0.6025123256371127
1.953843181261499 12.577332255718986 47.15571541039191 155.70556505410104 0.6171519636334424
1.9684586551119885 12.533400242645557 43.333324800032834 163.84559105676882 0.6324769659187502
1.982173076947972 12.48739949442009 39.87423876233074 172.4880855418053 0.6485290083934662
1.9949634122483284 12.439322042405776 36.740356016005684 181.6722824481912 0.6653610604749345
2.006798341079582 12.389160688980901 33.897973291018246 191.4402207914766 0.6830276509085925
2.01764457181478 12.336884973940451 31.324371646264566 201.83794070739043 0.7015880209623853
2.0274800141697553 12.282499383848457 28.988806179906735 212.91535945058592 0.721104727557718
2.036290097733037 12.226031582889668 26.865847400064325 224.7280457881774 0.7416483555851728
2.0440344916897115 12.167435234080955 24.93952003879276 237.33709393914634 0.7632957937771317
2.050693252005243 12.106727179756648 23.18511574062775 250.8094175385099 0.7861297738836149
2.0562655371332745 12.043979687054746 21.591005816489123 265.21819332236265 0.8102386837118228
2.06071181092394 11.97912863145415 20.139431068051472 280.64499454365534 0.8357216449671805
2.0640154969314843 11.9122324388535 18.81836440547028 297.17973649376864 0.8626862010760626
2.066176674873105 11.84332986559694 17.61686157249956 314.9227722406192 0.8912527245922541
2.067169524109059 11.772436480520568 16.521470281727137 333.9834613454792 0.9215468819227636
