M[M_sun], R[km], Lambda[1], P_c[MeV/fm^3], rho_c[fm^-3]
0.24162668629717493 15.618656898711224 2160425.4255784233 3.5677272577965504 0.1711233750220791
0.2536460432839718 15.277223522887208 1722992.21137196 3.784853344811909 0.17388859359110184
0.26604318500726104 14.981198187441846 1382851.743770974 4.011472412522952 0.17666751824563082
0.2788208409161687 14.723398718273287 1116352.614198574 4.247839504626113 0.17945880501505174
0.2919777537913141 14.498279684905635 905768.5302650718 4.4945802716927865 0.18226902861750716
0.3055147579732052 14.301117360051487 738581.806571931 4.751852080541933 0.18509392980437595
0.31943376468719165 14.128003590169275 604995.4319633183 5.020334399364245 0.18794006537082433
0.333735181545693 13.975761485653356 497581.9182469634 5.300255112930777 0.19080413311283567
0.34841805987113167 13.841883643413746 410917.46775409876 5.592338519938927 0.19369234203014174
0.36348301251442783 13.723847244721208 340557.32860608614 5.8967573861200835 0.19659985624889717
0.3789390702604099 13.61989360289645 283236.1490476446 6.214373605222086 0.1995343102006501
0.3947745262757512 13.528316547020628 236336.11109136412 6.5454399168066635 0.20249179870774073
0.4110027960140683 13.447757573391412 197807.43248267123 6.890668170443415 0.20547619221403757
0.4276130959058449 13.376945184930124 166019.02511309335 7.250759490873918 0.20849048977387918
0.44461186660678476 13.314818274295162 139750.8638912083 7.625966285695958 0.21153013234161505
0.4619947999753091 13.260459664209218 117930.05304351571 8.017250788409791 0.21460148529384646
0.47976464631642074 13.21305892501359 99770.43909271243 8.425312283303532 0.21770609943875804
0.49792580845599954 13.171887598228711 84610.75695804888 8.850582896769097 0.22084131509747157
0.5164686303146223 13.136311178821787 71912.24721103087 9.293953542737441 0.224010787463397
0.5353898624043234 13.10576696019038 61249.12799263875 9.756301304950977 0.22721731785747087
0.554699633708592 13.079740124290623 52278.85752915564 10.238429072062608 0.23046216565207042
0.5743867897811451 13.05778243103972 44708.0620596011 10.740816852204352 0.23374214075330485
0.5944473004373155 13.039470059370343 38311.02913205801 11.26471344807106 0.2370634742517033
0.6148884871326675 13.02446236647799 32886.803272584664 11.811052196697728 0.24042772002521207
0.6356965119664613 13.012400581626185 28277.972213148354 12.38081273073503 0.24383651215031943
0.6530788335754529 13.00160753221059 24968.188599582027 13.016486181402751 0.4561189540496736
0.6592712202599177 12.980488173546949 23636.68447611853 13.885338376034579 0.7212771545624743
0.6601671396539607 12.94678692778236 23010.636435713222 14.933943139759466 0.9395127085207007
