M[M_sun], R[km], Lambda[1], P_c[MeV/fm^3], rho_c[fm^-3]
0.24162668629717493 15.618656898711224 2160425.4255784233 3.5677272577965504 0.1711233750220791
0.2536413663330484 15.277379696508282 1723245.2179395147 3.7847885680095668 0.17388778617951
0.26603636770063677 14.981347079530746 1382967.4288318704 4.0113362385364955 0.17666587266336886
0.2788089455834751 14.723641612569834 1116547.1949416446 4.247627326251408 0.17945634406565114
0.29196208427200065 14.498519869739935 906005.541687144 4.494286520974296 0.18226575763508077
0.3054949917314857 14.30137531008466 738738.7550249073 4.751466783016882 0.185089767855754
0.3194093660728456 14.128277132611462 605210.7410274954 5.019854716596829 0.18793508847697185
0.3337052903663561 13.976071256644872 497773.5185548801 5.299668415893707 0.1907982260471788
0.34838352198868633 13.842122586668733 411093.47240451595 5.591643343553565 0.19368561600737694
0.36344290884041397 13.724132395402586 340732.23619294143 5.895938111952206 0.19659216145253558
0.3788946475471882 13.620131469639938 283372.10762380844 6.213420318583787 0.19952561737434066
0.39472401424215414 13.528587042942307 236479.05707594656 6.544353607213192 0.20248227324013837
0.41094504057003417 13.448027151036229 197930.65572649494 6.889427866355661 0.20546562926395284
0.42754905973980933 13.377201424937528 166132.4088231917 7.2493535530887145 0.20847885881089318
0.4445424625450909 13.315033916461731 139849.72111208655 7.624398599856982 0.21151765255431812
0.4619198052400481 13.260675413408858 116709.26556088074 8.015494009837992 0.21458789519129912
0.4796806277628004 13.213271256133226 98775.92552062261 8.423352712514358 0.2176913662058532
0.4978339148399873 13.172088153472851 84678.42192604662 8.848427758819295 0.22082571097789538
0.5163700256909259 13.136473383780917 71968.9015474245 9.29156796015092 0.22399399281326415
0.5352831878109204 13.105930672235983 61305.32264356951 9.753669102401261 0.2271992964055095
0.554585508495477 13.079900007814562 52323.99238815071 10.23554027266877 0.23044297188707433
0.5742635075717849 13.05790713601927 44751.783140508596 10.737669676209258 0.23372193490854323
0.5943182242031214 13.039592193158251 38347.16988447748 11.261267746975092 0.23704194544890125
0.6147503046742822 13.024543036164559 32641.969552322753 11.80728761437021 0.24040482508359381
0.6355468151212951 13.012482853114511 28308.94602131803 12.376707641053574 0.2438122056097057
0.6567148662893753 13.003048982299234 24384.809862599624 12.970240167907756 0.2472623037435463
0.6782419972671611 12.996012463497477 21040.248761571318 13.589164947178556 0.2507593818689529
0.7001255239615807 12.991068397008291 18182.764454120665 14.234701130742652 0.2543063298273679
0.722355206310847 12.98801325759474 15739.388281512995 14.908037567730219 0.2579051306364597
0.7449379682844145 12.986657332901881 13642.48691883603 15.610233678973875 0.2615559831956145
0.7678537392763295 12.98674513930759 11761.285749123397 16.342495510188606 0.26526018617118513
0.7910937617244841 12.98812747511764 10295.66415320521 17.10646659482421 0.26902271881178624
0.8146621842627705 12.990647410200463 8961.64429944045 17.903600872741407 0.27284601151766663
0.8385402936163604 12.994105986938932 7812.387886003037 18.73529922939495 0.2767314689909199
0.8627163180909857 12.998374635342396 6819.2380041751585 19.602833878024928 0.2806789317423148
0.8871863640452529 13.003333250607579 5959.710284781577 20.508323562410443 0.28469506972972736
0.9119420179314479 13.008808810528981 5214.949042749914 21.453560931811882 0.28878289336410223
0.936955918141173 13.014701827029379 4568.488968479476 22.440075233815882 0.29294269284659435
0.9622300387247769 13.02090860646424 4007.5870498706636 23.469799824648288 0.29717753596057067
0.9877499108988528 13.027293714210955 3519.3906009265615 24.54519892469653 0.30149387635459257
1.0134868990109165 13.033752195535868 3077.6834255882295 25.668267862242846 0.3058937460726324
1.0394453131385082 13.040202570968555 2723.5803068216796 26.840859264652025 0.3103776079399059
1.0655934892711834 13.046545301740716 2400.082627631271 28.066119188148754 0.31495458143610194
1.091918060356215 13.052668834856917 2117.4176155157747 29.346163989191993 0.3196255417881173
1.118411350066787 13.058501240415842 1870.111442721211 30.683623053162563 0.32439431654712986
1.145037724626112 13.063964586587646 1653.3752786173986 32.082024242686465 0.32926983505998453
1.171795051663247 13.06897444703062 1463.3615203779066 33.54316702537637 0.3342488817095118
1.1986451725721912 13.073435801361116 1296.5023110966804 35.07165750939727 0.33934546190994425
1.225588543971919 13.077305122494593 1149.9906178896372 36.669599049113714 0.3445568339267862
1.2525796788409052 13.080469370032738 1021.0663811051763 38.34188688623599 0.3498964935508599
1.2796165532077841 13.082917726697408 907.5197706724268 40.09090057219981 0.3553618692549377
1.3066568371746297 13.084517527921207 807.4769027969196 41.92205279353567 0.3609671812623594
1.3336886319505854 13.085230842190219 719.2022632277158 43.838707367971004 0.36671371569086036
1.3606937423606404 13.085039696545872 641.2067434692987 45.84575428372583 0.3726103601451859
1.3876204891638764 13.083788109725111 572.3292102142568 47.948420081677384 0.3786664956006071
1.414473895456352 13.081509131443429 511.296868381199 50.15133362957747 0.3848871401163599
1.4412030709986636 13.078088216639307 457.28998665313395 52.45994750775977 0.3912804904360015
1.4677860509141323 13.073482489318684 409.40811812735944 54.88055347754147 0.3978576122260115
1.4941927431822943 13.067623358432883 366.86789542804763 57.4193336497555 0.404627553500876
1.520403477741281 13.060492194268742 329.15978852367 60.08290754989509 0.41160007129429266
1.5463848143939973 13.05202184886878 295.5722939016193 62.878371488056345 0.41878569002007393
1.5721001239331993 13.042155185249523 265.72253689990316 65.8133416972267 0.426195764595121
1.5975225082905902 13.030845573707948 239.15317086102385 68.89600162231743 0.4338425488818564
1.6226093917769457 13.018045334234824 215.44567660830793 72.13515378986862 0.4417392700757511
1.6473612911790139 13.003719714408527 194.29305410740494 75.5402767422489 0.44990020973918937
1.6717106793590402 12.987805125348176 175.40731665261112 79.12146755243957 0.4583402909819558
1.6956487875528814 12.97027865635369 158.52216422685487 82.8885638283642 0.4670713324648122
1.7191140919729822 12.951051236606139 143.43640471295976 86.85445188006004 0.4761155625790359
1.7421180654281865 12.930170036992378 129.91566992875778 91.03089365259589 0.4854880966455814
1.7646030916802975 12.907551212174015 117.79414491891242 95.43156322164185 0.495209243370385
1.7865291147077522 12.883129466355923 106.92878454148419 100.07051996154775 0.5052981132696209
1.8078697584088919 12.856898040343621 97.18333444197192 104.96406352924286 0.5157795697956987
1.8285842163045258 12.828788606326237 88.41794047338504 110.1285844740803 0.5266756468566152
1.848669202850791 12.798849701484912 80.54560234351656 115.58182839720686 0.5380102195427012
1.8680592182310658 12.76696955308696 73.45446383215709 121.34406032209381 0.5498128863127312
1.8867360104156035 12.733150147676902 67.07565600979473 127.43656694976957 0.5621130158665355
1.904665091563165 12.697361366696034 61.32039124004334 133.88201120145354 0.5749407675789289
1.921813676435876 12.659578584461538 56.13173837852402 140.70551805106783 0.5883305437703044
1.9381416632860888 12.619749310002751 51.44557724319693 147.93497993016277 0.6023214758789494
1.9536360597255342 12.57790560049814 47.21091686573038 155.59914965531982 0.6169502958004204
1.9682644123370314 12.534016562692175 43.38204141500043 163.73119640276983 0.6322630685842713
1.9819922405152846 12.488053859222518 39.91906883195951 172.36493297380164 0.6483016206418707
1.9947914001636213 12.440009407596119 36.78178626906899 181.53978901983677 0.6651197218580616
2.00560335435 12.391240270102802 34.093292793664375 191.5474289786626 0.9111482170841049
2.011701798623235 12.341427751975761 32.07614361365069 203.01097293587677 1.2230526834760826
2.0131308641498045 12.287705505038401 30.551825674992987 216.06170302360675 1.5386254662097647
