M[M_sun], R[km], Lambda[1], P_c[MeV/fm^3], rho_c[fm^-3]
0.24162668629717493 15.618656898711224 2160425.4255784233 3.5677272577965504 0.1711233750220791
0.2536444473250984 15.277280111118289 1723190.1787120968 3.7848282461763114 0.1738882807487171
0.26604100631241867 14.981250495502731 1383008.6452511447 4.011419649704182 0.17666688063810446
0.27881678837070806 14.723473077166577 1116414.4004970144 4.2477572920842945 0.1794578514734583
0.2919711202052976 14.498379127089763 905835.9658008645 4.49446645159996 0.18226776120435725
0.30550741407288645 14.301206477153782 738633.1582437421 4.751702787591701 0.18509231715558355
0.31942414418129067 14.128114201510396 594859.6607140908 5.020148533295641 0.18793813693862485
0.3337230702427173 13.975890456997979 497665.85177866835 5.300027779714261 0.19080184424455937
0.34840456093636235 13.84199761030836 410988.22312627855 5.59206915143436 0.19368973581575932
0.36346778324711876 13.723958033938537 340651.20259873825 5.896439929781678 0.19659687463178596
0.3789223272688063 13.619998836560535 283291.4950784385 6.214004218600524 0.1995309418394319
0.39475487883244365 13.528415747162368 236403.71691585335 6.545018982877058 0.20248810768583198
0.41098031224927667 13.447863077865577 197857.95942122568 6.890187562049333 0.20547209915127407
0.4275898291611113 13.377017250405176 166073.69706162807 7.250214697119142 0.20848598283476458
0.44458475254568347 13.314901868110498 139795.65520022807 7.625358811833609 0.21152529645906634
0.4619669600916988 13.260549729074105 117976.07157226314 8.016570037264676 0.21459621913337534
0.47973254293760953 13.213145237825527 99803.90920970787 8.424552945375053 0.21770039027907084
0.49789012087793183 13.171990046309165 84637.57924204829 8.84974777144242 0.22083526843328483
0.5164290194558746 13.136388553231628 71932.42585963102 9.293029113270553 0.22400427942231865
0.5353479814878258 13.105831939078943 61269.43399007937 9.755281302146976 0.22721033437835575
0.55465630841407 13.079788595141679 52300.8546279212 10.237314027069432 0.23045478439943892
0.5743395875295134 13.057824985649058 44725.774615082024 10.739597278193768 0.23373431071038014
0.594396754442166 13.039513405672334 38322.21178617324 11.263378183162688 0.23705513149239243
0.6148347642726949 13.024513973572372 32897.43589234321 11.809593351082908 0.2404188478098438
0.6356399208458859 13.012424731955573 28288.84153469636 12.379221922307572 0.24382709285557774
0.6568111859382794 13.003021043484559 24368.64363279279 12.97295144779992 0.24727780030759725
0.6783437276505644 12.995976672517049 21025.778814760262 13.592111724009678 0.25077578873285983
0.7002328494463266 12.991063675670132 18170.72296674026 14.237899203187915 0.2543236795264654
0.7224648375530691 12.988023458615379 15727.695885051051 14.911503749498472 0.25792345764605557
0.7450564745828885 12.986649262698892 13631.941417999122 15.6139520466732 0.2615749890248027
0.7679777237902436 12.986761900460113 11834.930701495077 16.34651641474366 0.26528022937191437
0.7912242765078148 12.98813264206693 10218.916692107474 17.110810214410282 0.2690438403629603
0.8147997862857078 12.990669653113725 8955.1870514852 17.908288723242293 0.2728682550330959
0.838682667901951 12.994139454520692 7806.510166715134 18.740310519112928 0.27675449327426305
0.8628638193145872 12.998400785251366 6813.198469377433 19.608233760869165 0.280703157611109
0.8873472467691733 13.003364546640363 5954.72815710724 20.514138025330226 0.2847205496077886
0.9121021629033016 13.008860075330258 5210.471735940435 21.459817741173243 0.288809683209897
0.9371235673935917 13.014739491915632 4564.67983839578 22.446748327350246 0.2929704090780528
0.9624077915178255 13.020951240837059 4003.9953931874475 23.476972937822303 0.29720666810450996
0.9879284474798645 13.027337365713276 3516.0758624752157 24.552905817189053 0.30152449217983174
1.013671836609618 13.033793915770524 3091.6396639471536 25.676478703485007 0.30592543329030464
1.0396377319636851 13.040253945329153 2721.0666242936295 26.849674424692502 0.3104109100271969
1.0657886456573686 13.046586425189647 2397.82635793689 28.07557992597457 0.31498958081916373
1.0921217626505495 13.052708588650917 2115.2618171288113 29.356236776561005 0.3196617976379228
1.1186204702051614 13.058543245070952 1868.3306756808165 30.694428137155665 0.3244324321810675
1.145252904505712 13.064001507856968 1651.8582483524244 32.093526360378064 0.3293093552034599
1.1720165230185406 13.069010319664605 1461.8273396417862 33.555501081326184 0.334290448749757
1.1988738188614079 13.07346575329119 1295.1962740298793 35.084881710732866 0.33938919075867197
1.2258197086216387 13.077337691354163 1148.8825779824813 36.68367502340678 0.34460224084094165
1.252815027844823 13.080495938278403 1019.9321530021806 38.356950175036225 0.3499441395344374
1.2798610019810908 13.082939109036781 906.5781047862693 40.10696462734722 0.35541156607490965
1.3069034662894363 13.084526179881456 806.6066407704654 41.93915761776331 0.36101889173736906
1.3339412457696989 13.085238851566993 718.4629554165343 43.85704471216089 0.36676822376116874
1.3609510330781767 13.085033623269872 640.5150935088532 45.86528572880026 0.37266715493431607
1.3878818511470685 13.083769802904829 571.7131835683094 47.96922904234598 0.37872572461994863
1.4147390897304633 13.081480088877555 510.7336499452951 50.1736482542579 0.3849496681538369
1.441462991893917 13.078026278459642 456.7957857806008 52.4837323763845 0.3913457947738248
1.4680574450363528 13.073426388167363 408.93803453675474 54.90591389385 0.39792587790574263
1.4944671050053682 13.067558774601208 366.4566175399178 57.446383446588044 0.40469897986764153
1.520678374265471 13.060412370370278 328.7683018407087 60.11176985276324 0.41167487317130297
1.546663359635754 13.051924633303921 295.24175351415994 62.909179554896596 0.4188640989995323
1.5723799426724114 13.042039469520015 265.41989252766973 65.84623984282202 0.42627803045801604
1.597803720421229 13.030709658655757 238.8803826932919 68.93114623689976 0.43392894116058595
1.6228902940402612 13.01788661855738 215.18823133888145 72.17271446258977 0.4418300797752022
1.6476428056750048 13.003545962370376 194.06163464855186 75.58043750152831 0.4499957512337727
1.6719920854195276 12.98761176341826 175.1927136027383 79.16421856501034 0.45844002860518007
1.695929016702352 12.970056794831102 158.33567095867508 82.93432213563237 0.46717648492164465
1.7194098096406574 12.950841803871981 143.25972328156425 86.90345299827995 0.47622652600279514
1.74239060409017 12.929900885352277 129.75927900886657 91.08315797944393 0.4856043655350111
1.7648734324963686 12.907250295833073 117.65729090115278 95.48759415915711 0.49533218775839394
1.7868003586832881 12.88281168164009 106.8071085056342 100.13036629502149 0.5054272590608976
1.8081383611706174 12.856550948399551 97.06773507589327 105.02803554678468 0.5159154145090393
1.8288476871693795 12.828414165140277 88.31194939072013 110.19714622884769 0.5268191961470844
1.848926714968685 12.798444515590264 80.44573364189837 115.65537769057774 0.5381621470028956
1.8683025294391284 12.766502578427078 73.37238873602661 121.42285656346031 0.5499732865845522
1.886980986542221 12.732679979452671 66.99611997881038 127.52102154520284 0.5622824671670162
1.9049037288596622 12.69686164614698 61.24504086209551 133.97235948899493 0.5751191431514299
1.9220442854051416 12.659041294582288 56.06354071895258 140.80255832022283 0.5885196151171677
1.9383570438799171 12.619150284255893 51.381899817442445 148.03929320476715 0.60252212765256
1.9538526104998888 12.57730318742638 47.15511626083709 155.71103058373407 0.6171623213592042
1.968468397927168 12.533368844692346 43.33221379538784 163.85145944513053 0.6324879281169796
1.9821820840237618 12.48736551988215 39.87240653306475 172.49441082838126 0.6485406873435362
1.9949716484624953 12.439286155060303 36.73803573673951 181.67908756467398 0.6653734560889661
2.006805642856153 12.389123363716953 33.8963472688398 191.44754993403154 0.6830408265960634
2.01765205671055 12.336845736594011 31.322372108212075 201.8458426298386 0.7016020460952704
2.0274879379163457 12.28245805933561 28.987158968264097 212.9238680632564 0.7211196128665309
2.03629638021027 12.225988455809349 26.864946328994883 224.73723985511174 0.7416642477487485
2.0440397722562085 12.167389217306678 24.938002000185005 237.3470182558861 0.7633127156488363
2.050697721351748 12.10668021547996 23.18279854296751 250.8201438136982 0.7861478221192206
2.056269889395037 12.043929578267937 21.59035934902653 265.229823195803 0.810258036496909
2.060714138188736 11.979076768259807 20.138264589364674 280.6575722240968 0.8357422752905339
2.0640193207075908 11.912178791442726 18.818528963895837 297.1933824125902 0.8627083099096445
2.0661780564111556 11.843273504998757 17.615276501943363 314.9375959882253 0.8912764544965648
2.067169242786672 11.772380103462298 16.520893101716286 333.9995607029548 0.9215723095718887
