M[M_sun], R[km], Lambda[1], P_c[MeV/fm^3], rho_c[fm^-3]
0.24162668629717493 15.618656898711224 2160425.4255784233 3.5677272577965504 0.1711233750220791
0.2536447701341225 15.27727490708521 1723244.3393014334 3.784834352842294 0.17388835686536264
0.26604074838315883 14.981247932540617 1383037.508510827 4.011432487205354 0.17666703577172996
0.27881658323538877 14.723512936068088 1116406.987266837 4.247777294805858 0.17945808347488498
0.29197254194697697 14.498353033018708 905841.6696188165 4.494494144503569 0.18226806957126612
0.3055089853343659 14.301186847405246 738614.7237598489 4.75173911106613 0.1850927095184318
0.3194269371187543 14.128055939313933 605086.9304138011 5.02019375498687 0.1879386061311253
0.33372676607650975 13.975868205381154 497645.861232124 5.300083090285698 0.19080240113023691
0.34840784422201054 13.84196990260259 410970.9771397264 5.592134689062881 0.19369036991034405
0.36347297707211945 13.723893877203173 340637.11184948386 5.8965171669785965 0.19659760005988455
0.3789258925531239 13.61994822888158 283272.14156936895 6.214094090157971 0.19953176135982342
0.3947597160309521 13.528398835810936 236379.0952191777 6.545121395565057 0.20248900570675296
0.4109858360636639 13.447812834959585 197838.69917484754 6.890304493090045 0.20547309498508498
0.42759436286013985 13.377015208143625 166056.7239647388 7.250347243911991 0.208487079360413
0.4445909597103484 13.314883866193687 139782.88108284384 7.625506608106504 0.21152647301243127
0.46197428772089066 13.260527339072306 117963.2242656376 8.016735661134932 0.21459750036791292
0.4797402723975889 13.213118718042345 99796.87205117817 8.424737688510469 0.217701779289183
0.497898364350938 13.171954190528114 84629.78590279081 8.849950952726926 0.22083673955259733
0.5164386574410619 13.13636656004218 71925.96006402861 9.293254021068645 0.22400586278723858
0.5353587406269981 13.105811732298697 61265.2366439836 9.755529461580567 0.22721203340919655
0.5546663397693388 13.079780996765633 52294.97648469763 10.237587055941669 0.23045660266521908
0.5743510694916775 13.057814928000221 44722.23229976782 10.73989399022519 0.23373621569353176
0.5944094485487432 13.039499728076468 38320.683454358295 11.263703040841824 0.2370571612090504
0.6148483526446072 13.024495945273848 32895.198924500306 11.809948273755493 0.2404210063318685
0.635653637723072 13.012417392681847 28285.855167433507 12.379608949072649 0.24382938446977231
0.6568260338093929 13.003008234899704 24365.392778500413 12.973368801353402 0.24728018572936508
0.6783589856415491 12.995977524738253 21023.296702859097 13.592565331386732 0.2507783142972066
0.7002494334689282 12.991045034273965 18168.58956817138 14.238391496870188 0.25432635024371814
0.7224855598296811 12.98800370644211 15725.482130491033 14.912037318272354 0.25792627882529334
0.7450746102778101 12.986639157103454 13630.86445504097 15.614524439228033 0.26157791471586
0.7679964964201432 12.986752853832444 11833.529770836332 16.347135383195653 0.2652833147744049
0.791244494596336 12.98814672659384 10286.816658857417 17.111478865642827 0.2690470917874799
0.8148204650613354 12.990671722284901 8954.086706016351 17.90901037013839 0.2728716791960177
0.8387032540439056 12.994147424788267 7805.604655550018 18.741081960727342 0.27675803764932666
0.8628856641361045 12.998411772988465 6812.186492752939 19.60906502881245 0.28070688698611723
0.8873700316132735 13.003358902719741 5953.823477357526 20.51503312101107 0.2847244720558488
0.9121265190838163 13.008861580720904 5209.804058131581 21.460780940029704 0.2888138073484705
0.9371494811139113 13.014746927007396 4564.107972753773 22.447775616797294 0.2929746758535659
0.9624343850558438 13.020957585005196 4003.5053843862183 23.478077210964784 0.2972111528858531
0.9879573876421659 13.02734788996404 3496.3669352376155 24.554092272444112 0.30152920540332334
1.0137006172504306 13.033804521003088 3091.0784476360354 25.677742747913644 0.305930311481196
1.0396660746747337 13.040262070941866 2720.5412114473197 26.851031513185255 0.3104160368631522
1.0658194644124506 13.046583843401306 2397.4919749944415 28.077036411885928 0.31499496899387847
1.092153519892863 13.05271741651151 2115.0329657972443 29.35778749743054 0.31966737928090566
1.1186529648747305 13.058551592596451 1867.8433121327894 30.69609160912298 0.3244383001862225
1.145286556833172 13.064011114590905 1651.5766056274704 32.09529715374859 0.32931543947506486
1.172050190134096 13.069014443773414 1461.5929496885503 33.557399969713956 0.3342968481994074
1.198908201082721 13.07347668439493 1295.0253591760795 35.08691765771351 0.33939592308339045
1.2258559890797966 13.077343581366517 1148.6885817785667 36.68584212026522 0.3446092315599476
1.252852182581424 13.080502993115621 1019.8050794945394 38.35925721744736 0.3499514041898219
1.2798969591221823 13.082942962583484 906.430703789351 40.109437840496824 0.3554192173701474
1.3069413312985767 13.084526335620458 806.5192287353065 41.94179108520991 0.3610268531084287
1.3339793798617574 13.085243607400926 718.3529482634867 43.85986796317438 0.3667766159232588
1.360989567799325 13.085029276463574 640.4094373712412 45.86829284709857 0.37267589922584143
1.3879221240249657 13.083770665423762 571.6172501577794 47.97243287382047 0.3787348437585443
1.4147718700090126 13.081462121235182 510.60824028075064 50.17708393459461 0.38495929530876016
1.441503746164523 13.078023186519118 456.72068208949645 52.48739445091139 0.3913558494584149
1.4680994752321141 13.073418585915157 408.8731865082641 54.90981857993927 0.3979363886184525
1.4945103344523434 13.067547909167347 366.40175626141775 57.45054827534471 0.40470997731017805
1.5207213585407628 13.060400366300625 328.7264057609814 60.116213786657035 0.4116863904295787
1.5467060884869235 13.05190672140435 295.187172367652 62.913923117133564 0.4188761717425553
1.5724223529716002 13.042022877933961 265.3713329367432 65.85130525976116 0.4262906971566363
1.5978350539452433 13.030684340841553 238.82485564182076 68.93655759498263 0.4339422433282539
1.6229338669691895 13.017860981400089 215.16112833579373 72.17849788142897 0.441844062233144
1.647686834737411 13.003519759581433 194.0236613033752 75.58662132500554 0.45001046240327885
1.6720352119877548 12.987579280385322 175.16641931412636 79.17080127754954 0.4584553859982229
1.6959719942321834 12.97002126147544 158.3075710801039 82.94136797138097 0.4671926762316741
1.719452307655936 12.95080520523393 143.22674152534753 86.91099823268364 0.47624361224639356
1.7424275602579482 12.92982788302906 129.73847895685984 91.09120575294939 0.4856222688687818
1.7649158980162478 12.907203842305893 117.63693933739341 95.49622201083821 0.4953511191914879
1.7868425427296435 12.882762947859877 106.78586412663331 100.13958173776523 0.5054471455865379
1.8081800369514152 12.856498633653448 97.04933622377563 105.03788637416805 0.5159363327616361
1.8288930784537634 12.828367365157833 88.29965589717592 110.2076845724949 0.5268412290203696
1.8489664564164856 12.798380307730485 80.4330738842244 115.66670352432597 0.5381855422671746
1.8683419441894205 12.766435402899575 73.35876731291327 121.43499049622146 0.5499979868250637
1.8870166918288485 12.73261053460698 66.98034862301986 127.53398557229661 0.5623084136408337
1.904940495319835 12.696784546200501 61.23336163199934 133.98627261354642 0.5751466119792814
1.9220784448072095 12.658960034078882 56.05100428018578 140.8175021391945 0.5885487313593716
1.9383913927977199 12.619062378157965 51.3731121581497 148.0553572233903 0.6025530275916163
1.9538862973686675 12.577209873912603 47.14710431215519 155.72826018814996 0.6171949731842801
1.9684996327586455 12.533270340448716 43.32526505334348 163.86995906249024 0.6325224855559501
1.982211755113685 12.487262797122538 39.864007992243494 172.51435082481711 0.6485775043667609
1.9949975411641496 12.439173585283296 36.73063863580901 181.70054023426715 0.6654125324240883
2.006831856197998 12.38900629077862 33.88966490238641 191.47065461069826 0.6830823621504061
2.0176762034065177 12.336721449621566 31.317103365096575 201.8707530166134 0.7016462595745887
2.027509488045919 12.282329756021147 28.980006959594345 212.95069106608418 0.7211665381052088
2.0363155555399555 12.225851008467785 26.85989197249086 224.76622379094005 0.7417143471718374
2.044056792507859 12.16724739635886 24.933271198067693 237.3783043487658 0.7633660613111856
2.0507127297582426 12.106529825952114 23.17923286942663 250.85395813751202 0.786204718746645
2.0562823853724237 12.043772233423741 21.58689654004397 265.2664861907514 0.8103190458505782
2.060725588640337 11.978912636580368 20.136677248578525 280.6972232637933 0.8358073122243349
2.064026048372504 11.912008457241274 18.815604395387005 297.23640118370196 0.862778008026997
2.0661829851106845 11.843094907041417 17.61290566134526 314.98432799910057 0.8913512632544969
2.0671695553190714 11.77219364429432 16.517997207405497 334.05031422941875 0.9216524707127755
