M[M_sun], R[km], Lambda[1], P_c[MeV/fm^3], rho_c[fm^-3]
0.24162668629717493 15.618656898711224 2160425.4255784233 3.5677272577965504 0.1711233750220791
0.25364454579241924 15.277257565697932 1723175.2876211912 3.784829148429648 0.1738882919948697
0.2660403064823658 14.981267846643824 1382987.6958312592 4.0114215464293395 0.1766669035589086
0.27881698500731633 14.723466873374855 1116394.8045451692 4.247760247459251 0.17945788575135416
0.2919711597523222 14.498386418298857 905865.8755829041 4.494470543185119 0.18226780676510762
0.30550733557391474 14.301181712092724 738612.9394011323 4.751708154325817 0.18509237512655458
0.3194246848692219 14.128106829493184 605061.7910707651 5.0201552147209 0.1879382062609907
0.33372249225466033 13.975934654563677 497666.316345128 5.300035951746391 0.19080192652336309
0.34840504601608707 13.841993517105424 410985.6742033082 5.592078834486588 0.19368982950195335
0.36346769062359174 13.723960934838882 340653.4965911566 5.896451341411384 0.19659698181222712
0.37892284997742515 13.619960805487914 283286.29193108424 6.2140174969181405 0.19953106292170045
0.3947551703756911 13.528416104261119 236388.48665100578 6.545034114105939 0.20248824036626797
0.4109810283480906 13.447836562540763 197852.55280356095 6.890204838315063 0.20547224628320274
0.4275909950473885 13.377005841634812 166067.7970586005 7.250234280555977 0.2084861448435187
0.4445857314959106 13.314900409078536 139788.73713830355 7.6253806483238975 0.21152547029156987
0.4619680709583237 13.260566096553834 117973.39865777903 8.016594507712464 0.21459640843207248
0.4797343248528585 13.213120803773421 99810.72862325356 8.424580240616036 0.217700595501125
0.4978910876617039 13.171964862826862 84636.49035142297 8.849777790842147 0.22083548578656514
0.5164303041076189 13.136393768615681 71931.02847391221 9.293062342667218 0.2240045133593428
0.5353494859029626 13.105832016442426 61270.357497320845 9.755317966866961 0.22721058540443653
0.5546579336086094 13.07978833193214 52301.53842847925 10.237354366131925 0.2304550530418588
0.5743413006482126 13.057829654213887 44725.34289689725 10.739641116329313 0.2337345921647897
0.5943990914473133 13.039505140454475 38320.72177235509 11.263426179677266 0.23705543137548407
0.6148376401530359 13.024483602952353 32897.81684069173 11.809645789545751 0.24041916672318953
0.6356418832059004 13.012441027231334 28288.742874071544 12.379279103980252 0.24382743143250474
0.6568134374883325 13.003007553731274 24368.1522437272 12.973013110093277 0.24727815274398027
0.6783459947299265 12.995986768406533 21025.243226159277 13.5921787426039 0.25077616187443713
0.7002351752773243 12.991063101509123 18170.00155343586 14.237971937462977 0.2543240741134574
0.7224706614166454 12.988002741559587 15727.655879309288 14.911582581926769 0.2579238744628201
0.7450595050811747 12.98663838072035 13632.256747067566 15.61403661508665 0.2615754212824358
0.7679804488940108 12.986761147045376 11834.463062305114 16.346607864461067 0.26528068522581927
0.7912268418155334 12.988135472530189 10287.49060310119 17.11090900444741 0.26904432074545775
0.8148010632322709 12.99067536328819 8955.092838275708 17.908395343049197 0.272868760936456
0.8386851735417148 12.994137905886278 7806.511772383267 18.740424495770117 0.27675501693802973
0.8628673970621394 12.998410477576012 6813.221153752157 19.608356576467493 0.280703708607243
0.8873500453024278 13.003353727186505 5954.452655326721 20.51427027104182 0.28472112912900177
0.9121056532303934 13.008856651220231 5210.2947375748945 21.45996004865481 0.28881029252932267
0.9371269987159788 13.01474710981484 4564.561652136212 22.4469001037715 0.2929710394708983
0.9624117545827892 13.020952522164825 3981.475956048655 23.477136088028075 0.2972073307059723
0.9879332640316629 13.027341496080872 3516.016923103268 24.553081109195745 0.3015251885317593
1.0136767284789323 13.033801370263342 3091.5746892481297 25.676665458722056 0.30592615401473144
1.039641397780129 13.040256753765666 2720.9583302545007 26.849874926478382 0.3104116674868397
1.065793336664688 13.046582391315848 2397.7394339785187 28.07579511295353 0.3149903768893694
1.092126207044443 13.052708266980744 2115.32266800038 29.356465886023773 0.31966262229131487
1.1186252823183465 13.058544917529778 1868.306471933367 30.69467390468198 0.3244332991419419
1.1452567074607105 13.064002935104313 1651.7723300741982 32.09378798377932 0.3293102541156977
1.172021334302168 13.069014606246649 1461.7959135247231 33.55578162969447 0.3342913942266839
1.1988786274558445 13.073474850637947 1295.1224332656457 35.085182508339386 0.3393901854148103
1.225824956515804 13.077338790848806 1148.846567649219 36.683995197295644 0.3446032736723453
1.2528213063298366 13.08050147084426 1019.987409438262 38.35729102467536 0.34994521283727503
1.279865279460071 13.082941484512029 906.5312633014421 40.1073300272236 0.35541269650005497
1.3069087950578633 13.084522295800022 806.5863879908528 41.93954669378335 0.3610200679731224
1.333947507915042 13.085237986597738 718.4606457148451 43.85746182694263 0.36676946364201596
1.3609555959271291 13.085035495669482 640.4823624394007 45.865730008276245 0.3726684468386814
1.387888211793142 13.083770699773309 571.691392896639 47.96970238434926 0.37872707190408805
1.4147445333378708 13.081478023959487 510.71722393521935 50.174155849670036 0.3849510904921199
1.4414690001971993 13.078027444710854 456.7847287730801 52.484273419339765 0.3913472802750687
1.4680632981587598 13.073424824638911 408.9290900841467 54.906490780269635 0.39792743078023357
1.4944733565934856 13.06755803367608 366.45588242358406 57.446998766477904 0.4047006046511622
1.5206853455945937 13.060408618052199 328.7643480279553 60.11242640759198 0.4116765747518655
1.5466695288412255 13.051920472729751 295.2240442993708 62.90988037670808 0.41886588264676033
1.5723856238020288 13.042038450726245 265.40639623395407 65.84698821527483 0.4262799018554606
1.5978102126008396 13.030706427928683 238.8755877873078 68.93194571845059 0.4339309064412925
1.6228974537543779 13.017880684609363 215.18763045087465 72.1735689120641 0.44183214556088546
1.6476490086080082 13.003541621793799 194.05557855061184 75.58135110635115 0.4499979246779954
1.6719981896065779 12.987605608756478 175.19230271666507 79.16519110129383 0.4584422975212029
1.6959351987040594 12.970051683632677 158.33329242985843 82.93536309307265 0.46717887703881067
1.7194157928703075 12.950837117773734 143.2491073938358 86.90456773605884 0.4762290503354029
1.742394677968869 12.929886325059856 129.76258544324585 91.08434696153999 0.48560701058252626
1.764879587112289 12.907242978867878 117.65467309010707 95.48886884082644 0.495334984694599
1.7868059170859893 12.882803858219347 106.8027805278789 100.13172778620785 0.5054301970998111
1.8081439133501789 12.856544183459853 97.06261661183287 105.0294909082874 0.515918504972241
1.828853676765568 12.828405157679752 88.31264611814069 110.19870316233538 0.5268224512808508
1.8489332359493957 12.798433569219728 80.44717806575044 115.65705096561062 0.5381656034117106
1.8683094602682762 12.766492689868278 73.37101582802455 121.42464922471397 0.5499769357859277
1.88698637661326 12.73266941004628 66.99309711663783 127.52293684219897 0.5622863004823128
1.9049092755443464 12.696850278253766 61.24277941939363 133.9744150025045 0.5751232013733291
1.9220496153562965 12.659029455161791 56.06221709838349 140.80476610486534 0.5885239167212293
1.93836242497345 12.619137000683407 51.38026036691888 148.04166648345287 0.6025266927721898
1.953858061201057 12.577289805034397 47.15469212381699 155.71357606157295 0.6171671452945149
1.968473999711486 12.533357611691303 43.33147037915761 163.8541925494762 0.6324930335786111
1.9821866155219077 12.487349591903916 39.870835364415036 172.4973567278016 0.6485461266247179
1.9949753619666502 12.439270381626462 36.73815522156887 181.68225693942142 0.6653792291490145
2.0068103078568384 12.389105657934193 33.89587116203328 191.4509633682098 0.6830469629676237
2.017655376819631 12.336827605840467 31.32196348234415 201.84952283028088 0.7016085780880336
2.0274902882888357 12.282438414855424 28.985736830811383 212.92783082346855 0.7211265454784377
2.0362991627788203 12.22596803036967 26.864311219237162 224.74152185916438 0.7416716492946935
2.0440418389914377 12.167368667421846 24.937184998390187 237.35164036706632 0.7633205967729929
2.0506996529773134 12.106657372436 23.183037020895675 250.8251394300648 0.7861562278387828
2.0562713962458057 12.043906585731042 21.59021799305487 265.23523965591676 0.810267049801228
2.0607149069349995 11.97905359110744 20.137629099444744 280.6634301179235 0.8357518835998226
2.064020244311252 11.912153660068736 18.817763515053283 297.19973783094855 0.862718606826156
2.066178833354344 11.843246896101457 17.615106645124275 314.944499972771 0.8912875064179131
2.067169539288781 11.77234953043415 16.520696678841244 334.00705879511065 0.9215841522095055
