M[M_sun], R[km], Lambda[1], P_c[MeV/fm^3], rho_c[fm^-3]
0.24162668629717493 15.618656898711224 2160425.4255784233 3.5677272577965504 0.1711233750220791
0.25364461662657706 15.27727880343359 1723089.579992776 3.784850216590749 0.1738885545993342
0.26604298209253413 14.981210228270047 1353312.9971205674 4.011465836291144 0.17666743877575042
0.2788198693796349 14.72343433778375 1116355.9389481575 4.2478292578103485 0.1794586861674305
0.29197745519187984 14.49827840876789 905818.9630211166 4.494566085316638 0.18226887064891625
0.30551427514480983 14.301102505176736 738584.6886913256 4.751833472805621 0.18509372880531036
0.3194324918128256 14.128019158981676 605012.1842693997 5.020311233101919 0.18793982501191134
0.33373411379214096 13.975769462158771 497575.24894080276 5.300226778113385 0.1908038478282405
0.34841638401172764 13.84189773288148 410926.2036166564 5.592304945722299 0.19369201719035992
0.36348224132781426 13.723835255019837 340599.84358726616 5.896717818065121 0.1965994846173515
0.37893693112726035 13.61989153647062 283232.948048473 6.214327564356949 0.19953389036339686
0.3947724073002047 13.528315666206506 236352.34767988604 6.545387450834849 0.20249133865204597
0.41099994203238327 13.447751405975493 197809.19183820908 6.8906082663193455 0.2054756820453792
0.4276100819723242 13.376956155431921 166030.46162373992 7.250691586294441 0.2084899280166956
0.4446095855149141 13.314804662337972 138135.55709273898 7.625890568251337 0.21152952958206972
0.4619908838715913 13.26046454202117 117940.57372513272 8.017165937152877 0.21460082890077492
0.4797610161681496 13.213087155315842 99777.63535447871 8.425217636373285 0.2177053878261566
0.49792095397337227 13.171900194792764 84609.9874032081 8.850478803068679 0.2208405614146047
0.5164637729588737 13.136321030371949 71913.62697079928 9.293838317372277 0.22400997626964278
0.5353839129774302 13.105783703244523 61253.969449569646 9.756174166418791 0.2272164473997812
0.5546947984533428 13.079762618418847 52282.23916085622 10.238290551809136 0.23046125159340852
0.5743808320406704 13.05778714591897 44710.02969337764 10.74066483708093 0.23374116476912407
0.594441332036317 13.03947190478973 37978.012638112625 11.26454701195657 0.2370624343558481
0.6148818573495268 13.02446424086857 32888.13605923218 11.81087035605294 0.24042661413069732
0.6356897480284696 13.012401620736437 28278.885637978565 12.380614440646832 0.2438353380599935
0.6568638986695108 13.00298893489436 24359.403812200213 12.974453084752513 0.24728638304864306
0.6783994576223465 12.995971316128529 21017.194652256614 13.593743806157931 0.2507848757290003
0.7002915962142717 12.99105281599327 18163.33830521798 14.239670483286915 0.2543332888074498
0.7225304767036697 12.988001531442544 15720.806534582509 14.91342354275931 0.25793360831669715
0.7451220090557146 12.98665047419474 13626.908914289997 15.616011533054753 0.26158551575307387
0.76804671852482 12.98676377160253 11829.646035139316 16.3487434881875 0.2652913307744626
0.7912957739300824 12.988148233734062 10284.361480722884 17.11321605448513 0.26905553914855845
0.8148729886349219 12.990675626829855 8951.087642383924 17.910885250806484 0.2728805753707274
0.838761240275759 12.994149937801101 7803.200595468649 18.743086216636364 0.27676724616819876
0.8629453746947274 12.998430261605483 6810.240498358557 19.61122472495155 0.28071657618064433
0.8874314553439674 13.003390372773554 5952.028112970849 20.517358654497794 0.28473466290416727
0.9121910808333348 13.008876804298716 5208.069433850824 21.463283420059188 0.2888245222432711
0.9372159984800846 13.014765769396814 4562.824435037945 22.4504446177363 0.29298576136396787
0.9625036560831729 13.02097430025624 4002.0510677613024 23.48094623344458 0.2972228048386132
0.9880271217100465 13.027364320993588 3514.3081282404587 24.557174824072934 0.30154145091758866
1.0137750822786058 13.033819243417772 3090.179039149143 25.681026894938604 0.3059429856370563
1.0397433818196637 13.040283481579214 2719.67117845669 26.854557413228473 0.3104293570786083
1.0658983671417668 13.046607799796728 2396.726136492998 28.080820573768666 0.3150089682541624
1.0922349647824035 13.052737806118328 2114.355454906809 29.361816507372353 0.3196818812428715
1.1187369379094796 13.058571637523023 1867.1058796827106 30.700413579773944 0.32445354621775047
1.1453725432561837 13.064019715428644 1643.0206063729477 32.0998979767928 0.3293312474498819
1.1721394078496026 13.069029600937316 1461.1186827758806 33.56233362422881 0.33431347512380355
1.198998942779341 13.073485739032154 1294.4740822831964 35.09220743555732 0.33941341494465793
1.225948767296001 13.07735620688643 1148.2093764789797 36.6914726681702 0.344627394835899
1.2529481798286615 13.080515565229005 1019.4194575284691 38.365251390811835 0.34997027926710594
1.2799940323550585 13.082948175477142 906.0262154777392 40.11586378548732 0.35543909709717847
1.307047362495088 13.084549705590351 806.1742937070806 41.94863342819497 0.36104753854788296
1.3340812314742374 13.085238130064468 718.0099178984251 43.86720343685154 0.3667984207446549
1.3610925457821446 13.085027681396609 640.1209221991193 45.87610607805898 0.3726986190401271
1.3880334061917503 13.083777302903549 571.3210646014338 47.98075724273121 0.378758537599629
1.4148784611920828 13.081448977670005 510.425362745833 50.1860107441733 0.3849843092129544
1.4416115840319979 13.078003370955024 456.513016644489 52.49690952696644 0.3913819742922712
1.4682072004798008 13.073396930693498 408.68192304573057 54.91996406479703 0.39796369843906393
1.4946189383376327 13.067522101158977 366.23220585984814 57.461369725437926 0.4047385519005189
1.5208321614795937 13.060364744637702 328.5834416201784 60.127760478251766 0.4117163157688176
1.5468170057962647 13.05186747646315 295.0493769458565 62.92624838256759 0.41890754052298695
1.5725352935412842 13.041974889685303 265.24841203948677 65.86446685759056 0.42632360935223035
1.597948812797908 13.030629877171702 238.72010564057766 68.95061811785102 0.433976806820418
1.6230574945817409 13.017812103663724 215.048500475346 72.19352520593738 0.4418803934999531
1.6477997814557679 13.003448215520052 193.9240305825679 75.60268910839622 0.4500486872791859
1.6721476539464726 12.987501858446022 175.09108002688848 79.18790557996778 0.45849529014007867
1.6960844266767805 12.96993821339969 158.22724320741838 82.95967572037617 0.46723474738554427
1.7195645485246294 12.950707876440022 143.15789228554493 86.93060369907 0.47628800898168566
1.7425429468816067 12.929757123334875 129.66817297471437 91.1121170963304 0.48566878891061577
1.7650252890221838 12.907089407504676 117.57345729424229 95.51864073894535 0.4954003108868137
1.7869366302560632 12.882605429374967 106.72647056062456 100.16352737312056 0.5054988192287827
1.8082865352119895 12.856360207300417 97.00264526064642 105.06348312204891 0.515990687509414
1.8289894931547632 12.828201331036524 88.25836950114433 110.23506791283636 0.5268984803008424
1.849070343711294 12.798219729080879 80.398346540896 115.69613327565214 0.538246333977988
1.8684415910507677 12.766261186818097 73.32305992193434 121.46652021581824 0.5500621697798095
1.887118141851887 12.732418290999398 66.95039628218925 127.56767241862443 0.5623758351966449
1.9050360458301758 12.696582718571808 61.203898216041374 134.0224258646245 0.5752179897223944
1.9221722397704872 12.658744564058695 56.02587320478091 140.85633385800938 0.5886243903145792
1.938481122292254 12.618841864050497 51.34891481163951 148.09710002775685 0.6026333219526494
1.9539705986445175 12.576966383378387 47.12339767175222 155.77303202887492 0.6172798203041783
1.968579772297148 12.53301120163042 43.30326474699236 163.91803134009695 0.632612284970028
1.982289754514808 12.48698875792176 39.845559811102355 172.56616632352987 0.6486731760197446
1.9950696205070808 12.438884532593208 36.71376317820896 181.7562868411114 0.6655140756414255
2.0068998817545647 12.388699802870391 33.87511247384658 191.53069445712723 0.683190296502401
2.0177387755038705 12.336400009765168 31.302348037038364 201.93548558353103 0.7017611534955263
2.027569073249417 12.28199203755864 28.968471345382277 213.0203941998376 0.7212884795675044
2.036367358429882 12.225496806133547 26.847998469580492 224.8415428967492 0.741844538039322
2.0441020710221784 12.16687621769763 24.92213027182935 237.45960647431153 0.7635046889037815
2.050751356517106 12.106140903604558 23.169162164706364 250.9418308775652 0.7863525750982637
2.056313813868684 12.043364362506926 21.575947629354662 265.36159062562416 0.8104770312967536
2.0607490217649267 11.978487803218771 20.125538155551265 280.80026524226054 0.8359763250518316
2.0640432403373605 11.91156240408515 18.80641103605819 297.34819579490625 0.862959135328631
2.0661896963093045 11.84262946196382 17.606232614863888 315.1057733034456 0.8915456733003002
2.067175989484108 11.771717565668121 16.51168551533117 334.1822115038381 0.9218607919218409
