M[M_sun], R[km], Lambda[1], P_c[MeV/fm^3], rho_c[fm^-3]
0.24162668629717493 15.618656898711224 2160425.4255784233 3.5677272577965504 0.1711233750220791
0.25364377506660885 15.277268429171265 1723281.613263245 3.7848154150023268 0.17388812081432334
0.266039523702556 14.98128580579576 1382973.7184394987 4.01139267596324 0.17666655467636397
0.27881412296995484 14.723537864112071 1116425.9109658978 4.247715263158868 0.1794573640012596
0.2919676509040234 14.498487446233398 905942.5601853504 4.494408264563383 0.18226711327820047
0.30550460448999645 14.30119869181423 738653.4831856823 4.7516264666611265 0.18509149274387265
0.3194198806285948 14.128155476579078 605114.0220731079 5.020053516215004 0.18793715109974002
0.3337175601452927 13.976004713344997 497703.4374136141 5.299911564873008 0.19080067415394325
0.3483976577188414 13.842054876407987 411022.57269898866 5.591931448614819 0.19368840350309954
0.36345869827792443 13.72403885497983 340658.4681726882 5.896277645217856 0.19659535042081946
0.3789129213696022 13.620021589395549 283312.7158571106 6.213815388343139 0.19952921993485098
0.39474520352156955 13.528468565839137 236402.95371897487 6.544803802922556 0.20248622084832488
0.4109687850939648 13.447921047994479 197880.2223808491 6.889941878262635 0.20547000680504934
0.42757683136877866 13.377091865510055 166095.37499878256 7.249936203948227 0.2084836789321333
0.44457092838512946 13.314966100218061 139815.10946574478 7.62504827895135 0.21152282441765158
0.46195169552143217 13.260588251723515 117983.27218542714 8.016222048111372 0.21459352715593738
0.47971571310499245 13.213174077415749 99818.24708025112 8.424164786285056 0.21769747186535052
0.4978717015060238 13.172007703560512 84646.5990124566 8.849320873574278 0.22083217751032005
0.5164100013751763 13.1364228979856 71943.60001695386 9.292556567926813 0.22400095267363895
0.5353279898780796 13.105854015678306 61281.19603129624 9.754759905231175 0.2272067646190787
0.5546328520037127 13.079832497108155 52304.48565495625 10.236740379785607 0.23045096413230917
0.5743148753634393 13.057851598390444 44734.37178288767 10.738973873015734 0.23373030825603042
0.5943709121482671 13.039535783576408 38331.72556602807 11.262695644754881 0.23705086698006902
0.6148071365622853 13.024527875587323 32904.821073189174 11.808847647187564 0.24041431268598062
0.6356110288207705 13.012437835481148 28294.644370613867 12.378408769098167 0.24382227811508647
0.6567790965502779 13.003039218081213 24374.028059878525 12.972074579414446 0.2472727884874827
0.678310771380471 12.995981663345432 21030.398867769803 13.591158688410472 0.250770482485977
0.7001981863515495 12.99105522988778 18174.602435138066 14.236864890163536 0.2543180683278285
0.7224308083198432 12.988010280261122 15731.125624521415 14.910382720488846 0.2579175303431066
0.7450182933329522 12.986655213531167 13635.556623009343 15.612749451770455 0.2615688421573726
0.7679377269626673 12.98676159301435 11837.800845610544 16.345215967880986 0.2652737469704673
0.7911811783136763 12.988129407720846 10289.952188347232 17.109405388666172 0.2690370091710806
0.8147540809446912 12.990672505357418 8957.528596699052 17.906772558958163 0.2728610609419787
0.8386359415894545 12.994132720839959 7808.374861791917 18.7386897411656 0.27674704663820815
0.8628161237990609 12.998398781841368 6815.426198178427 19.6064872946548 0.28069532231864375
0.8872907160581641 13.00335005972674 5956.302285884864 20.51225746483071 0.2847123087000942
0.9120499940442897 13.008837902024583 5211.85982416055 21.457794104732884 0.28880101858467816
0.9370698709847255 13.014726178426082 4565.9011940131295 22.4445900448324 0.2929614448012134
0.9623465016674325 13.020928092971895 4004.93721347945 23.47465292360092 0.2971972458374135
0.9878709555803716 13.027322491011056 3517.117321520835 24.55041315077132 0.3015145899994784
1.0136121810461343 13.033784888479925 3092.311122223691 25.673823033816625 0.30591518454960126
1.0395746973882998 13.040233884277109 2721.8298962215217 26.84682328481458 0.3104001389341416
1.0657247523696132 13.046561100367924 2398.690800593088 28.072519969326276 0.3149782607089506
1.0920560758055555 13.05269256549011 2116.13116548894 29.352978848377667 0.3196500710968409
1.1185531484364695 13.058530126179813 1868.8970737464936 30.690933340062433 0.3244201040578639
1.1451826468856008 13.063988198041047 1652.371483725644 32.08980610089174 0.32929657275829566
1.1719453030575375 13.069001637747158 1462.3283902435053 33.55151172012803 0.3342770041911989
1.1988005028402073 13.073454075271046 1295.638560333454 35.08060441831178 0.33937504691221204
1.225745033757138 13.07732534998096 1149.2621518231213 36.67912221239173 0.3445875541773671
1.2527390294756948 13.080494752324093 1020.3507480798862 38.352095853699325 0.34992883332175556
1.2797802917417251 13.082936831732463 906.8445326560334 40.10176873484342 0.35539549171933843
1.3068229661876738 13.084524812779703 806.8958378852657 41.93362506794987 0.3610021660011054
1.3338596165831 13.08523945535799 718.7182688816322 43.85111347440111 0.3667505930551364
1.3608677893002006 13.085036029766432 640.7371878691907 45.858968231286006 0.3726487845097118
1.3877967737962162 13.08377800752534 571.9057512059229 47.962498300527095 0.37870656675600134
1.4146539302043641 13.08148980468453 510.90437347517724 50.16643046148318 0.3849294431030649
1.4413766272044721 13.078037262600542 456.9669839039488 52.4760389909642 0.39132467161992307
1.4679704213818672 13.073443705024212 409.09060384517466 54.897710849467046 0.3979037967855491
1.4943786827839374 13.067580890774419 366.60477619855953 57.43763391746672 0.4046758762901946
1.5205904365540381 13.06043899952187 328.8999756571274 60.10243400660245 0.41165067763779006
1.5465728422175768 13.051955415865423 295.3446383357843 62.8992142811513 0.41883873658557613
1.5722886846464026 13.042078949919514 265.51510120644247 65.83559845358445 0.4262514203542491
1.597712792999455 13.030755286129214 238.965932756277 68.91977813730429 0.4339009961670059
1.622799206509447 13.017939272108984 215.27580190354874 72.16056478728088 0.44180070574424646
1.64755200988643 13.003600694557969 194.13691444606448 75.5674467133052 0.44996484645644974
1.6719009103839886 12.987671893249104 175.26983007347135 79.1503898464621 0.45840776636301783
1.6958380715790682 12.970129402075452 158.39493582196874 82.9195205625327 0.4671424709497708
1.7193186891015444 12.950921074235058 143.3070702151298 86.88760237419872 0.4761906321379066
1.7423046499664456 12.929986252489716 129.80186710505177 91.06625170674783 0.48556675530123755
1.764784836780117 12.907343871797607 117.70268319746663 95.46946936946344 0.49529241792273715
1.7867129604247418 12.882911819300608 106.84784159207004 100.11100720643071 0.505385482987589
1.8080509761276342 12.85666476421368 97.10304581939202 105.00734177027614 0.5158714712312477
1.8287634214713104 12.828533855105286 88.34775017242688 110.17500826415497 0.5267729115517824
1.848844019940796 12.798575060933285 80.48180738629424 115.6315855510754 0.5381130006527198
1.8682300883162755 12.7666750438046 73.39468336055866 121.39736696012183 0.5499213990930527
1.8869018085268157 12.732831237510549 67.02160727270564 127.49372228202854 0.562227726162329
1.904825078518698 12.69702394810444 61.26807822891132 133.9431326006033 0.5750614401988765
1.9219695633374698 12.65921402589524 56.0834797909106 140.77116642788081 0.588458451773152
1.93828514458463 12.619334528083517 51.40143026685055 148.0055483143016 0.6024572176768365
1.9537842943607007 12.57749859426768 47.17127168723393 155.67483736422187 0.6170937315852363
1.968402284067013 12.533579982743523 43.347408536806796 163.81259856201 0.632415335664354
1.982120238880694 12.48758864348141 39.88794840902351 172.452524459778 0.6484633487436711
1.9949130857864479 12.439521010938803 36.75310879862691 181.6340238660573 0.6652913719370923
2.0067511611742552 12.389369299044137 33.90952731449831 191.3990162611412 0.6829535770302345
2.0176013904153356 12.337106424989091 31.333088487685025 201.7935161615005 0.7015091717755507
2.0274414865529904 12.282729593178825 28.99762751477682 212.86752426103692 0.7210210427554905
2.0362528684358043 12.226275390010489 26.87454477252039 224.6763571940147 0.7415590106196317
2.044003486909056 12.16768958333028 24.946637218538406 237.28130012437876 0.7632006601976459
2.0506659540224295 12.106995461233845 23.192161059699522 250.74911540387413 0.7860283083595323
2.0562426016895325 12.044259920726995 21.59729544677736 265.15281152411103 0.8101298846009297
2.060693795931492 11.979421366158402 20.145726374010092 280.574284563027 0.8356056641413462
2.0640045320526914 11.912534922543193 18.824818476438306 297.1030213609254 0.8625619088149536
2.066169740974587 11.84364622473164 17.621836851022994 314.8394359258507 0.8911193195433013
2.067166337825019 11.77276611586252 16.526003208415208 333.8929541987946 0.9214039331142351
