M[M_sun], R[km], Lambda[1], P_c[MeV/fm^3], rho_c[fm^-3]
0.24162668629717493 15.618656898711224 2160425.4255784233 3.5677272577965504 0.1711233750220791
0.2536402673784 15.277381274091402 1723160.4751302807 3.7847688158846853 0.1738875399788021
0.2660338882855713 14.981403187439845 1383173.5537933426 4.0112947162187576 0.1766653708906638
0.27880558609385636 14.723694605479665 1116644.9559536714 4.247562629584375 0.17945559368180938
0.2919573700158258 14.498601614541583 906055.3734214687 4.494196952897444 0.18226476027375735
0.30548885647064966 14.301458394069899 738809.6118936046 4.751349303010092 0.1850884988474667
0.31940216933016796 14.128350788744806 605209.7790119728 5.019708459937369 0.18793357100768007
0.33369577916305293 13.97616919193494 497845.32708411105 5.299489532912243 0.190796424992376
0.3483721689599483 13.8422249903774 411149.89414604404 5.591431388307363 0.19368356528206304
0.36343019097265394 13.724278802563154 340782.04381179844 5.89568832361098 0.19658981538757392
0.3788787266898413 13.620264203738039 283426.0688301096 6.213129675362988 0.1995229670581242
0.3947073002043243 13.528678885976813 236525.51344059283 6.544022411555238 0.20247936910164152
0.4109277600994443 13.448080054860563 197951.29705352316 6.8890497259325185 0.20546240886142889
0.42753104711128165 13.37727574203997 166172.89965306607 7.248924920702938 0.2084753128450147
0.4445206844714857 13.315129813283425 139882.3394819527 7.623920660830163 0.21151384785235086
0.4618964389005601 13.260744276304731 118051.9272952614 8.014958429614115 0.21458375204526942
0.4796556004748707 13.21334002981222 99876.13423021875 8.422755316200732 0.21768687462071945
0.4978059598520475 13.172144786510355 84700.95143725775 8.847770749622107 0.22082095395058932
0.5163382920434889 13.136546603575685 71987.2206233946 9.290840708051128 0.22398887291314273
0.5352498821906307 13.105976721404096 61317.31569203529 9.752866678225502 0.22719380258485442
0.5545515101571699 13.079939678508396 52343.21466432001 10.234657447805628 0.2304370926178769
0.5742261733729522 13.05794740863512 44764.210332121496 10.736710286786526 0.23371577533126764
0.594277077904044 13.039628324726886 38357.364459346536 11.260217368685764 0.23703538266634155
0.6147077344213335 13.024572469350318 32929.767815810694 11.806140044384202 0.24039784594340063
0.6355026721450823 13.012504994068104 28319.03754838889 12.375456289659965 0.24380479626525015
0.6566670051092978 13.003067411576696 24392.203257573827 12.968890781358073 0.2472545912033703
0.6781914331887832 12.996019069700793 21047.434590746558 13.587698368906327 0.25075121635405295
0.7000724161113142 12.991091980377131 18053.38901308689 14.233109500179163 0.2542976951538814
0.7222984120211494 12.9880158936169 15744.371738135163 14.90631251937483 0.2578960096555429
0.7448793234110953 12.98665728903463 13647.756793933038 15.608383137014256 0.26154652445262994
0.7677918065210083 12.986756357990235 11847.89758576055 16.34049442151477 0.2652502112460364
0.7910290705130122 12.988119781595419 10300.17561565645 17.104304920288996 0.2690122073205259
0.8145951927900734 12.990644049762345 8966.64023513836 17.901267907776973 0.27283494176572537
0.8384678881596686 12.994112012892975 7815.346538599484 18.732805320084946 0.27672001076802377
0.8626428089227769 12.998365330255782 6822.04350832589 19.600146607420484 0.28066687565388554
0.8871077029729095 13.003315348045103 5962.0186754070755 20.50543000191595 0.28468238969898685
0.91186101380893 13.008795168616402 5217.273598682324 21.450447267730087 0.28876956155618055
0.9368728620320793 13.014686708313429 4570.589598273679 22.436754433979544 0.2929289001346509
0.9621429558267037 13.02087415625599 4009.455234060336 23.466230229190536 0.2971630387727866
0.9876589611044151 13.027272621859073 3520.7934228422896 24.54136373882529 0.30147864098177435
1.0133996750715393 13.033735566304138 3095.8776122994855 25.664181928030423 0.30587797766560015
1.0393498571537798 13.040182245484019 2724.865299324319 26.83647264828285 0.3103610360931591
1.0654949996798742 13.046520218414896 2401.381057330362 28.061411364788153 0.31493716515037257
1.0918159906946618 13.052634443677658 2118.5123174145565 29.341151639834614 0.31960750040802893
1.1183070171678888 13.058477969657556 1871.0402027067694 30.678246357748694 0.32437534990565625
1.1449311332541994 13.063940074724078 1654.1700316672755 32.07629289073593 0.3292501188797789
1.1716852973022478 13.068951353664362 1464.0782009771171 33.53702961486005 0.33422819800327824
1.198533036828776 13.073413977895857 1297.1847821900867 35.06507723224944 0.33932370271733353
1.2254716949295439 13.07729233911702 1150.5849456742692 36.66259499482529 0.34453423993185606
1.2524601521331713 13.080466738392555 1021.5565504577582 38.334378502552944 0.34987270863735337
1.2794965440702046 13.082911177683888 907.9880755428366 40.08290742549378 0.355337141129367
1.306532789275596 13.084508251350842 807.9685034516401 41.91354185708469 0.36094145141206685
1.3335636375081983 13.085227127147325 719.588454647854 43.82958326152009 0.3666865941278479
1.3605661081729596 13.085044457829106 641.5392524887831 45.83603611836253 0.3725821010404224
1.3874916005428481 13.083797276373813 572.6430894652613 47.938066366236214 0.3786370255842095
1.4143418085609905 13.08152211561649 511.58120019511784 50.140230884336425 0.38485602900064664
1.4410684462764953 13.07810531294918 457.55420812867715 52.44811335107152 0.3912479982756109
1.4676508422331085 13.073506853977602 409.62352481128903 54.867935532820056 0.39782364698810935
1.4940567821515498 13.067659323919454 367.10547043863824 57.40587529901034 0.40459201604000944
1.520266214161346 13.060536016665793 329.34002336928535 60.06854755410329 0.41156285476850146
1.54624631285994 13.052070863643946 295.7551161379907 62.86304356966607 0.41874667924914716
1.5719599000258329 13.042213057137694 265.8794579397121 65.7969740805774 0.42615483535479987
1.597376378917859 13.030902530588548 239.2734753813678 68.8785165272467 0.4337995671270438
1.6224697574858944 13.018113996012625 215.58687096566928 72.11646687319771 0.4416940910849712
1.647220693681966 13.003806241370867 194.40697278259722 75.52029648117734 0.44985267717159866
1.6715700103911446 12.98790279201649 175.50869130592358 79.1001988328674 0.4582906713025239
1.695509208795108 12.970384530844631 158.62634801542887 82.86579925087806 0.4670190195320503
1.718983216944358 12.951198433506681 143.5132780245745 86.8300743215356 0.47606035940296504
1.7419870178144765 12.930321854871922 129.9946332333849 91.00489296368892 0.48543025468327294
1.7644659924600996 12.907693813227496 117.86943073442352 95.40368906892665 0.49514808125533205
1.7863937243500012 12.883289730576813 106.99351340859253 100.04074807854215 0.5052338668377114
1.8077353984301021 12.857067401077586 97.23838396850438 104.93223961427354 0.5157119916455558
1.8284628063643256 12.829000359559352 88.47502696111532 110.09440566032443 0.5266039684691666
1.8485392130228369 12.799050573567577 80.59615572937759 115.54524109743886 0.5379346428066871
1.8679331871715872 12.767188421417266 73.50204039494484 121.3048634295005 0.5497330958034699
1.8866126263182665 12.733385663108592 67.11488574706591 127.3945405226107 0.5620286691625624
1.9045451621175138 12.697610860782111 61.35677898029014 133.83706895112724 0.5748520376223399
1.9216983988301706 12.659845542835033 56.16547532871083 140.65724768684197 0.5882364947445006
1.9380296393097616 12.620032989974069 51.47522620248661 147.8830925607496 0.6022216679423256
1.9535255386894412 12.578188098136424 47.23871951610867 155.54349876293543 0.6168448317886192
1.9681634173106404 12.5343365108088 43.40800388795084 163.67127015304598 0.6321508606350129
1.981896343308071 12.488395065509284 39.942733674091656 172.30053115271912 0.6481827097207913
1.9946978648041327 12.440369061597426 36.80331196552239 181.4705034958376 0.6649935173153988
2.0065478084729076 12.390250407001696 33.95870614984126 191.2229074022962 0.6826369840225808
2.0174184627178695 12.338048694366964 31.377553353238035 201.60364796684607 0.7011721744589922
2.0272741584795604 12.283723048163019 29.03845602716641 212.6630822926215 0.7206633837631221
2.0361041311425017 12.227317037477347 26.91103837854136 224.45545006908515 0.7411771673951382
2.0438712278907984 12.168785860490763 24.98034644911374 237.04285205753902 0.7627940843394716
2.0505535087125093 12.108144753770704 23.223267782349875 250.49089661138345 0.785593024852736
2.056143735010584 12.045431400175067 21.627040226703773 264.8733972212676 0.8096649229673695
2.060620426070323 11.980667967157485 20.17162493935697 280.27180242140247 0.8351090309891833
2.063957887019259 11.913850258455732 18.849454976545974 296.77518537441364 0.8620307557747869
2.066138672157656 11.84500017860462 17.644249589713898 314.48331211421936 0.8905492353650424
2.067158640370595 11.77417623454617 16.547277768860233 333.5061948123672 0.9207930775574948
