M[M_sun], R[km], Lambda[1], P_c[MeV/fm^3], rho_c[fm^-3]
0.24162668629717493 15.618656898711224 2160425.4255784233 3.5677272577965504 0.1711233750220791
0.2536449853442878 15.27729064010512 1723168.9588620076 3.784856944669024 0.17388863846158414
0.2660435318623511 14.981200859331613 1382906.628181633 4.011479980250281 0.17666760969714942
0.2788218658537867 14.723383203317447 1093886.8287268349 4.247851296364051 0.17945894178144206
0.29197859428766776 14.498288755908227 905775.2952715679 4.494596596981769 0.18226921040338886
0.30551587046879486 14.301088036727538 738536.1038796484 4.751873493835575 0.18509416110881516
0.31943559741587463 14.127972140471979 604988.2996941132 5.020361058520105 0.18794034196985587
0.33373648003692874 13.975763228047496 497580.7193266785 5.300287719968922 0.19080446141160493
0.3484199966695239 13.84186728784635 410907.3299072691 5.592377156396181 0.1936927158484942
0.3634859806451902 13.723818923995017 340562.6119942964 5.89680292020454 0.19660028391465445
0.37894170897629775 13.61984706823396 283212.0320675787 6.214426588140548 0.1995347933410709
0.39477773500254204 13.528300843124853 236333.57932612818 6.5455002936737845 0.20249232813130022
0.4110059461645597 13.44771916423585 197795.90541199243 6.890737107075109 0.2054767793073212
0.427617269668131 13.376922899989363 166019.48914880605 7.250837634378241 0.208491136235064
0.44461613346210305 13.314812590617208 139748.2948866112 7.626053420207066 0.2115308259883508
0.46199975548022676 13.26043042095892 117931.93053282137 8.01734843408302 0.21460224066207204
0.4797692993007459 13.213049406919792 99761.85034260465 8.425421201822793 0.2177069183537576
0.49793035700552274 13.171887245709144 84606.83019506722 8.850702686629257 0.22084218242724138
0.5164735251092208 13.136306164622251 71909.07429110419 9.294086142934297 0.22401172097704952
0.5353963968813705 13.105749859708988 61245.145462712695 9.756447614857525 0.22721831957253744
0.5547061795443391 13.079753782671878 52277.726809767475 10.238588480101125 0.2304632175437233
0.5743929441261593 13.057807368509904 44707.90576825736 10.740991790220107 0.233743263909555
0.5944546402357456 13.03945987350003 38309.492935367576 11.264904981871794 0.23706467095835634
0.6148963945732225 13.024456950815393 32885.48190108158 11.811261458171167 0.24042899268411563
0.6357046209688579 13.012396306863996 28275.358752889817 12.381040922401423 0.24383786329010865
0.6568795273952052 13.002987957819778 24355.87771292923 12.974912987624885 0.2472890116648695
0.6784163965648975 12.995953567200711 21014.99967009824 13.59424366241505 0.2507876587947205
0.7003105278314482 12.991048113115871 18161.773041633685 14.240212973998366 0.2543362318460357
0.7225499927254859 12.987994842761912 15719.062796818085 14.914011521297104 0.2579367171808667
0.7451420727122897 12.986643488481482 13625.14744076153 15.616642297996675 0.2615887398050541
0.7680679656538711 12.986749132254937 11828.174961128969 16.34942558357063 0.26529473084887206
0.7913184721021229 12.988139003453886 10214.063872140385 17.1139529048102 0.2690591222021708
0.8148968702916378 12.990689179267132 8950.068955487743 17.9116805076644 0.2728843488076546
0.8387868284496091 12.99415039794748 7802.1975722596235 18.743936352281953 0.27677115210161823
0.8629710300662181 12.998419412817011 6809.115824237043 19.612140796209356 0.2807206860146422
0.887457044105194 13.003386274073412 5950.942449309134 20.518345071984925 0.2847389855385423
0.9122189110921072 13.008882457481874 5207.405744766822 21.464344896488218 0.2888290671779504
0.9372447793982712 13.014781625524947 4562.203956147535 22.451576730622374 0.29299046351636926
0.9625320447157298 13.020988495049266 4001.381242331942 23.482163194116495 0.29722774727749607
0.988058890530638 13.027368416845261 3513.7382863670523 24.558482362764753 0.30154664514809354
1.0138062746077092 13.033830163989029 3089.7148388150617 25.682419949332804 0.30594836170225065
1.0397757971685049 13.040289109092987 2719.2027705176865 26.85605301888674 0.3104350072074722
1.065932082803278 13.046617497322854 2396.354684783646 28.082425734200985 0.31501490644057883
1.0922689444305185 13.05273782061929 2113.8041010491133 29.363525532322388 0.31968803268334495
1.118772527529908 13.058579495732953 1866.8267227004324 30.702246879791765 0.32446001330235824
1.1454109799120546 13.06403225715302 1650.5866446182715 32.101849566917835 0.32933795292132767
1.1721767158302576 13.069039207994077 1460.8347675160724 33.564426403939436 0.33432052800720297
1.1990369509695133 13.073498284840657 1294.308261377918 35.0944512861514 0.3394208347502633
1.225988204456572 13.07736243574386 1147.9832806709853 36.69386107643605 0.34463509947124693
1.2529886853468994 13.080511363380031 1019.2218618039046 38.367794052810545 0.3499782858659837
1.280035266178581 13.08295366008798 905.8591643237469 40.11858961143127 0.35544752989200945
1.29900396183681 13.079680320544824 831.8848385737035 42.2498158301306 0.9734502268730074
