M[M_sun], R[km], Lambda[1], P_c[MeV/fm^3], rho_c[fm^-3]
0.24162668629717493 15.618656898711224 2160425.4255784233 3.5677272577965504 0.1711233750220791
0.25364194906858833 15.277343482582992 1723184.118480079 3.7848025677250967 0.17388796067921042
0.2660378955135062 14.981268371832199 1383124.9358591624 4.01136566850002 0.17666622830710968
0.27881132675165016 14.723610292600501 1116479.330278323 4.247673181884946 0.17945687592189724
0.29196470651245543 14.49849337911988 905906.4671016297 4.494350005316807 0.18226646454796858
0.30549908029095585 14.301310084576302 738692.5468416348 4.751550051367497 0.1850906673128607
0.3194143735606605 14.128228964658975 605160.1600186178 5.019958382068695 0.18793616404625366
0.33371086434268016 13.976058263672911 497734.38690873113 5.2997952073705825 0.19079950262696585
0.34839082110526887 13.842066564766263 411032.3526019562 5.591793577332008 0.19368706956051127
0.363451596510249 13.724074744879552 340695.83914572484 5.896115162829031 0.19659382435183867
0.37890427054845205 13.620073143228858 283340.95528884244 6.21362632872284 0.19952749593875646
0.3947341848096358 13.528525277357222 236439.24584142267 6.544588362454213 0.20248433172646332
0.41095736675346145 13.44795233914477 197903.72916760854 6.88969589807939 0.20546791193458727
0.4275644618874688 13.37712456292087 166112.16332833853 7.2496573759794165 0.20848137225980481
0.4445569960270354 13.314997710862286 139826.8657179096 7.624737373932292 0.2115203494137886
0.4619372653905231 13.260620020624478 116689.85796971773 8.015873643385044 0.2145908319637061
0.47969956836387884 13.21320824569495 99830.19759443314 8.42377616526133 0.21769454997853432
0.49785387982818813 13.17207703542737 84665.3487009398 8.848893469227454 0.2208290829202332
0.5163902427846885 13.136449628207036 71956.58336197036 9.292083463882317 0.22399762199167111
0.5353064820159477 13.105886934383538 61291.51480912446 9.754237893984529 0.2272031906537675
0.5546109009893074 13.079847633442983 52313.2852699307 10.236166058942645 0.23044713937953834
0.5742910761618755 13.057874453683981 44744.068640673446 10.73834973803301 0.2337263011161085
0.5943448675831673 13.039558525046239 38003.167088098126 11.262012310070043 0.23704659749259233
0.6147789810794845 13.024530254837376 32910.97741063821 11.808101076328292 0.24040977228953025
0.6355795254423594 13.012459188740616 28302.996212664624 12.377594673781578 0.24381745779630867
0.6567490501586499 13.003050335602142 24378.04966600038 12.97119669807242 0.24726777087772386
0.6782786273978669 12.995986578121002 21034.73331760684 13.590204555686295 0.25076517013059624
0.7001639383193304 12.991068960285387 18042.693396492563 14.23582939059759 0.25431245069214564
0.7223950217047181 12.988012014198814 15735.28896579668 14.909260409962181 0.257911596264294
0.7449804411190577 12.986649684837907 13639.093530550139 15.611545486104765 0.26156268828351154
0.7678960715865564 12.98675340978323 11840.055218308611 16.343914043944732 0.26526725720617883
0.7911400346235603 12.988129281942332 10224.272675995462 17.107998972954217 0.2690301702477257
0.8147112699676596 12.99066029329774 8959.888340462685 17.905254684826243 0.2728538587377559
0.8385924229267068 12.994117171641793 7810.187335598033 18.737067140750078 0.2767395916288548
0.8627676128210741 12.998392785506423 6817.121942511424 19.60473887174275 0.28068747824771
0.8872402528375662 13.00333273522406 5958.121473827927 20.510374805082932 0.2847040585931684
0.9119999146080446 13.008823467311963 5213.443445766188 21.455768217649005 0.2887923443228555
0.9370143002235451 13.014721225373403 4567.14990209173 22.442429369116734 0.2929524705843927
0.9622908555158065 13.020923220778368 4006.614916496208 23.472330346481602 0.29718781316162707
0.9878116152246119 13.027311882251086 3518.0508436400924 24.547917741159758 0.30150467692171823
1.0135521336629187 13.033766247146783 3093.4647734151226 25.671164450565307 0.3059049245648202
1.039511591149935 13.040227644849894 2722.710701491588 26.843969029001002 0.31038935606964246
1.065660712031947 13.046549524644478 2399.363782273637 28.069456681642535 0.31496692827578887
1.0919911615121831 13.052671460046797 2106.146263298428 29.349717384958062 0.31963833183107904
1.1184853114780071 13.058516263832043 1869.4625538768328 30.687434765947575 0.3244077626109718
1.1451131748654881 13.063967838768917 1652.8715792741202 32.086081833897794 0.32928377654373003
1.171873700494942 13.068993581327081 1462.8355223813603 33.54751807930702 0.33426354520987045
1.1987258681034574 13.07345001012155 1296.0775091637463 35.07632255666963 0.33936088795657676
1.2256685138305874 13.077317504750422 1149.594237671222 36.6745645545857 0.3445728518787951
1.252663728601452 13.080484385544159 1020.7090162196687 38.34720996695081 0.3499133559036291
1.279702349785193 13.082924533245281 907.2063016298501 40.09656735462691 0.3553794003866174
1.3067430849569175 13.08451775577155 807.1933829781586 41.92808669616018 0.36098542266412553
1.3337764213915793 13.085235533606095 718.8954205329328 43.84517602362654 0.36673294388081096
1.3607838338909766 13.085036531022485 640.965818545782 45.852644141308936 0.3726303949151211
1.3877136167975392 13.083780593302702 572.1140093899713 47.95576056231763 0.378687388978068
1.414568120074558 13.081498643911663 511.10308174785547 50.15920520232923 0.38490919713067556
1.4412899461469817 13.078055057498663 457.10404207359034 52.4683376796049 0.39130352670436247
1.4678826865818257 13.073460922243482 409.2371482818197 54.88949938934604 0.3978816930117023
1.4942899551794262 13.067602696580524 366.7297238808238 57.42887545035827 0.40465274911153715
1.5205004373244908 13.060463937549395 329.01816303895157 60.09308866537109 0.4116264574960848
1.5464827701225254 13.051987699758422 295.4531475240977 62.88923891784359 0.4188133484928815
1.5721980703987748 13.042116234404364 265.6154764956034 65.82494634010556 0.4262247834331966
1.5976206756084461 13.03079871185423 239.0506345593051 68.90839863559897 0.43387302314482845
1.6227019569635912 13.017960068239182 215.35436143591323 72.14840298555863 0.4417713023954997
1.6474608290439343 13.003658185341113 194.20885289993407 75.55444302442093 0.4499339109887596
1.6718090484352104 12.987736056986023 175.32807795970652 79.13654745441775 0.4583754722207456
1.6957469905910527 12.970197565999086 158.45269894345373 82.90470443207174 0.46710842352512305
1.7192124985790775 12.950965417434304 143.3766245827905 86.87173624668907 0.4761547031653805
1.7422155226459795 12.930076471893079 129.8597610675512 91.04932897762475 0.48552910845797137
1.764695982998973 12.907437732830063 117.74885440475796 95.45132704028767 0.4952526096015402
1.7866243334448082 12.883016835396012 106.88367121116872 100.09162948091125 0.5053436666965968
1.807964445529135 12.856775934906054 97.13944333877865 104.98662817906683 0.5158274858768973
1.8280276855188644 12.828956447656035 88.6095775664945 110.21706795512901 0.6631494257273903
1.8414459327027008 12.79816105147395 82.56043252243418 116.312405378643 0.9781460843784291
1.8481663098551708 12.760461120261377 78.32628601430629 123.41024699893927 1.280783265598299
1.8494477754792944 12.71463388638018 75.25830051022169 131.53630876446013 1.5718183743833753
