M[M_sun], R[km], Lambda[1], P_c[MeV/fm^3], rho_c[fm^-3]
0.24162668629717493 15.618656898711224 2160425.4255784233 3.5677272577965504 0.1711233750220791
0.2536400100196173 15.2773912853161 1723206.0996932813 3.784763006799393 0.17388746757135634
0.26603317823797357 14.98141420482224 1383207.1331242537 4.01128250459437 0.1766652233203899
0.27880505442415676 14.723696548353624 1116604.5618068313 4.247543602521735 0.17945537299655592
0.291956254249128 14.498632839424168 906112.3413198747 4.494170611359291 0.18226446695461646
0.30548703407367495 14.301481037747077 738884.863862019 4.75131475286638 0.18508812563997468
0.3193992809016214 14.128406093978068 605245.2852289657 5.0196654469440025 0.18793312473127238
0.3336926605274616 13.976204832403896 497867.6078900715 5.299436924995287 0.19079589531794458
0.3483701820722583 13.842225855676016 411161.89687820507 5.591369054386379 0.19368296218423006
0.3634269749852187 13.724292162150281 340805.04082553135 5.895614863674637 0.19658912543630602
0.3788745359297214 13.620285098460073 283439.7948560433 6.213044200836545 0.19952218763336105
0.3947020622634746 13.528733737768126 236522.44926290022 6.543925011450244 0.2024785150343018
0.4109225036605995 13.448111461417811 197981.8899895099 6.888938520486731 0.205461461789187
0.42752364589825026 13.377299932558616 166185.6157391006 7.24879886685692 0.20847427003385144
0.4445143425908299 13.31513969138161 139887.13544934927 7.62378010722949 0.21151272895531384
0.46188946217411453 13.260774560250224 118055.94833411058 8.014800925387203 0.21458253362273755
0.47964729015749613 13.213350304778704 99881.33815976045 8.422579633731171 0.21768555373414794
0.49779836981084785 13.172156184599812 84705.65061015818 8.847577536880078 0.22081955500778358
0.5163278595449307 13.136582101842965 71991.81723188808 9.290626839202805 0.22398736726311738
0.5352373799320205 13.106023660647272 61322.755590341825 9.752630703880383 0.2271921869795792
0.5545404682692393 13.079960085235454 52346.40270806979 10.234397830533227 0.23043536366811976
0.5742162463443892 13.057952386645105 44767.29101422243 10.7364281547237 0.23371396395603072
0.5942658651642604 13.039608977869737 38361.52342816397 11.259908480347026 0.23703345272641138
0.6146950075646709 13.02458397402774 32931.76224319719 11.805802575902323 0.2403957935719771
0.6354893927359658 13.01249185098784 28319.56520976271 12.375088303419595 0.24380261739141523
0.6566530272079765 13.003073744385752 24395.13191454921 12.968493967150941 0.24725232317608367
0.6781768358352044 12.99603604946788 21049.16038195335 13.587267093838749 0.2507488151300222
0.7000568455884192 12.991092280643798 18191.35508989697 14.232641452987735 0.25429515597502483
0.7222813455529531 12.988020709187918 15745.96656296845 14.90580524034163 0.2578933274800741
0.7448619436533963 12.986652205395835 13649.380879606817 15.607838956306876 0.26154374296182314
0.7677734597392517 12.986750404282455 11849.031669615108 16.339905972549953 0.2652472779755349
0.7910086354440934 12.988131903588782 10301.292359356921 17.103669251283915 0.26900911627740975
0.8145755762131927 12.990629767883616 8967.542008868415 17.900581871312642 0.27283168657175605
0.8384478600028635 12.994105648969015 7816.308032290436 18.73207195840592 0.2767166413505602
0.8626211340084372 12.99835265981075 6823.004754629033 19.599356388902862 0.2806633304417617
0.8870865563341085 13.003305051850253 5962.8641324226355 20.50457912527145 0.28467866102560013
0.9118359436642636 13.008794051700065 5217.594691053536 21.44953167145202 0.28876564123806264
0.9368485648684484 13.01468171301021 4571.1541385362425 22.435777931116046 0.29292484429769233
0.9621180993640842 13.020870233522494 4009.715789388262 23.465180570684666 0.29715877579771033
0.9876330355267966 13.027266952101845 3521.2646191217564 24.540235986739273 0.3014741609581057
1.0133730302166082 13.033732247250011 3096.323802794049 25.662980446416103 0.3058733409166582
1.0393211802982356 13.040176639655426 2725.218824173722 26.835182755591436 0.31035616311084135
1.0654668365473696 13.04650912381312 2401.5355300229403 28.06002702648075 0.3149320438810171
1.0917864877698589 13.052640145044263 2118.8355147516218 29.339677760559738 0.31960219534760587
1.1182760662171858 13.05847303970729 1871.2926939953747 30.67666534952159 0.3243697727966884
1.1448984981458696 13.063937145841715 1654.3350907016757 32.074597340145026 0.32924425500625015
1.1716529594808576 13.06895030281711 1464.2944187666897 33.53522493398575 0.3342221160426615
1.1984995843473454 13.073412750366375 1297.3767086782511 35.0631423368953 0.3393173045429487
1.2254381381170205 13.077290542990676 1150.7930352644485 36.66053549759989 0.3445275963126102
1.2524264024874259 13.080460354944394 1021.8295023505102 38.33217072064171 0.34986571486825246
1.2794619487517298 13.082906421263433 908.1598254299846 40.08055711163339 0.35532987004347205
1.3064968993549848 13.084506511358239 808.0530936746925 41.91103930132328 0.3609338858068646
1.3335213469556508 13.085238905161606 719.6811332275872 43.82690042206983 0.36667861934153934
1.360525992613141 13.085045040385275 641.7151657018784 45.833178613978006 0.37257379180583483
1.3874526764711856 13.083802580948852 572.7353775505314 47.93502199861592 0.3786283603312189
1.4143024273646652 13.081525257776281 511.6502601633385 50.13696629112108 0.3848468812506916
1.441029493730147 13.07810926599793 457.6240538460382 52.44463371202869 0.3912384444905074
1.4676113314470698 13.073514020037107 409.6933039533219 54.86422544965975 0.39781366011148567
1.4940169416802935 13.067670387757587 367.1736842663177 57.40191812661134 0.4045815669246658
1.5202255913371583 13.060546811468956 329.3922517031211 60.06432528892637 0.4115519120047895
1.5462049510610012 13.052085257546798 295.79390796744514 62.85853672703677 0.4187352089763457
1.571919488212672 13.04223037586466 265.9489483745636 65.79216155959996 0.42614280105366387
1.5973363110202625 13.030925239006564 239.3236718396319 68.87337546196031 0.43378692939149127
1.6224274648996349 13.018141977566142 215.60172470075966 72.11097246841281 0.4416808073706223
1.6471792550621165 13.003831205625772 194.43896394545277 75.51442183124082 0.449838701518619
1.6715329941948889 12.98793148726007 175.54112022826047 79.09393048045496 0.4582760198495729
1.6954682266916983 12.970418893077813 158.65502454071535 82.8591060123832 0.46700363848948295
1.7189326984702753 12.951205808911478 143.53944627133004 86.82290687305267 0.47604412865860296
1.7419465378487258 12.930360439256768 130.01748011802863 90.9972483209083 0.4854132481669779
1.7644264157957734 12.907739515906169 117.89309576037341 95.39549364238277 0.49513009865954494
1.7863534947356803 12.883333505528139 107.01336183159462 100.03199473391246 0.5052149774997536
1.807696455258238 12.857114494889682 97.25798559881642 104.92288299206938 0.515692122838693
1.8284249161713253 12.829055765831349 88.49337625272273 110.08435673030627 0.5265828942708509
1.848501789501855 12.799108414960221 80.60918716227887 115.53448410620119 0.5379124225747424
1.8678978970291977 12.767251856954667 73.51329270406684 121.29333926001699 0.5497096368175384
1.8865765479510126 12.73345405124546 67.12662474983654 127.38218452176463 0.5620038707674546
1.9045100594339952 12.697683932646898 61.367683979048834 133.82385575213206 0.5748259506648615
1.9216647565285885 12.659924812593783 56.17577110855542 140.64305609782525 0.5882088441323075
1.9379975156860016 12.620115568735146 51.483969218475174 147.8678376628806 0.602192324387296
1.9534948226195128 12.578274411974222 47.24937340140637 155.52713748574274 0.6168138255305521
1.9681336366555746 12.534428898552578 43.41690772965221 163.65365204844713 0.6321178718964222
1.9818680197037544 12.488493745944071 39.95043502266734 172.28159736741563 0.6481477505564056
1.9946719013979402 12.440474439709334 36.81060318707205 181.45013406409595 0.6649564141130433
2.0065231595023 12.390363796222337 33.964373623413344 191.20097015680588 0.6825975471732652
2.017395105342715 12.33816695594174 31.383578878152495 201.57999711858974 0.701130196536301
2.0272526914365363 12.28384594453449 29.042902169944913 212.6376164251705 0.7206188327515911
2.036086754217855 12.227446338498822 26.916738597050553 224.42793369156195 0.7411296046815173
2.043854134183335 12.168922797951904 24.984449766525678 237.0131512177761 0.7627434416793102
2.0505391668483357 12.108286574705302 23.22651890873554 250.45873250852938 0.7855388034456625
2.0561316054682925 12.04557996302089 21.629626178933638 264.83859483767225 0.809607009779091
2.0606100970422383 11.98082388172366 20.175795278357946 280.2340973411538 0.8350470756497107
2.0639512450242052 11.914012755459463 18.852078674759984 296.73435322699356 0.8619646003796168
2.0661351262439 11.845169740239553 17.646835492871087 314.43895752818105 0.8904782323966707
2.0671578576392564 11.774351536198381 16.550143083161462 333.45802550315307 0.9207169979813283
