M[M_sun], R[km], Lambda[1], P_c[MeV/fm^3], rho_c[fm^-3]
0.24162668629717493 15.618656898711224 2160425.4255784233 3.5677272577965504 0.1711233750220791
0.2536447787119336 15.277241564095748 1723064.9194719363 3.784835686251958 0.17388837348567082
0.26604098556938605 14.981258542496041 1382989.693026263 4.011435290317881 0.17666706964569054
0.27881713809072434 14.723487045042708 1116436.3687583553 4.247781662474787 0.17945813413326261
0.2919729547274936 14.498358401825046 905811.1847403361 4.494500191360384 0.18226813690442017
0.3055093484934002 14.301177393397587 738617.316537083 4.751747042453341 0.18509279519255095
0.31942808623534785 14.128051088631617 605034.6456426915 5.020203629350491 0.18793870858145906
0.33372408791646907 13.975928936487744 497665.54050506785 5.300095167618259 0.19080252272893589
0.34840856030840045 13.841963820459059 410966.72247502866 5.592148999540476 0.19369050836815146
0.3634741228278609 13.723885631488008 340637.96624305245 5.896534032138372 0.1965977584610342
0.37892710520503686 13.619946327321626 283278.6136740787 6.214113714123433 0.19953194030675964
0.39476042077939905 13.528405577012759 236383.82701656394 6.545143757983354 0.20248920179495128
0.4109869806939976 13.447831647941968 197841.59054318932 6.890330025708344 0.20547331243157677
0.42759560349884446 13.377009041036576 166061.76702450955 7.25037618636217 0.20848731879388602
0.4445924102168515 13.314882503863489 139783.96498909596 7.625538880414805 0.21152672992075638
0.4619759060816644 13.260525700547852 117963.79106189724 8.016771826262387 0.21459778013441203
0.4797418670345745 13.213107817490663 99787.591629325 8.424778028511302 0.21770208258959498
0.4979000179875899 13.171950541886497 84628.42595181726 8.849995318877912 0.22083706078248666
0.5164411493019438 13.13635704223523 71930.20747497403 9.293303131424327 0.22400620852720426
0.5353607626618563 13.105814338844358 61264.610545980926 9.755583649174545 0.2272124044061481
0.5546686552006141 13.079780692010964 52294.87528557594 10.237646674046438 0.23045699969853978
0.5743535847334407 13.057840020236341 44719.988811888514 10.739958779808509 0.23373663166272596
0.5944113856287517 13.039532825809056 38322.43039254422 11.263773976348356 0.23705760441537888
0.614852060587378 13.024474533893986 32895.85407005473 11.810025774305847 0.24042147766452146
0.635657036289399 13.012416577865844 28284.77289920522 12.37969345993812 0.24382988486487772
0.6568290859797772 13.0030019630094 24365.18436365816 12.973459934442335 0.24728070660873053
0.6783620035830389 12.995970093929422 21022.698616163536 13.592664380955185 0.25077886577866676
0.7002528183416197 12.991044362404443 18167.845243115367 14.238498994093282 0.25432693342139984
0.7224877781065254 12.988009345844263 15725.679947801778 14.912153828457757 0.25792689485856246
0.7450785989948457 12.986644632969542 13630.533331355375 15.614649427102348 0.26157855357096577
0.7680007355192363 12.986762636213548 11833.046130227462 16.347270541559237 0.2652839885049485
0.7912481406121378 12.98814609592261 10287.446815008134 17.111624872941764 0.26904780177153237
0.8148236850682573 12.990678162021133 8895.371585865492 17.909167949803756 0.27287242690026237
0.8387090898185328 12.99413009573091 7805.545668312095 18.741250413787135 0.2767588116039765
0.8628904881657675 12.99842014073069 6811.999167912578 19.609246545845867 0.2807077013385694
0.8873737144470458 13.003366635012016 5953.648335664399 20.51522857580525 0.28472532856906263
0.9121285960767047 13.008873466820232 5209.492864539512 21.460991266213046 0.2888147079042798
0.9371547269416185 13.01475335776264 4563.877954762535 22.447999938156908 0.29297560755678453
0.9624403240133623 13.02097345807162 4003.383567210068 23.478318342956573 0.29721213219451903
0.9879623373827552 13.027352053259866 3515.42923792342 24.55435135025228 0.30153023459646516
1.0137065250156883 13.033808336564675 3090.9025647383955 25.678018768589286 0.30593137669814185
1.0396730949599886 13.040268080196126 2720.596111822742 26.851327851616396 0.31041715637638356
1.0658259269618415 13.046588193379513 2397.442610756063 28.07735445546781 0.3149961455753838
1.092160325189988 13.052717091070162 2114.9994927429875 29.358126118842183 0.319668598110073
1.1186604446271486 13.058553444666039 1867.7714128459672 30.69645485175944 0.32443958154816016
1.1452930559585204 13.064014775053032 1651.5031745675656 32.095683831928355 0.32931676806320426
1.1720578794665153 13.069015170670902 1461.527035972248 33.55781461981596 0.33429824561300336
1.1989153092581117 13.073477431279846 1294.9604532621179 35.08736223714759 0.3393973931870532
1.2258632940093244 13.077341755420445 1148.6357507923892 36.68631533873822 0.3446107580894888
1.2528608905377268 13.080497127553551 1019.8463647479691 38.35976099569898 0.3499529905392408
1.2799046167333883 13.082943009575285 906.3784970727166 40.10997790541993 0.35542088815059547
1.3069505588767867 13.084526867215073 806.5091946828043 41.942366144815864 0.36102859160073864
1.3339887891448967 13.085236624989227 718.3389770707198 43.86048446590584 0.3667784484882084
1.3609983407558042 13.085031438821611 640.3937261321635 45.86894950099614 0.37267780868617584
1.387930745124579 13.083766530128166 571.5882047843406 47.973132484107325 0.3787368350752598
1.41478114885762 13.081460859057211 510.63030161718405 50.17783417405731 0.38496139756241277
1.4415134126267 13.078019035434112 456.7202390043856 52.48819412838619 0.3913580450731474
1.4681085840733152 13.073415403353666 408.85181608697326 54.910671236916905 0.39793868381768926
1.494518851538496 13.0675465774851 366.3858549263268 57.451457740211 0.4047123787984961
1.5207312136644262 13.060395314018368 328.7170994629145 60.117184200382695 0.41168890543222725
1.546715503472219 13.051905250367083 295.1757685315808 62.91495896152754 0.41887880804889127
1.572431773467641 13.042018682015224 265.35926069990705 65.85241138857214 0.42629346316789507
1.5978459212033778 13.030678626318275 238.82004264428295 68.93773926817198 0.4339451481101317
1.622943172208881 13.017857110208304 215.14599888713985 72.17976080297056 0.44184711557370776
1.6476961577198999 13.00351236837844 194.01786459767285 75.58797168461997 0.45001367487680033
1.6720419111227136 12.987576963968438 175.15536361494287 79.17223874422872 0.4584587395915397
1.6959808673580665 12.970013454892737 158.2990550827211 82.94290657260645 0.46719621193280914
1.7194616453856921 12.950797150194497 143.2211094323406 86.9126458903186 0.47624734338027375
1.7424437835134252 12.929851515562962 129.72617654590795 91.09296315276089 0.48562617843648676
1.7649252231283883 12.907193469282475 117.63226074658999 95.49810608596317 0.4953552532730056
1.7868512266232601 12.882753606711162 106.78206203231584 100.14159412882911 0.5054514882391486
1.8081887108605956 12.856486091663042 97.04565843060357 105.04003751842222 0.5159409007209688
1.8289021674096493 12.828354858927453 88.29669660771673 110.20998585457019 0.52684604038903
1.8489751044774745 12.79836601028274 80.42751370061278 115.66917677692282 0.5381906511535859
1.8678692920758209 12.76686386698631 73.50154217623066 121.520834879461 0.7788512742995829
1.8731298858147831 12.735610505081842 70.43952907670118 129.43077689338935 1.620355559371793
