M[M_sun], R[km], Lambda[1], P_c[MeV/fm^3], rho_c[fm^-3]
0.24162668629717493 15.618656898711224 2160425.4255784233 3.5677272577965504 0.1711233750220791
0.25364336523370634 15.277315782961049 1723207.656976702 3.784808685751178 0.17388803693745408
0.26603809243263826 14.981307894351804 1383028.8745945618 4.0113785297587174 0.17666638372783083
0.27881225510257324 14.72361284708172 1116500.7345737068 4.247693221437947 0.1794571083505131
0.29196646659428327 14.498469498424264 905990.6556747005 4.494377748960589 0.18226677347988104
0.30550106294102486 14.301288680532215 738666.98009525 4.751586441061123 0.18509106039100262
0.3194171313350504 14.12816877649507 605174.0317917134 5.020003685807409 0.18793663409002845
0.33371434062921773 13.976047254249247 497708.349197594 5.2998506177979 0.1908000605180264
0.3483940850116586 13.842084669898073 411039.76558850316 5.591859232731751 0.19368770479456496
0.3634551228355414 13.724065803383791 340672.58263467514 5.896192538144149 0.19659455107717264
0.3789089094511361 13.620053690760592 283327.8216044229 6.213716360209643 0.19952831691751113
0.39473824918746986 13.52853179361293 236429.6185002256 6.5446909565749705 0.20248523133830448
0.4109631565531592 13.447913376585795 197884.5525878621 6.889813035275819 0.20546890952410676
0.42756987723314677 13.377107224783398 166103.35818023834 7.249790155335387 0.20848247070938833
0.44456337071109947 13.31497954114636 139829.99427904814 7.624885428402465 0.2115215280225699
0.4619433433143907 13.260640251649098 117996.71248039546 8.016039555215727 0.21459211542585038
0.4797072031221655 13.2132070757007 99827.13093600284 8.423961228064963 0.2176959413921046
0.4978630597945359 13.172015630569378 84655.91792043152 8.849097000602224 0.2208305565743488
0.5163998903499172 13.136428754783134 71949.53339413121 9.292308757364006 0.2239992080718276
0.5353151308043508 13.105882363578178 61284.68915089991 9.754486476948381 0.22720489258432067
0.5546218044816276 13.079831073852159 52309.65204472092 10.236439551565914 0.23044896073371948
0.5743022980501665 13.057878408586124 44738.17700961326 10.738646951967754 0.2337282093216349
0.5943582504080933 13.039535743787315 38336.614246406745 11.262337714640534 0.23704863062623738
0.6147928519905176 13.024520227435884 32908.15882023572 11.808456593645031 0.2404119344279836
0.6355922853391911 13.012471953168879 28298.971397807825 12.377982345861057 0.2438197532314577
0.656764152406351 13.003039741964129 24375.981611970044 12.971614744677883 0.2472701602606926
0.6782937646094 12.995997033446876 21033.20957604315 13.590658912680748 0.2507676998686118
0.7001803610990304 12.99105636650517 18040.564307523644 14.236322493878312 0.2543151258015095
0.7224126869723558 12.987993054147722 15733.871038004785 14.90979485192524 0.2579144220604121
0.7449983097300055 12.986646902832737 13541.161559844168 15.612118811578165 0.26156561874302975
0.7679167681201589 12.986752719749804 11838.723391775193 16.344534016252396 0.2652703476126381
0.791159820541961 12.988128953481164 10291.750671130712 17.10866870322831 0.2690334269192589
0.814732309242217 12.990652985335567 8959.040802488662 17.905977490447377 0.2728572883987451
0.8386122421276283 12.994120455740612 7809.53055125612 18.73783981594214 0.27674314167156944
0.8627904834245776 12.998396287913435 6816.499350303648 19.60557146216915 0.28069121355586596
0.8872642891943883 13.00333515117062 5957.096607952879 20.51127131747387 0.28470798724947194
0.9120230342678557 13.008829601658409 5212.6715493718275 21.4567329330848 0.28879647495498256
0.9370407081435767 13.014727607542815 4566.547478053943 22.443458269202953 0.292956744049584
0.9623172656944299 13.020927069813562 4005.6775663702883 23.473436341788116 0.29719230493719007
0.9878410995002549 13.027313940125115 3517.5461016594086 24.54910603681285 0.3015093974562375
1.0135814730028745 13.03377423725028 3093.163081764537 25.672430447179533 0.3059098102895717
1.0395417131447278 13.040227605198949 2722.3021645314957 26.845328201853558 0.31039449077993375
1.0656912651031867 13.046554388810211 2399.098879219216 28.070915392095053 0.3149723246800486
1.0920202587972034 13.052683568453329 2116.516564752151 29.351270463528863 0.31964392196033886
1.1185171518620913 13.058524945244757 1869.170488025781 30.689100752525405 0.32441363948657836
1.1451463051868371 13.063981805561514 1652.508045360253 32.087855291559286 0.3292898699695764
1.1719081829960103 13.068991343861807 1462.6551081326904 33.54941980779937 0.3342699542309661
1.1987617853086445 13.073451310443408 1295.860943542671 35.07836153038825 0.3393676302898972
1.2257063229854672 13.077316486975967 1149.4299414219504 36.676734857204 0.3445798529390861
1.252699267737292 13.080487781113437 1020.4866747192056 38.349536565487504 0.34992072605775226
1.2797383676684106 13.08292925486069 906.9904917593409 40.09904418477468 0.3553870628716391
1.306782281611055 13.084522830236299 807.0366479378324 41.93072399468888 0.3609933956171268
1.3338159700912093 13.085233009877 718.8284899738181 43.84800335466982 0.3667413481708595
1.3608238554522964 13.085034319139645 640.8571339310615 45.855655581394736 0.37263915177381746
1.3877535522403832 13.083778547968723 572.0248789517675 47.95896897229562 0.3786965211485626
1.4146089295830915 13.081493928407108 511.0180787197244 50.16264575794816 0.38491883794667686
1.4413307413576255 13.078045933260253 457.04525921039277 52.472004919807894 0.3913135955719637
1.4679240557609223 13.073452849381432 409.1699170781925 54.89340954975702 0.3978922184603016
1.4943327205465917 13.067590064951485 366.6746753958363 57.43304608158459 0.40466376187579045
1.5205431135708634 13.06045346436056 328.9599532912589 60.09753875072559 0.4116379906969833
1.5465256294884384 13.051971888114402 295.40044531565155 62.893989002811146 0.4188254378367724
1.5722413237387942 13.042098936417398 265.56476291317057 65.83001867486375 0.42623746743067503
1.597665077070994 13.030777939490738 239.01501981794166 68.91381733205785 0.4338863433516479
1.6227522146456577 13.017963972239716 215.31694033766132 72.15419419056764 0.4417853036779111
1.6475027474977353 13.003632039378878 194.17087686259535 75.56063511099568 0.4499486418159789
1.6718530262311582 12.987703563828816 175.30125040981466 79.14313890662096 0.4583908500033246
1.6957905871181385 12.970165327702697 158.42556896201896 82.91175954802304 0.46712463616103134
1.7192553624346656 12.95092560903496 143.33816356710986 86.87929133748496 0.4761718117288578
1.7422571416970285 12.930032913583483 129.82884517205434 91.05738718826917 0.48554703501053453
1.764739138121688 12.907392055303244 117.7241302173579 95.45996598329893 0.4952715653714892
1.7866659552182318 12.882968222190799 106.85833117560544 100.10085667799514 0.5053635785875932
1.8080058216992156 12.856721832853685 97.12468747889768 104.99649146922293 0.515848430594218
1.828718289319923 12.828598652622654 88.36622941503968 110.16340078381646 0.5267486433980745
1.8487988909934696 12.79864411350986 80.49761490400198 115.61911080601779 0.5380872321341345
1.8681868249161304 12.76675075030196 73.40771395403046 121.38400225513976 0.5498941934513272
1.8868604415054044 12.73291118085652 67.03507249234852 127.47939259069847 0.5621989665861681
1.9047853019418424 12.697107944545598 61.28122297606483 133.92780849353647 0.5750311856534336
1.9219307284289757 12.659307300048068 56.0970749495384 140.75470725461545 0.5884263830445239
1.938247273015897 12.619430367874182 51.41359883503945 147.9878555211215 0.6024231847088832
1.9537582275648855 12.577638070495032 47.181214412632706 155.6558609732879 0.6170577694248529
1.9683681740459484 12.533689204977364 43.35590677548471 163.79222359041464 0.6323772750480862
1.9820882846713364 12.48770512904512 39.89652625300378 172.43056332915543 0.6484227999171569
1.9948823873479786 12.439644046280744 36.76031445190716 181.61039697362747 0.665248335224926
2.0067167352193813 12.389486391799098 33.91873012875927 191.37357019629098 0.6829078323342737
2.0175760347503684 12.33724191817882 31.341517571647678 201.7660816956573 0.701460478304866
2.0274171618908388 12.2828730805774 29.003688034047507 212.8379836845841 0.7209693632843428
2.03623263913247 12.22642420738813 26.88030097572276 224.64443712134528 0.7415038360141134
2.0439838060632733 12.16784781681466 24.951637010077103 237.24684506655063 0.7631419111589534
2.0506502447261665 12.107161192327881 23.197383498470977 250.71181122553273 0.785965436956895
2.056224114087593 12.044410059126648 21.601860654764554 265.11243593344955 0.8100626972722966
2.0606835403765946 11.979600638680473 20.14955966266219 280.53061886609333 0.8355340422352731
2.0639965205002224 11.912722262517669 18.828191073606863 297.0556475737495 0.8624851547912407
2.0661655500563256 11.843840579364008 17.62430480125812 314.7879736915819 0.8910369386280794
2.067165961980174 11.77296720676052 16.529198687585367 333.837064143183 0.9213156592358628
