M[M_sun], R[km], Lambda[1], P_c[MeV/fm^3], rho_c[fm^-3]
0.24162668629717493 15.618656898711224 2160425.4255784233 3.5677272577965504 0.1711233750220791
0.2536449515792721 15.277282330232003 1723189.893441388 3.7848463314273904 0.1738885061726472
0.26604254462332066 14.981206066651573 1382861.9716597674 4.011457668805546 0.1766673400765071
0.2788199442115862 14.723411639586596 1116393.2120041393 4.247816531584078 0.17945853856238378
0.29197601209371093 14.49829472055005 905779.8607000646 4.494548466300779 0.1822686744570855
0.30551288113675557 14.301137205219844 738576.4572512534 4.751810362633857 0.18509347917134888
0.3194309024948945 14.128039645167807 605021.2979504287 5.020282461430957 0.18793952649472026
0.3337321669699522 13.975796504658819 497597.7430757181 5.300191587324577 0.19080349351538928
0.3484140553155717 13.841870897904188 410917.5953672112 5.592263247842155 0.19369161375189883
0.3634798298507486 13.723852697597161 340609.65768081596 5.896668676128086 0.1965990230658793
0.37893413650446645 13.619900150974448 279330.76991995267 6.214270383517123 0.19953336894298787
0.3947694010458624 13.528349431985067 236362.14900012204 6.545322290350339 0.20249076728262433
0.4109964350966143 13.447768016174358 197822.02437093342 6.890533868055627 0.20547504843854536
0.42760710207628105 13.376969133571615 166042.39825450996 7.250607251917659 0.20848923034000955
0.444604939481103 13.314827912120405 139767.7945588399 7.625796530751378 0.21152878098310413
0.46198659575327117 13.260480335133494 117940.48902365859 8.017060556008085 0.21460001369242296
0.47975569260189194 13.21308189679726 99780.63180089953 8.42510008961049 0.2177045040388277
0.49791628683084915 13.171935263714186 84618.68950089342 8.85034952401747 0.22083962537903729
0.5164572885716191 13.13633555718672 71918.62353032356 9.29369521352277 0.22400896880962076
0.5353783822237917 13.105783628859884 61256.49678750331 9.756016267217563 0.22721536633826867
0.554688472673624 13.079760211160666 52286.560671516825 10.23811851728924 0.23046011638293123
0.5743739505499039 13.0577865832626 44714.71740195936 10.740476042884477 0.23373995265190173
0.5944330645861482 13.039489063861982 37980.28116354316 11.264340307931285 0.2370611428653575
0.6148736961983722 13.024473995822701 32889.00041809237 11.810644520740558 0.24042524067520016
0.6356830025410344 13.0124160335565 28280.89590094053 12.380368176370391 0.24383387991093916
0.6568546918984156 13.003005560994666 24360.494642674134 12.974187522419582 0.247284865203247
0.6783894301991594 12.995963656430039 21018.94937181621 13.593455173966127 0.25078326870228557
0.7002807529893637 12.991049632692913 18162.957095366237 14.239357233184442 0.2543315894103557
0.7225193480341476 12.987987544467567 15721.737532441337 14.913084027210328 0.25793181317000835
0.7451103970233557 12.986644600327908 13627.853192648317 15.615647311917606 0.2615836540962182
0.7680345166356434 12.98675650212936 11831.061697528246 16.348349628086126 0.2652893674806408
0.7912824799776575 12.988155948387302 10285.512778066503 17.11279057812518 0.26905347020109843
0.8148598501947214 12.990685581423483 8951.755553259185 17.91042604977659 0.272878396494675
0.8387470279480875 12.9941468585859 7803.6275528335145 18.742595327903604 0.2767649907884644
0.8629306367027433 12.998424783073894 6810.548259301038 19.610695764301205 0.28071420306780426
0.8874168175157974 13.003374105709852 5952.3388178229925 20.516789075275067 0.28473216691969866
0.9121753420235882 13.008871728801232 5208.436019688547 21.46267050118759 0.28882189790215623
0.9371990049281184 13.014767842573661 4562.774635512637 22.44979091278493 0.29298304624576305
0.9624863688264301 13.020972763358762 4002.3136455418958 23.480243536865206 0.2972199509790129
0.9880112364666969 13.027352216702605 3514.945878252391 24.556419827301404 0.3015384516738292
1.0137564464878892 13.033814856371297 3090.3356209535186 25.680222520960676 0.3059398814029618
1.039725056988163 13.040270082000848 2719.9387406157407 26.853693825870206 0.31042609460107456
1.0658788094328562 13.046602521590422 2396.8327855962834 28.07989372931801 0.31500553945351656
1.0922147943479548 13.052733459913927 2114.5789089541586 29.360829691357853 0.3196783293111274
1.1187164284870976 13.058563900269105 1867.2893300640956 30.699355007423755 0.3244498120351914
1.1453511682700719 13.064025870525064 1650.9356459467556 32.09877110377586 0.32932737562518827
1.172118130780399 13.069028339546119 1461.1267181974063 33.561125228767516 0.33430940270650816
1.1989768422782037 13.07348171002418 1294.6109275993545 35.090911812414575 0.3394091306701691
1.2259257116746534 13.077347009545916 1148.3300488397028 36.69009357798946 0.3446229461044545
1.2529243766708085 13.080516015511567 1019.5052862390172 38.36378323528768 0.34996565618610737
1.279969726905141 13.082950291953624 906.1111919227985 40.11428987251966 0.3554342279362669
1.3070232644073345 13.084550002569108 806.2345187148235 41.946957523453406 0.36104247203395073
1.3340562747683875 13.085240098451049 718.0942627397828 43.86540674488786 0.3667930800469582
1.3610662324141807 13.085029900055156 640.1784471399706 45.87419236451387 0.3726930542210962
1.3880073562738442 13.083779863213916 571.387522101683 47.97871833107773 0.3787527341988882
1.4148523715778585 13.08145377151201 510.48521875698435 50.18382426986884 0.38497818247099885
1.4415852509277818 13.078008191983693 456.56592042735946 52.49457896194572 0.3913755754339115
1.4681804264212897 13.07340678204149 408.71747012218094 54.9174790862884 0.3979570093238323
1.494592246534784 13.06752905416447 366.2733661883614 57.45871917434976 0.4047315529853209
1.5208051140524397 13.060375467484524 328.6150881021039 60.12493228427868 0.4117089859927182
1.5467900388642692 13.051878747695094 295.0855727992155 62.923229481820854 0.41889985718057327
1.57250713675256 13.041987420246139 265.26690344258327 65.86124310192247 0.42631554795433085
1.5979212700664331 13.030642064496178 238.74159422821762 68.94717417493729 0.4339683409408041
1.6230297745478441 13.017829427852025 215.07124186568504 72.18984444906992 0.44187149460649167
1.647771898741112 13.003465375042692 193.9463313136478 75.59875349480814 0.45003932454772727
1.6721199570316183 12.987520209383685 175.11318713369428 79.18371607492625 0.45848551607274785
1.696056282631136 12.969958071499605 158.24421454576478 82.95519143370937 0.46722444250784434
1.7195362546074793 12.950732416902213 143.1743181188815 86.92580153835456 0.47627713445037323
1.7425185375631598 12.92978291675059 129.683904959221 91.1069950630213 0.4856573942718557
1.764998480600121 12.90711639861673 117.58450895385171 95.51314947163141 0.4953882618201865
1.786909653109958 12.882635670786168 106.74647282531105 100.15766208980952 0.5054861622018556
1.8082602394532774 12.856393689184678 97.01316963439457 105.0572133973908 0.5159773737359606
1.8289629643288177 12.828233969248387 88.26863822322585 110.22836055950538 0.5268844570092355
1.8490450938139822 12.79825827284031 80.41037010669643 115.68892464739282 0.5382314434395107
1.8684166086272964 12.76630401316356 73.33061812539127 121.45879719334233 0.5500464485362205
1.8870929092612623 12.732467373627916 66.95777849612404 127.55942100073999 0.5623593206370449
1.9050119970202164 12.696633260771563 61.21014785672614 134.01357028860699 0.5752005060657038
1.9221508100820042 12.658795574697178 56.033944895831674 140.8468221755386 0.5886058579400162
1.938458765100519 12.618888433083113 51.354409371354436 148.08687525500662 0.6026136540935502
1.953949671314867 12.577025842203964 47.12896579581488 155.7620652723324 0.6172590372027424
1.9685592587276906 12.533071130579836 43.30890230054873 163.90625611520395 0.6325902887520689
1.9822703528414443 12.487056004738557 39.84989455594987 172.5534741605507 0.6486497413285359
1.9950520616760838 12.43895400290873 36.71837797111252 181.74263171384237 0.6654892026377659
2.006883155193605 12.388773979100907 33.87807059092906 191.51598765344391 0.683163857905038
2.0177225710418054 12.336478853767382 31.30526310540714 201.9196292412204 0.701733010052024
2.027553027464737 12.28207673410749 28.971463333149998 213.0033202548404 0.7212586097222334
2.0363545066368243 12.225583768250623 26.85018814484961 224.8230932394389 0.7418126473674372
2.044090701968334 12.166967340691555 24.924313244232117 237.4396911877262 0.7634707315107041
2.0507417828709755 12.106235977949185 23.170424691206282 250.9203060140694 0.7863163569516161
2.056306315436285 12.043463964485367 21.579616021279193 265.33829648942344 0.810438339179049
2.060743207487457 11.978591759824358 20.1285489754442 280.7750244037925 0.8359349242019902
2.064039097473738 11.911670597501184 18.808263903125802 297.3208108270081 0.8629147667737669
2.0661871188861594 11.84274197132803 17.60813239649839 315.0760241959369 0.891498050830378
2.0671722302871554 11.771833233276999 16.512599342978636 334.14990195785646 0.9218097615748312
