M[M_sun], R[km], Lambda[1], P_c[MeV/fm^3], rho_c[fm^-3]
0.24162668629717493 15.618656898711224 2160425.4255784233 3.5677272577965504 0.1711233750220791
0.253644272984852 15.277286556561956 1723127.5902567836 3.7848242040950963 0.17388823036612472
0.2660404178673379 14.981257833930252 1382941.592054327 4.011411152412261 0.17666677795334634
0.2788160073908278 14.723475488585304 1116400.4817668262 4.247744052073663 0.17945769790928726
0.29197054115618365 14.498380247866825 905879.076146844 4.494448121410233 0.18226755709344045
0.30550558754647905 14.301236039620512 738647.9991256668 4.751678744790755 0.18509205744744697
0.31942223180260065 14.128136556659724 605092.4622271018 5.020118600744569 0.18793782637685458
0.33372163357424867 13.975911495545363 497673.0891209836 5.299991169328193 0.1908014756387193
0.34840238787016276 13.842015945608889 410999.6453234414 5.592025771771868 0.1936893161055914
0.36346597645363043 13.723961772460976 340639.39491632703 5.896388806208624 0.19659639446836893
0.378918522943967 13.620032584380668 283297.1593349085 6.213944732401823 0.1995303993969258
0.39475215938729513 13.528438540819023 236403.82230841342 6.544951195780373 0.20248751328456993
0.4109774329903147 13.447848309506009 197858.3607255638 6.890110165365623 0.20547144000863735
0.42758530012323515 13.377062768246995 166075.4905706577 7.2501269645121615 0.20848525704539098
0.44458043929937613 13.31491623130702 139801.31940210276 7.625260985755633 0.2115245177005837
0.46196215071085883 13.26058054195735 117978.51585887038 8.016460411313581 0.21459537108801482
0.4797273205067877 13.213140361669138 99808.931904193 8.424430664639054 0.21769947089888148
0.4978843524002676 13.171977016822321 84640.19928418909 8.849613286763512 0.22083429470674865
0.5164230820297435 13.136393643471557 71935.65677433478 9.292880248161309 0.22400323140266892
0.5353420584446983 13.105849078272911 61274.81287123655 9.755117047185685 0.22720920980194553
0.5546491162077312 13.07981707077096 52297.401494354024 10.237133311494278 0.23045358090420576
0.5743311026420249 13.057852083706642 44728.231995259026 10.7394008872004 0.2337330498193684
0.5943886493293362 13.039520976458254 38327.292603419184 11.26316316316364 0.23705378804354732
0.6148261347541003 13.024498508092089 32900.89526100745 11.809358431743739 0.24041741910830738
0.6356309977693377 13.01242762849033 28290.39167011888 12.378965754036539 0.24382557606423652
0.6568013333875985 13.003020964710862 24369.992102043445 12.97267520696889 0.24727622142828498
0.67833342942472 12.995975437046468 21027.243939616128 13.591811487724431 0.25077411709766173
0.700220328661382 12.99107242426672 18171.868654464295 14.237573361502266 0.25432191181941805
0.7224565829856342 12.988012829288083 15729.08290092427 14.911150589018838 0.2579215903534749
0.7450444640189167 12.986649629043654 13633.190477975675 15.613573189862514 0.2615730525600921
0.7679648540050481 12.986751641606586 11835.648086184101 16.346106730795658 0.26527818720018587
0.7912106540378309 12.988130875498952 10288.198659559212 17.110367647038544 0.2690416883076974
0.8147864239360499 12.990657366807653 8956.076773556364 17.90781107982428 0.2728659886492306
0.8386679265182861 12.994133335745703 7806.9984628321 18.739799918248906 0.2767521473274849
0.8628495209461959 12.99839645094788 6814.297000537662 19.607683563108345 0.28070068922074776
0.8873294718073389 13.003366573465945 5955.137840340407 20.51354558236566 0.2847179534308581
0.912085529226178 13.008857707372295 5210.933224062998 21.459180223338915 0.2888069535431473
0.9371058922045334 13.014739429567824 4565.085399224334 22.446068390412115 0.2929675850071092
0.9623902664389465 13.020957470034782 4004.332538482602 23.47624204851893 0.29720369974588057
0.987911166104249 13.027333577665605 3516.364583132992 24.55212053500782 0.3015213726265167
1.0136528816642372 13.033794787543492 3091.720878553596 25.67564206827759 0.3059222045539124
1.039617770839149 13.040246578105645 2721.287336608893 26.84877620775946 0.31040751672536543
1.0657682683585394 13.046574956991764 2398.2226150626734 28.074615922446224 0.3149860145509315
1.0921010963535642 13.052700768461632 2115.6605071147005 29.3552104031995 0.31965810332401784
1.118600564148863 13.058537606283288 1868.5131518858414 30.69332713928572 0.3244285483397384
1.1452306050097065 13.063995791148004 1651.99157285361 32.09235433160954 0.3293053282280514
1.1719939427066095 13.06900660428567 1461.9952954774446 33.554244272969704 0.3342862131760133
1.1988508456143132 13.07346899805824 1295.4349627992299 35.08353419044664 0.33938473487439896
1.2257961800287696 13.077337004151072 1148.9941450481983 36.682240701804005 0.3445976139414793
1.2527924293338968 13.080494221060011 1020.1115600019752 38.355423230876625 0.34993933133366173
1.2798345277069823 13.08293861865686 906.6530451349292 40.105327704078775 0.35540650198117785
1.306877767328634 13.08452380356684 806.6802490879871 41.93741463107918 0.3610136224245616
1.3339161492246343 13.085237408483458 718.5471016210358 43.855176118877104 0.36676266933556406
1.360923475663451 13.08503621030684 640.5659089793185 45.86329544448198 0.3726613674578782
1.387854953943264 13.083771997280827 571.7691022814054 47.96710856529898 0.378719689057768
1.4147120941806384 13.081482034294723 510.7846780584819 50.171374331021916 0.38494329637033814
1.4414351043455567 13.078031371910217 456.8384810703608 52.48130861698639 0.39133914003862175
1.4680301578968686 13.073430513401638 408.98964741027004 54.90332956535784 0.3979189213582231
1.4944392203782921 13.067566311544816 366.50783932158697 57.44362694664948 0.4046917011891058
1.5206509673210242 13.060421286273563 328.80956855305914 60.1088286317594 0.4116672504652149
1.546634871271439 13.051932178060655 295.2673640706563 62.90604003032927 0.4188561086599052
1.5723516418177832 13.042050712197817 265.4488366149496 65.84288730506624 0.426269647024653
1.5977751970706109 13.030724102908323 238.9024228734631 68.92756474535481 0.43392013715975974
1.6228621195592747 13.017900192437303 215.21241675053224 72.16888673113579 0.44182082554417457
1.64761454203498 13.003562361219924 194.08571058376367 75.57634477206528 0.449986014727371
1.6719635209720405 12.98762823461722 175.22470934529153 79.15986184039689 0.458429864416501
1.6958996001565576 12.970078569070276 158.34925287198115 82.92965890570844 0.467165768832861
1.719380402479878 12.950867091497889 143.2664262508527 86.89845925601715 0.47621521763353786
1.7423620545490284 12.929922644320138 129.77699132583066 91.07783164630811 0.48559251640433665
1.764845836894389 12.90727878511328 117.67092932358582 95.48188392028149 0.49531965821926643
1.7867724298932168 12.882844083415058 106.81234456237534 100.12426717820266 0.5054140974314052
1.8081107989672218 12.85658585281674 97.07879932750036 105.02151592251738 0.5159015700732421
1.8288208805512365 12.828451780828471 88.32599279389697 110.19017159684977 0.5268046140468831
1.8488993356304633 12.798487486868753 80.45659628029617 115.64788188968879 0.538146663264861
1.8682775339398763 12.766547736519438 73.38354801999142 121.41482595472233 0.5499569392080516
1.8869560364986897 12.732727586329275 67.00217194782545 127.5124415719301 0.5622652950298195
1.9048795789147888 12.69691134708628 61.25358007960591 133.9631513973155 0.5751009635193677
1.9220210989614541 12.659095789419048 56.06993463056973 140.79266811092077 0.5885003452283907
1.938334433326016 12.619208778045058 51.38952888285803 148.02866164532557 0.6025016773190209
1.9538315284571164 12.577364015230165 47.15856225940177 155.699627638102 0.6171407116357804
1.968447882848459 12.53343513877978 43.338653230412866 163.83921600600465 0.6324650572709425
1.9821626365744625 12.487436290428322 39.875960794137605 172.48121415306537 0.64851632112546
1.994953632348763 12.439360699368846 36.74313382933254 181.66488981057142 0.6653475946830054
2.00678894090207 12.38920099252511 33.90176005317124 191.43225889459725 0.683013337711084
2.0176361691602653 12.33692781229015 31.324577024887994 201.829356589975 0.7015727850007263
2.027473087021876 12.28254253070796 28.989972623608715 212.90611627567563 0.721088557176214
2.0362830914268324 12.226078631591102 26.867623346350594 224.71805799484787 0.7416310914466271
2.044028439494288 12.167484551174555 24.940551750617804 237.32631286600432 0.7632774110570583
2.050688493867534 12.10677848399115 23.186739361850638 250.79776528891654 0.7861101675857802
2.0562609443528737 12.044034059976811 21.59238216076945 265.20555948619733 0.8102176602744333
2.0607082760264697 11.97918514701759 20.14062108554058 280.631331096874 0.8356992337343198
2.064013858217175 11.912290169743647 18.82036881959948 297.1649126135636 0.8626621837339712
2.066175646141061 11.843390492343708 17.617669164167687 314.90666888061935 0.8912269462801815
2.0671678369603894 11.772500585204899 16.52189643672983 333.9659722874212 0.9215192593525771
