M[M_sun], R[km], Lambda[1], P_c[MeV/fm^3], rho_c[fm^-3]
0.24162668629717493 15.618656898711224 2160425.4255784233 3.5677272577965504 0.1711233750220791
0.2536448031982261 15.277271080315261 1723198.7864828727 3.7848349521776985 0.1738883643357893
0.2660408861498081 14.981250148153288 1383030.537614605 4.011433747136495 0.17666705099725422
0.27881767287140613 14.723467326411892 1116417.9696227703 4.2477792579669185 0.17945810624459488
0.29197286963552815 14.498372528206946 888687.7245033494 4.494496862418436 0.18226809983587897
0.30550964427520316 14.301154868607936 738574.1104217453 4.751742676031032 0.18509274802685657
0.31942727558036516 14.128070407179404 605050.209310616 5.020198193271701 0.18793865218004346
0.33372747440504213 13.97587643298765 497656.1529028225 5.300088518750471 0.1908024557858697
0.3484081702040693 13.841967117901625 410969.2324182418 5.5921411212708 0.1936904321437251
0.3634723731174422 13.723917359906208 340634.525403237 5.896524747452392 0.19659767125729863
0.3789265036785547 13.619948502486745 283273.24130315945 6.214102910645868 0.1995318417920525
0.3947602659388736 13.528385457949998 236386.35595234323 6.5451314469187425 0.20248909384354608
0.4109863534230838 13.447814062744907 197836.10843856708 6.890315969368795 0.20547319272189066
0.4275954264253087 13.377004442614446 166056.64548653012 7.250360252824032 0.20848718697980842
0.4445913781917431 13.314884913533882 139776.1244061638 7.625521113705434 0.21152658848632583
0.4619750616879332 13.260522934948357 117967.04708396023 8.016751916457203 0.21459762611597252
0.4797407460711255 13.213120200210783 99792.83538843559 8.424755820331983 0.21770191561513297
0.49789910476234406 13.17195057522019 84629.78927070845 8.849970894200187 0.22083688393738407
0.5164389050198673 13.136375425101084 71927.92113460157 9.293276094940454 0.22400601818867227
0.5353595129788323 13.105810725077072 61262.986006046216 9.75555381754067 0.22721220016299176
0.5546674572628724 13.079802836962212 52294.95712802203 10.23761385277664 0.23045678112168652
0.5743522369931345 13.05782668611287 44721.27104866987 10.73992311150648 0.2337364026611783
0.5944110808686471 13.03951578414155 38320.46631758375 11.263734924556676 0.23705736041907777
0.6148488889949486 13.024486550000825 32894.37085791004 11.809983108287376 0.2404212181839425
0.6356555206619092 13.012415489462946 28286.287830034107 12.379646934558997 0.24382960938465562
0.6568272983697657 13.00300869733071 24365.782673782865 12.973409763356981 0.24728041985138027
0.6783602555212355 12.995978829666354 21022.841508601927 13.592609851641198 0.25077856217405575
0.7002510932500773 12.991055118980086 18168.667885380368 14.238439814124407 0.2543266123671804
0.7224859125628695 12.9879956309462 15725.107150536096 14.912089686616762 0.25792655571647066
0.7450763955762804 12.98663924604008 13630.671129216791 15.614580618071173 0.26157820186484126
0.7679990382719039 12.986758744034137 11833.373994674019 16.347196133405824 0.2652836175989659
0.7912466133013406 12.988144271908597 10217.682609494157 17.11154449216303 0.2690474109070246
0.8148223207017924 12.990672743420182 8953.91579293743 17.909081198131044 0.2728720152697784
0.8387064263436177 12.994130541644708 7805.482896897805 18.741157676022986 0.276758385521934
0.8628904222847533 12.998399527236081 6812.299400555199 19.6091466160171 0.28070725301645016
0.8873709335419497 13.003363516141883 5953.686662554193 20.515120972867866 0.2847248570363069
0.9121244248458733 13.008878582285613 5209.547887488501 21.46087547617885 0.2888142121248847
0.93715133800549 13.01474600427009 4563.939379540769 22.44787644340457 0.2929750946298906
0.9624371572915503 13.020972361511411 4003.356694068289 23.478185593500477 0.29721159305953415
0.9879577391088453 13.027348905843278 3515.4287856946 24.554208721141833 0.3015296679987186
1.0137028850279308 13.033802233797452 3090.8531122991076 25.67786681197515 0.3059307902683027
1.0396694185389137 13.040260546216773 2720.632547588688 26.851164709529275 0.31041654005495534
1.0658225133300105 13.046584234170846 2397.4364842805476 28.07717936410785 0.31499549783630776
1.0921558924983243 13.052721913624392 2114.9694412841422 29.357939698830425 0.31966792711249314
1.1186559842295067 13.058552361374673 1867.8198025078498 30.69625487709419 0.32443887612457045
1.145290124369205 13.064002246774029 1651.5587095590577 32.09547095535989 0.32931603664028253
1.1720550195499877 13.069012521210565 1461.5672436865032 33.557586343940606 0.3342974762997672
1.19891165372688 13.073481163682187 1294.9452051469214 35.08711748435561 0.33939658385592275
1.225859518659186 13.077345605065368 1148.647052774841 36.68605481937195 0.3446099176943408
1.2528567010635137 13.080497717031166 1019.7941795506815 38.35948365233698 0.3499521172115818
1.2799005111221786 13.082944639475487 906.4068988721548 40.10968058524517 0.355419968341303
1.3069451128400797 13.08452150038801 806.5279075002928 41.94204955910436 0.36102763451417025
1.3339834268002826 13.08523968346869 718.3513069584507 43.86014506460602 0.3667774396120199
1.3609926500457297 13.085032318685391 640.3952912179845 45.86858799536829 0.37267675747691686
1.3879264737917227 13.083767829910634 571.6297911111194 47.972747329795595 0.3787357388017581
1.414776857959916 13.081461297531751 510.63926728772253 50.17742114697184 0.38496024021500275
1.441507860182204 13.078019270451499 456.7185923083264 52.48775388429663 0.3913568363278227
1.4681036211828438 13.073418751882635 408.86004980046164 54.91020182613042 0.3979374202482737
1.4945136230217102 13.067548177638425 366.3919290298868 57.450957055090136 0.40471105671392377
1.5207258665851555 13.060397227073858 328.732426182832 60.11664996120274 0.4116875208547867
1.5467103080391753 13.051906292369344 295.177610284141 62.91438870092198 0.4188773566903124
1.572426578728002 13.04202184210286 265.3639404928365 65.8518024344106 0.4262919404030505
1.5978401349414968 13.03068178725506 238.81709607949546 68.93708872469134 0.4339435489480873
1.6229380409300362 13.01785908456204 215.15241688834274 72.17906552996543 0.44184543462584236
1.6476905291230939 13.003515059341556 194.02494476713954 75.5872282744666 0.45001190632166305
1.6720391806397124 12.987578762156806 175.16672962156773 79.1714473791583 0.45845689334588424
1.695975983822985 12.97001745730439 158.30368972695615 82.94205953007345 0.4671942654315353
1.7194565215490372 12.950801569618424 143.22419292509025 86.91173880910132 0.47624528928760906
1.7424321366894486 12.929826425587496 129.73747132506372 91.09199565532619 0.48562402611081756
1.7649205947051096 12.907199041819599 117.63773748875715 95.49706885011062 0.4953529773459416
1.7868464056369604 12.882759521895757 106.78258082417248 100.14048625134734 0.5054490974876069
1.8081836709774293 12.856493464917452 97.04662288037382 105.03885325329114 0.5159383859314807
1.8288964536451249 12.828361121444035 88.2960613137406 110.20871893420772 0.5268433915955628
1.8489711970409457 12.798373780044475 80.43108791414602 115.66781518176207 0.5381878385678341
1.868345716433353 12.76642773109068 73.35832845655491 121.43618147226132 0.5500004112158369
1.8870206403292276 12.732602555980678 66.97963684785871 127.5352580258841 0.5623109603559442
1.9049436066679306 12.696776270460992 61.23021917332457 133.98763822573034 0.5751493081217512
1.9220829700610027 12.658950305979344 56.05174155286634 140.81896891932936 0.5885515892048626
1.9383951119652292 12.61905277893253 51.36878553017793 148.05693395710915 0.6025560605173719
1.9538889410044145 12.577200403472325 47.145737379428574 155.72995133040186 0.6171981780681332
1.9685025082457284 12.533257609948459 43.32264982762878 163.8717748636301 0.6325258774875697
1.9822150350701506 12.48725157571362 39.86316862771539 172.5163080077712 0.6485811180910916
1.9950007343720257 12.439161966374094 36.730507014340354 181.70264589525848 0.6654163679147806
2.0068346685290885 12.38899458064414 33.89037414303793 191.47292242657448 0.683086439030205
2.0176777034985727 12.336709904128258 31.315328159422382 201.87319807472193 0.7016505993115462
2.02751260513339 12.282316784193444 28.98100636501294 212.95332386013476 0.7211711440208852
2.036317842707114 12.225837038537456 26.859333256964298 224.7690686957084 0.7417192646574571
2.0440582620072996 12.167233492153224 24.932982071017744 237.38137522667645 0.7633712974401189
2.050714085057612 12.106515089611156 23.178532331515992 250.8572771799852 0.7862103034309357
2.05628329956433 12.043756688179524 21.58625058435643 265.2700848524674 0.8103250342327515
2.0607254815440443 11.978897234371765 20.134975622262438 280.70111522549934 0.835813695947379
2.0640266082999137 11.911991409244116 18.814842214611133 297.2406237159409 0.8627848492858221
2.0661829877863642 11.843077430818685 17.612224525183375 314.9889150174484 0.8913586061686747
2.0671683802914007 11.772179446733434 16.516413624193028 334.0552959945737 0.9216603390128971
