M[M_sun], R[km], Lambda[1], P_c[MeV/fm^3], rho_c[fm^-3]
0.24162668629717493 15.618656898711224 2160425.4255784233 3.5677272577965504 0.1711233750220791
0.2536413983073512 15.277379638603712 1723302.8158729407 3.7847891476173436 0.17388779340404134
0.26603626937513075 14.981348417111686 1383076.2604232694 4.011337456975023 0.1766658873874794
0.2788098994176267 14.723608087854219 1116571.8227454652 4.247629224729298 0.17945636608513374
0.2919618000035548 14.49853517166611 905998.3707675763 4.494289149295536 0.18226578690204778
0.30549490376560445 14.30135241587269 738738.9796157556 4.75147023040942 0.18508980509417286
0.3194092986358563 14.12828042187529 605198.8059656495 5.019859008440724 0.18793513300650874
0.3337050368992389 13.976150464919963 497782.7289689774 5.299673665162772 0.19079827889860818
0.34838399521496916 13.842164605735004 411094.39437301696 5.591649563339177 0.19368567618551374
0.3634427602883547 13.724155065417365 340726.0255030419 5.895945441968053 0.1965922302975956
0.37889505600734846 13.620161383056006 283369.2370792234 6.213428847511641 0.19952569514789317
0.39472484369573346 13.528563111131765 236468.2334523408 6.544363326183187 0.20248235846237553
0.4109455577643288 13.44802479333401 197929.64141258274 6.8894389629619806 0.20546572376730876
0.42755065562038896 13.377175044716056 166128.68737388696 7.249366131433902 0.20847896286831935
0.44454297837038237 13.315043046410551 139849.86241907728 7.624412625162356 0.21151776420476714
0.46192031513420134 13.260677529757102 118021.65484669531 8.015509726698362 0.21458801677392061
0.47968126821336393 13.213276387447205 99846.40283267628 8.423370243455302 0.2176914980140213
0.4978347674947183 13.172086764029615 84678.27883074127 8.8484470391904 0.22082585057602006
0.5163691684467124 13.136489699242498 71968.34062993835 9.291589301915735 0.22399414306061896
0.5352831821602011 13.105938344193852 61302.496982230725 9.753692650223723 0.22719945762636667
0.55458647809938 13.079883425115842 52322.28886771698 10.235566180001431 0.23044314441980338
0.5742646580762587 13.057907595962748 44751.2641786245 10.73769783047933 0.2337221156676782
0.5943185031844319 13.039606171620056 38347.465494049284 11.261298571505414 0.2370421380411245
0.6147512473073858 13.024543863378366 32918.88522815268 11.80732129120734 0.24040502989495213
0.6355484463176616 13.012471459633797 28307.960870371015 12.37674436359926 0.24381242304662362
0.6567162126715613 13.003069112336627 24384.55151443255 12.970279767529544 0.24726253007874585
0.6782434055817245 12.996002060368392 21039.876623188964 13.589207986090573 0.25075962149808423
0.7001270267598108 12.991082088865934 18182.697079924917 14.234747839647595 0.2543065832254568
0.7223562487419307 12.988002760114387 15739.106624069056 14.90808819215114 0.25790539830685616
0.7449406102168311 12.98665509625577 13642.229963844646 15.610287986356644 0.26155626077893174
0.7678554907046022 12.986756239826356 11842.844136302097 16.342554235813903 0.2652604789036983
0.7910954702990622 12.98812744285577 10295.53127417079 17.10653003333897 0.26902302729180144
0.8146654129321861 12.990643567399456 8962.09984278317 17.903669338323613 0.27284633638195865
0.8385419503795589 12.994114639650848 7812.062317858064 18.735372418406293 0.276731805256558
0.862718224486759 12.998376423379636 6819.12526463651 19.60291274188341 0.280679285554711
0.8871899528797412 13.003315977005094 5959.75761216343 20.508408480573312 0.2846954418542838
0.9119446842726712 13.008809362980198 5214.861756083614 21.45365230971589 0.2887832846178253
0.9369583483210258 13.014702399887966 4568.430960392284 22.440172690869904 0.29294309762771314
0.9622323892607644 13.0208977767185 4007.435335331164 23.469904583566894 0.29717796141766606
0.9877531537734501 13.027294662333599 3519.296514142072 24.545311478418295 0.3014943234770974
1.0134894796110328 13.033758779217436 3094.1700274709356 25.66838777516233 0.3058942088396826
1.0394485029908627 13.040203805255395 2723.582546909582 26.84098800234421 0.3103780942877252
1.065597071722471 13.0465456599171 2400.0496731458843 28.066257353038676 0.3149550925681085
1.0919207466970529 13.052668027076601 2117.35452739127 29.346311091694623 0.3196260712668054
1.1184144288207656 13.058501830394603 1870.0816313428306 30.683780849042897 0.32439487318232263
1.1450410687459067 13.063961388239923 1653.437171017295 32.08219221704045 0.32927041220332004
1.1717989195648912 13.068972636117849 1463.3333995789935 33.543347147950676 0.33424948874115856
1.1986488342442865 13.073440162091519 1296.5790606123985 35.07185063004353 0.33934610050756625
1.2255915796054604 13.077303465479519 1149.9913624346918 36.66980460754157 0.3445574970264547
1.2525816637135399 13.080471672259684 1021.0546674921604 38.34210724677558 0.3498971916047415
1.2796204682388141 13.082922933474652 907.5115964351843 40.09113516055767 0.355362594992946
1.3066595073122673 13.084517486078438 807.4855434611098 41.92230257910295 0.3609679364019716
1.3336930942194358 13.085229219952298 719.1885113727216 43.83897515034493 0.3667145116785625
1.360696735029806 13.085043063905792 641.1907227174315 45.84603950196618 0.37261118952108485
1.3876242509335028 13.08378801460151 572.3188531881646 47.94872395363889 0.3786673605183016
1.4144773754847875 13.081508393067544 511.26759684164716 50.15165948616542 0.3848880532024294
1.4412061497981712 13.078083649109635 457.28172140466927 52.460294831838716 0.3912814440577912
1.467791639532803 13.073476955414131 409.3940902923421 54.88092380650051 0.39785860908496706
1.494196771000484 13.067622767046604 366.86599464319255 57.41972864548815 0.40462859650723365
1.520407055775715 13.06049394339536 329.1420531453953 60.08332900994449 0.4116011635842227
1.5463892624883422 13.052020681158748 295.5707669234518 62.878821357871516 0.4187868349745198
1.5721039799972718 13.042153366871688 265.7170353589771 65.81382208365466 0.4261969658605207
1.5975268833732503 13.030843949826867 239.15364094898388 68.89651480846943 0.43384381039294745
1.6226135019445058 13.018043337456108 215.44750546915967 72.13570225151685 0.4417405960806873
1.6473652692265677 13.003718353275872 194.28703116173577 75.54086316592895 0.44990160482722696
1.6717143616172223 12.987803043906911 175.4053237645121 79.12209179468724 0.4583417473319778
1.6956527959055676 12.970275154632239 158.51932085337143 82.88923197720297 0.46707286786889773
1.7191181018612822 12.951046851754723 143.42523860677446 86.85516737355188 0.47611718281976545
1.7421221250456997 12.930166561770115 129.91561794331568 91.0316567886117 0.48548979434231626
1.7646070143207215 12.907546467248284 117.79308252446178 95.43238134863628 0.4952110385236897
1.786532529716111 12.883125846909032 106.92620946882526 100.07139379179141 0.5052999989573767
1.8078736570427305 12.856892387400105 97.17868460412855 104.96499759220399 0.5157815532803546
1.8285880125803617 12.82878334509184 88.41671386013964 110.12958766049253 0.526677750697458
1.848672338794065 12.798843050314762 80.54677766135121 115.58290228005806 0.5380124378141034
1.8680629127704829 12.766963800584884 73.45413500038956 121.34521080492682 0.5498152282741742
1.8867390440116238 12.733143514077126 67.07593351113688 127.43780048907848 0.562115491570086
1.9046688305315187 12.697353670099346 61.319017974917465 133.88333033014118 0.5749433719485442
1.9218167064351048 12.659570421353925 56.13092189295204 140.70693487238714 0.5883333042770242
1.9381441356889584 12.619740484558632 51.444194706252276 147.9365029248448 0.602324405434994
1.9536366226245763 12.577889482111692 47.20974420612265 155.6007831244045 0.6169533913878484
1.9682673895937242 12.534006913591208 43.38113700971698 163.73295537207434 0.6322663621382543
1.9819956277541588 12.488042979074443 39.91970387175735 172.36682332076316 0.6483051109608489
1.9947940788669458 12.43999894281685 36.781765859625295 181.54182272589307 0.665123426281842
2.006634784055172 12.389860183015053 33.93916619771063 191.29971654174716 0.6827750647337588
2.0174986207018164 12.337638391714272 31.357718455320672 201.686457571868 0.7013191533394122
2.0273480494243623 12.283292345884778 29.01973041840847 212.75224751516646 0.7208193729853788
2.0361705073563656 12.22686443087272 26.895734556694453 224.5517956314588 0.7413437029933636
2.043928923296055 12.168307117716346 24.965787224896577 237.14684706328123 0.7629714053774059
2.0506022800480275 12.107640788776775 23.209619909932833 250.60351748365025 0.7857828781866796
2.0561838267374224 12.044911087488519 21.613243621189728 264.9952568941561 0.8098677045429536
2.0606525114869467 11.980123862617177 20.16031263534028 280.4038269447384 0.8353259679140764
2.0639807213719865 11.913281337309867 18.838824788733497 296.9181605370989 0.8622624011567862
2.0661522264333905 11.84440813865714 17.634664582638244 314.6386226571082 0.8907978569969747
2.0671630967690864 11.773556579195606 16.538351294282155 333.6748644049296 0.9210594777057152
