M[M_sun], R[km], Lambda[1], P_c[MeV/fm^3], rho_c[fm^-3]
0.24162668629717493 15.618656898711224 2160425.4255784233 3.5677272577965504 0.1711233750220791
0.25364350714824335 15.277278973142673 1723245.2379083368 3.784811001287026 0.17388806579949137
0.26603833567435026 14.98131866795836 1382985.2956047603 4.011383397464781 0.17666644255118588
0.27881321200445447 14.723565141115175 1116439.4342728031 4.247700805983519 0.17945719631981205
0.2919666740172992 14.498475506164429 905977.3823293564 4.494388249356658 0.1822668904042283
0.30550291932021895 14.301234040986035 738697.7420821785 4.7516002138292235 0.18509120916318383
0.31941773789931416 14.128183541549092 605134.9639822452 5.020020832386989 0.18793681199240955
0.3337148566593113 13.975979965896872 497701.7943293569 5.299871589592426 0.19080027166919877
0.34839528429399724 13.842074914167116 411034.8333536365 5.591884082087887 0.19368794521892138
0.36345718876358063 13.724032274319256 340676.89120639034 5.896221823313887 0.1965948261296842
0.3789095054444732 13.620046316651887 283331.708190462 6.213750435562082 0.199528627643696
0.39474088162056853 13.528503070823984 236414.5216631974 6.544729786716551 0.2024855718261892
0.4109649206826437 13.447923507347097 197885.15213592345 6.889857369787885 0.2054692870954158
0.42757167036323285 13.377103271997461 166095.39325925702 7.249840410218753 0.2084828864551592
0.4445653682311303 13.314992993198034 139818.19808392483 7.624941464744398 0.21152197410788293
0.46194625267272765 13.260605779496986 117993.0038724112 8.01610235038008 0.21459260119721438
0.47970999672031467 13.213186983949832 99833.67913517733 8.424031271683567 0.21769646802219733
0.49786623989586914 13.17203729687292 84654.58429791617 8.849174034402399 0.22083111433197608
0.5164034045161379 13.136422198087319 71947.27448261032 9.292394027934119 0.2239998083819572
0.5353209916922308 13.105882061265303 61285.621739090144 9.75458056240204 0.22720553674313876
0.554626583337938 13.079849223433634 52307.44400416683 10.236543065143426 0.23044965009376495
0.5743066706199467 13.057888039214165 44736.68097102112 10.738759443897424 0.23372893155466903
0.5943624945716225 13.039538931896578 38334.82787981335 11.262460876552604 0.23704940014409276
0.6147977308266136 13.024522105774047 32906.52958107474 11.80859115306535 0.24041275277376656
0.635598234134962 13.012440309901658 28299.02674403732 12.378129075701574 0.24382062202973118
0.6567686039423688 13.003031824389181 24374.85180950723 12.971772971135675 0.24727106461824153
0.6782984016227365 12.995994122167208 21031.364845083906 13.590830882483607 0.25076865735040066
0.7001866871139972 12.991068821512965 18039.746676774106 14.236509129027692 0.2543161383063036
0.7224188898895625 12.987997719198182 15732.995854626044 14.90999713366005 0.2579154916001947
0.7450047295200822 12.986654665704702 13636.712312624282 15.612335810627348 0.26156672789822805
0.7679237201786562 12.986754011902683 11838.02817802286 16.34476867105987 0.2652715173079999
0.7911674679808477 12.988129995511462 10291.289023909274 17.10892219138313 0.2690346595463175
0.8147403250766936 12.990664091478505 8958.4084092687 17.906251067607204 0.2728585865028068
0.8386207298992839 12.994125796063246 7809.162068878662 18.738132268722776 0.27674448534077734
0.862799131916085 12.998397053480506 6816.193423151109 19.605886592915603 0.28069262734878275
0.8872728251693152 13.003337922005054 5956.854933989894 20.511610642775704 0.2847094742255578
0.9120321637160191 13.008841979996559 5212.375518482004 21.45709807337865 0.2887980383799809
0.9370515500354395 13.014725030436672 4566.426844243067 22.443847703513686 0.2929583615380005
0.9623281690910565 13.020922013988947 4005.6771786752615 23.473854956882427 0.29719400505747073
0.9878506777944343 13.02731824521783 3517.440652627361 24.549555802898578 0.30151118416338213
1.01359173469014 13.033774853186296 3092.5937230884265 25.6729096233618 0.3059116595227432
1.039553432933998 13.040238098320943 2722.164477725044 26.84584264569804 0.31039643425614255
1.0657032028608684 13.046557278150916 2398.954668848828 28.071467511471596 0.31497436720970234
1.0920330201959931 13.052686379029172 2116.2231907056325 29.35185830174389 0.3196460378169784
1.1185298083055208 13.05852850418483 1869.1025904078379 30.689731327176425 0.32441586387952004
1.1451589625861396 13.063979515410136 1652.5299058744627 32.088526544713915 0.32929217632929986
1.1719189839632551 13.068997501109594 1462.5401129789861 33.550139612473714 0.3342723800469336
1.1987743613685937 13.073451794667191 1295.7850954242197 35.07913328355388 0.33937018226839316
1.2257186206269648 13.077322120635941 1149.3825309070578 36.677556319453736 0.34458250284914416
1.252712749059893 13.080485505268248 1020.4725623377749 38.35041718727175 0.34992351567451324
1.2797528193859158 13.082935365604238 906.9543304850158 40.099981670662665 0.35538996313978277
1.3067968520584359 13.084521309915859 806.9607925078794 41.93172221948767 0.3609964134019239
1.3338314624864895 13.085235677231111 718.7683693347759 43.84907350898911 0.36674452922293954
1.3608395301023497 13.085036123249308 640.8169237802032 45.856795423095775 0.3726424662786483
1.3877682231006145 13.083779028775677 571.9803863298362 47.96018336947768 0.3786999777149587
1.414624011740217 13.08149174093168 510.9615020413006 50.163948025416396 0.3849224870436357
1.4413468460402825 13.078043392972104 457.02964037170364 52.47339299044069 0.3913174066938563
1.4679403299350702 13.07344808187064 409.1466851128175 54.89488956911504 0.3978962024062377
1.4943484677476038 13.06758747651812 366.64914285675025 57.434624692994554 0.40466793027965114
1.5205606415388377 13.060445294854725 328.94519183630797 60.099223139842806 0.41164235609596617
1.5465419571165369 13.051967429715985 295.3824276092464 62.89578694662992 0.41883001374673406
1.572257749518355 13.042093026300288 265.54623045181614 65.83193859566695 0.4262422684289899
1.5976814145177685 13.030768185184455 238.9956592529989 68.91586835686506 0.4338913851684079
1.622767909677632 13.01795552862126 215.30874462681032 72.15638621670311 0.4417906032963718
1.6475211429106764 13.003621271012967 194.16421240506145 75.56297887847619 0.4499542175832717
1.6718696861355375 12.987692924151736 175.29228364281215 79.14563384154539 0.45839667065795936
1.6958070816294881 12.970151743428168 158.4188825426087 82.91442998923974 0.4671307728271697
1.7192718520162211 12.950914082986948 143.33104574707662 86.88215102990871 0.47617828752520214
1.7422744509069896 12.93001759674267 129.8191019178554 91.06043732229352 0.48555382043602474
1.764754512893362 12.907376940704687 117.71969710677674 95.46323593792312 0.49527874038208003
1.7866822541310732 12.882949606950682 106.85177836874708 100.10434930033666 0.5053711155150831
1.8080215373878679 12.856701589153321 97.11640638249841 105.00022486797367 0.5158563584742908
1.8287335621166707 12.82857685036792 88.35883138197394 110.16739471104363 0.5267569936374908
1.8488143376617159 12.798621425337043 80.48964388921914 115.62340313893698 0.5380960986127752
1.8682026025735352 12.766721562245491 73.4058593818446 121.38860080258868 0.5499035544087535
1.8868746868492363 12.732882846315716 67.03089826145371 127.48432316709757 0.5622088622136593
1.9047991729969342 12.69707949387019 61.27589678439108 133.93308122480823 0.5750415956621326
1.9219441247422022 12.659275367432778 56.091701558475286 140.7603705342839 0.5884374172669544
1.9382600016801426 12.619398007524099 51.408841921608 147.993943258503 0.6024348947746203
1.9537603092677973 12.577568280094955 47.178508793834794 155.6623903643606 0.6170701432745369
1.968379677096996 12.53365461631927 43.353513354351314 163.7992341972268 0.6323903709198735
1.9820993649934306 12.487664518955178 39.8924912578581 172.43811969125125 0.6484367519135712
1.9948929291748168 12.43960148333345 36.75809267344716 181.61852647989258 0.6652631432333099
2.006725424255006 12.389437803581698 33.91599133259203 191.38232563025727 0.6829235720829205
2.017584673944308 12.337194665086603 31.33912661591717 201.7755212831826 0.7014772326415849
2.0274247726640304 12.282824570870583 28.99985115778031 212.84814792578777 0.7209871450162214
2.0362407500575856 12.2263719274361 26.878657735176574 224.65542007847014 0.7415228203169709
2.0439910397488954 12.167792828800314 24.95045142597493 237.25870023810415 0.7631621253154868
2.0506558121793645 12.107104292158763 23.195376001090597 250.72464998197873 0.7859870801982045
2.056228288569389 12.044350433997266 21.599919175999407 265.1263281812559 0.8100858147797689
2.0606870648366438 11.979539270818256 20.148264402188754 280.5456431381983 0.8355586855383939
2.0639999168035517 11.912657377479466 18.827730561731887 297.07194768220967 0.8625115638876177
2.06616630351135 11.843773959520272 17.623897496616443 314.80568050236786 0.8910652837494861
2.067166471239839 11.772897402885851 16.52822550635008 333.85629442195733 0.921346031925083
