M[M_sun], R[km], Lambda[1], P_c[MeV/fm^3], rho_c[fm^-3]
0.24162668629717493 15.618656898711224 2160425.4255784233 3.5677272577965504 0.1711233750220791
0.2536441356905444 15.277267796884024 1723298.0497216475 3.7848215245081778 0.17388819696636645
0.2660400660729127 14.98125598764514 1383013.849355443 4.011405519372638 0.17666670988138689
0.27881508208498224 14.72350147000146 1116472.0268318264 4.247735274993347 0.17945759610838236
0.291969880078157 14.49840666490532 905832.004061135 4.4944359699579906 0.1822674217841995
0.30550513332984824 14.301220401507903 725423.8035806393 4.751662806352579 0.18509188528189569
0.319421453497117 14.128143163201983 605107.2835071036 5.02009875789956 0.18793762049967896
0.33371989649040795 13.975933636076366 497687.4865243032 5.2999668996506 0.1908012312833366
0.34840094736303684 13.84202809872945 411007.22000690305 5.591997014651665 0.1936890378725426
0.3634644652509076 13.723969849972006 340640.65595770284 5.896354915556522 0.19659607616019237
0.3789169871012441 13.62000895718454 283320.4470874508 6.2139052980733185 0.19953003980333187
0.39474997296245723 13.528451471664937 236412.83338001487 6.544906258703871 0.20248711924711602
0.41097468771245793 13.447863169119676 197873.51736003012 6.890058858007876 0.20547100305364846
0.4275823590858717 13.377053850166261 166074.46306888995 7.250068805388959 0.20848477590986964
0.44457725614951515 13.314930564996557 139800.76222595424 7.625196135599313 0.21152400145164088
0.46195885375886603 13.260568775356273 117983.69010297493 8.016387738949884 0.21459480890852856
0.479723751426592 13.21316274780106 99812.04684879702 8.42434960335395 0.21769886143133907
0.49788121769016347 13.171979178223955 84640.81023700249 8.849524135431384 0.2208336492130126
0.5164186455897568 13.136412850017292 71936.92984796673 9.292781563993742 0.224002536659977
0.5353376275073392 13.105843062388223 61275.587914200005 9.755008161047716 0.2272084643098082
0.5546457026687798 13.079788328689135 52299.60179225693 10.237013513590151 0.2304527830968976
0.574327077409038 13.057839046859772 44731.04904076304 10.73927069804612 0.23373221396467037
0.5943835733212341 13.039520683597818 38329.22141001212 11.263020624843401 0.23705289746154304
0.614820144730297 13.024531241433003 32901.7478706805 11.809202702170342 0.24041647201267208
0.6356251297567491 13.012429692455527 28292.10518910212 12.378795938585403 0.24382457057434953
0.6567948392371726 13.003028434416175 24370.978604703803 12.972492085461969 0.24727517478084393
0.6783280365761089 12.99596754995449 21028.212779993417 13.591612459712747 0.25077300896301546
0.700214505889558 12.991052207806527 18172.347603809296 14.237357359779665 0.254320739999531
0.7224490505364393 12.987990893529938 15730.145715753933 14.910916477807177 0.25792035251924994
0.7450369913349902 12.986641708106143 13634.306600677077 15.613322044689063 0.2615717688725566
0.7679568305671232 12.986754829728156 11836.56129424704 16.34583515051731 0.265276833440613
0.7912012766424715 12.988143898785435 10288.89855781076 17.11007426858446 0.26904026170762146
0.8147748034321302 12.990662960956987 8956.174378085047 17.90749444975088 0.27286448626217247
0.838656652402638 12.994131189855764 7807.518781619957 18.73946144095972 0.2767505921994739
0.8628394085647015 12.998407924219164 6814.733691395602 19.607318837425822 0.2806990529266307
0.8873195183335586 13.003350171921934 5955.482251569506 20.513152852788885 0.284716232428959
0.9120733336083567 13.008847508893203 5211.044911224772 21.458757614151075 0.2888051440529871
0.937095627426836 13.014736318518633 4539.129385471826 22.445617662085375 0.2929657129382457
0.9623784466653701 13.02094366737914 4004.5830424105266 23.475757544535586 0.29720173203124406
0.987898764164696 13.02733181906191 3516.54490862334 24.551599974744075 0.3015193046877104
1.0136417198804109 13.033788645047604 3091.944180147163 25.675087466799507 0.30592006423999824
1.039605160863109 13.040243358253186 2721.421351886611 26.84818078471081 0.3104052673243052
1.065755851402675 13.046566504045616 2398.310994726317 28.073976890542518 0.31498365049404736
1.0920872792976037 13.05270345840491 2115.8219031926233 29.354530027341397 0.3196556543886816
1.1185850590433335 13.058537370563393 1868.6565038784227 30.692597296185596 0.32442597377091004
1.1452157291115102 13.06399068563437 1652.0920438525168 32.091577403387994 0.3293026587792065
1.1719789851966027 13.069006866209259 1462.0825604865202 33.553411146027344 0.33428340545231855
1.198834483457929 13.073466309180294 1295.5178523951238 35.082640932435815 0.33938178111232
1.2257810140862582 13.077331288295174 1149.0740044251322 36.68128990496482 0.3445945468180563
1.2527762335688626 13.080497502930646 1020.1618146790255 38.35441103649817 0.3499361440305996
1.2798177051494504 13.082935340746056 906.7186409628732 40.10424260709298 0.35540314505361126
1.3068608491580178 13.08452610114492 806.7310344797583 41.936259227078764 0.3610101294632254
1.3338985019698992 13.085232783591115 715.6560749170485 43.85393745339462 0.36675898738115953
1.3609060140499933 13.085035326315362 640.6109039990655 45.861976113015224 0.3726575310211905
1.3878375344677256 13.083775175513932 571.8124727822682 47.965702932395715 0.3787156881727771
1.4146942025984328 13.081482886400988 510.8233075984659 50.169866982888976 0.38493907261475646
1.4414171154234565 13.078033243190681 456.87832714530145 52.47970194657622 0.39133472872364283
1.4680115659445871 13.073437059463238 409.0158098821825 54.901616458250935 0.3979143099819869
1.4944206777297604 13.067571032146638 366.5367963491303 57.44179971213616 0.40468687628327293
1.520632855598488 13.060425798268177 328.84197617649664 60.10687895124175 0.4116621975155955
1.5466160625019525 13.051939533434814 295.2875945135114 62.90395890057409 0.4188508120192211
1.5723321246897697 13.042060971378664 265.4681132887703 65.84066497573646 0.42626408981659025
1.5977563327273516 13.030732513186024 238.92093791820994 68.92519065017513 0.4339143011733666
1.6228426790111095 13.017912944392371 215.23969626435394 72.16634941197141 0.4418146911175513
1.6475952173163213 13.003575878283964 194.09886222852205 75.57363179510145 0.449979560619467
1.6719441067545004 12.987641536524583 175.23238675316748 79.15697387030993 0.45842312681532865
1.6958816760096433 12.970093850895754 158.36420302220168 82.92656776473738 0.46715866539991235
1.7193616305588881 12.950883595000821 143.27912343013222 86.89514903118635 0.4762077216029577
1.7423461874822865 12.929943958008298 129.77740127545735 91.07430095978394 0.48558466192641936
1.7648271805359212 12.907298447663907 117.67924678865506 95.47809875834002 0.49531135272878124
1.7867537762636412 12.882862336441557 106.8218778833718 100.12022424495431 0.505405372956853
1.8080917482521393 12.85661178279524 97.08238074998607 105.0171942525421 0.5158923929979911
1.8288030788838838 12.828477593984093 88.33331952878454 110.18554832190367 0.5267949480087978
1.8488834405592456 12.798512955204256 80.46537810452337 115.64291315567014 0.5381363995749567
1.868260353793361 12.76657637790153 73.38822493291012 121.40950272108886 0.5499461030551213
1.8869397968357497 12.732758266266329 67.00913944353444 127.50673433278145 0.5622538412443651
1.9048622702269333 12.69694697956169 61.25616452319328 133.9570476657909 0.5750889128581462
1.922005465252827 12.659130821742421 56.075429668909905 140.78611223753845 0.5884875718939693
1.9383200031673837 12.619247340789066 51.392840895842504 148.02161436884703 0.6024881215320906
1.9538163347819593 12.57740495714282 47.16211466754321 155.69206904941933 0.6171263873536015
1.968433926507659 12.533479474664285 43.34307974846609 163.83110029863676 0.632449897062133
1.9821503248052947 12.487482196424518 39.8799280624083 172.47246659824236 0.6485001697219172
1.994941427282025 12.43940923444679 36.74679205407702 181.65547869665355 0.6653304522085115
2.006778708952885 12.389251465362495 33.90362222916001 191.42212310472786 0.6829951164800752
2.0176257114994174 12.336982333335147 31.328984407822137 201.81842870498375 0.7015533890828137
2.027463403164975 12.28259988460502 28.991332800370866 212.89434940223322 0.7210679717351162
2.0362743966937917 12.226138553057583 26.870060244748515 224.70534321544628 0.7416091136477355
2.0440208964817845 12.167546718778244 24.943022081247918 237.3125882351889 0.7632540093007519
2.0506812687901195 12.10684506883993 23.187993789125706 250.78293164574512 0.7860852082143164
2.0562544100947995 12.044103543090419 21.59339316901738 265.18947628151074 0.8101908968874203
2.060703869426186 11.979257343737984 20.141803226064177 280.61393719642666 0.8356707036891912
2.0640107609323337 11.912365219345896 18.821106062252007 297.14604148395927 0.862631609122662
2.0661735597753483 11.843468653679277 17.619255288375335 314.88616897956683 0.8911941299706166
2.067168265053706 11.772581998469642 16.524060893944792 333.94370840215 0.9214840953242178
