M[M_sun], R[km], Lambda[1], P_c[MeV/fm^3], rho_c[fm^-3]
0.24162668629717493 15.618656898711224 2160425.4255784233 3.5677272577965504 0.1711233750220791
0.2536413610144153 15.27737951661672 1723222.4041518585 3.7847884816125488 0.17388778510261285
0.26603631574693415 14.98132717960018 1383051.3194189991 4.011336056914645 0.176665870468576
0.2788090522762842 14.723650467184022 1116538.3940856478 4.247627043262147 0.1794563407834022
0.2919620695280927 14.498519805347772 906052.2264800244 4.494286129193806 0.18226575327251407
0.3054951082797839 14.301342520513964 738841.5478160674 4.751466269144777 0.18508976230495452
0.31940866536609686 14.128301782822597 605204.5336312298 5.019854076849946 0.187935081839351
0.3337057710762975 13.976060308302074 497791.5508003653 5.299667633432089 0.19079821816908865
0.3483835983643484 13.842167970622599 411092.64689735 5.591642416425823 0.19368560703716098
0.3634434428381726 13.724132560749077 340734.2387828671 5.895937019332508 0.19659215119042014
0.3788945707292576 13.620127675937942 283379.5737854694 6.213419047253183 0.19952560578133632
0.39472330445401915 13.528594920754093 236478.78920439747 6.544352158493842 0.20248226053682677
0.41094496347779863 13.448027502387653 197930.8067507122 6.889426212284667 0.20546561517719014
0.42754894410306427 13.377196293213995 166141.48028099845 7.249351678148463 0.20847884329999297
0.44454236782956036 13.31503379324887 139853.71336966133 7.624396509231655 0.21151763591159625
0.46191952266052183 13.260679388611031 118028.12732561209 8.015491667068128 0.21458787706808016
0.4796802234409919 13.213274382545515 99847.98247606447 8.423350099336258 0.21769134655840702
0.4978338636345938 13.172113771449554 84679.0483151116 8.848424884869772 0.2208256901692729
0.5163709657808503 13.136468077632298 71971.35980767319 9.291564778928525 0.22399397041726016
0.5352836810182505 13.105918789445596 61304.823026823666 9.753665592342353 0.22719927237378826
0.5545853439061684 13.079886640934852 52322.86717087885 10.235536410899597 0.23044294616919814
0.5742634323088821 13.05792331058967 44752.17283843598 10.737665479510074 0.23372190796443448
0.5943177404462086 13.039576956086256 38347.864428167595 11.261263152245121 0.23704191674094524
0.6147500519750483 13.024543843971031 32918.60492590865 11.8072825944736 0.2404047945542469
0.6355466621085067 13.012466432352854 28308.921818234503 12.37670216716175 0.24381217319838602
0.65671486744956 13.003047047706836 24384.1117364999 12.970234265157172 0.2472622700058445
0.6782417450159574 12.996001857512017 21039.940574173623 13.589158531765351 0.25075934614965095
0.7001252456478626 12.991070266183753 18183.31114022024 14.23469416827824 0.25430629205565863
0.7223553854698477 12.988004072782875 15739.554912780697 14.908030021616826 0.25790509073731366
0.7449383342943041 12.98664767309 13642.789723281605 15.610225583876199 0.2615559418188449
0.7678528546588486 12.986760343321581 11843.278473822169 16.342486756505366 0.26526014253626967
0.7910934851941938 12.98812689377765 10295.60433990856 17.10645713863531 0.26902267282954173
0.8146629307009337 12.990645419055628 8962.204859181391 17.903590667215454 0.2728459630931757
0.8385405283257681 12.99410273547021 7812.249884164469 18.735288319792446 0.27673141886694114
0.8627162555419785 12.998374948081988 6819.2657429874935 19.602822122527144 0.2806788790028101
0.8871855058892224 13.003322113836909 5959.770282360777 20.508310904455488 0.28469501426060606
0.9119418452001308 13.00880792732352 5215.047114394085 21.45354731096529 0.28878283504358154
0.9369555557370478 13.014701740693688 4568.499808029651 22.440060706808666 0.2929426325096768
0.9622297033691793 13.020899133048886 4007.653357210936 23.469784209222432 0.2971774725416865
0.9877504521713248 13.027305476071938 3519.332267405262 24.54518214737453 0.30149380970625683
1.0134862216579277 13.033765972489793 3094.225727249099 25.668249987956234 0.30589367709231796
1.039444980967455 13.040208902027317 2723.637315218562 26.840840074941994 0.31037753544463687
1.0655936830239108 13.046538728164002 2400.0729412975643 28.066098593217745 0.31495450524649676
1.0919180907884871 13.052663749935165 2117.436378963188 29.346142062017744 0.3196254628637534
1.1184108745000356 13.058501096525603 1870.1141922071056 30.68359953203062 0.3243942335748128
1.1450370981971802 13.06395634318089 1653.5064262953672 32.08199920434853 0.3292697490307216
1.1717945502230611 13.06897272333548 1463.3945604906014 33.54314017622206 0.3342487912250935
1.1986454557370287 13.073437007906987 1296.5186158802514 35.07162872274771 0.3393453667202982
1.2255874383942715 13.077301880394948 1150.0073383609852 36.66956840848572 0.3445567350848634
1.2525779830706105 13.080477982059355 1021.0347056757356 38.34185403920277 0.3498963894986594
1.2796160749163321 13.082916133401513 907.4967594102134 40.09086560436551 0.3553617610761403
1.3066556701136478 13.084513812054741 807.48927743291 41.92201556040291 0.3609670687009583
1.3336882148306275 13.085230124521406 719.211670060727 43.83866745223237 0.36671359704064227
1.3606937204499687 13.085037444548044 641.2211256613581 45.84571176899497 0.3726102365181237
1.3876199778651714 13.083791323102176 572.3174002552265 47.948374786421034 0.37866636667568593
1.414472867828142 13.081511283922648 511.28222405006767 50.15128505729172 0.3848870040114624
1.441201386416292 13.078087017899618 457.29544488360847 52.459895735528605 0.39128034828885205
1.4677857098050646 13.073479366049048 409.4035950300552 54.88049827620225 0.3978574636339341
1.4941926025012076 13.067626102672131 366.87946618889265 57.41927477158667 0.40462739803007125
1.520402810999436 13.060493497231965 329.1563480455387 60.08284472695551 0.41159990847728456
1.5463839724594006 13.052024184946735 295.5811566173764 62.87830443035798 0.41878551935290026
1.5720992467680694 13.042156324418894 265.7266642766458 65.81327009072373 0.4261955855342454
1.5975219336616913 13.030845328039172 239.15548866279923 68.89592512669009 0.43384236084076855
1.622608786924209 13.018045823635015 215.44538479946965 72.13507203607924 0.44173907242122296
1.6473607838961977 13.003719498073934 194.29051253802592 75.54018932984394 0.44990000178714945
1.6717089962047746 12.987806572398993 175.40844507708823 79.12137450280323 0.4583400738982188
1.695648106865185 12.97027799960633 158.52212848335145 82.88846423401891 0.4670711035972968
1.7191133594672898 12.95105311869048 143.429523486453 86.8543452285301 0.47611532106579413
1.7421183466760732 12.93017065672635 129.9188370590434 91.0307798994805 0.48548784358677066
1.7646025530987808 12.907552043442688 117.79436446641733 95.43144127158484 0.49520897578472983
1.7865283676326864 12.883129682751044 106.9295062341302 100.07038970837816 0.5052978321889318
1.8078691734377559 12.856898796605925 97.18359247243302 104.96392429780073 0.5157792741374395
1.8285836840451792 12.828789381293912 88.41969988712947 110.12843493911897 0.5266753332581102
1.8486683511736144 12.798850745784879 80.54511298945627 115.58166832425766 0.5380098888872251
1.8680587234345765 12.766970963327182 73.45676513771934 121.34388883117855 0.5498125372200721
1.8867354950860578 12.733150902696757 67.07746340725033 127.43638307848799 0.5621126468383405
1.9046646227697424 12.697361940479595 61.32169017823679 133.88181457225258 0.5749403793718334
1.9218127913173757 12.65958001929601 56.13115770309377 140.70530685984653 0.5883301322894933
1.938140715195263 12.619750437988525 51.4457129295289 147.93475291279054 0.6023210391997391
1.9536353424186792 12.57790619985119 47.21080283859565 155.59890617068618 0.6169498343726665
1.968264237254315 12.534017718205435 43.38258779549203 163.73093421114098 0.6322625776477431
1.981991963287702 12.488056142490544 39.919946803377506 172.3646511990917 0.6483011003756773
1.9947909529453107 12.440010811281676 36.78104251479864 181.53948587610336 0.6651191696775478
2.0066319948385667 12.389873515394662 33.94039438249819 191.29719979589638 0.6827705403495591
2.017495771409001 12.337651355928735 31.358645945748698 201.68374419840828 0.7013143373691734
2.0273456478059955 12.283306507177878 29.02028097403448 212.74932587559383 0.7208142617517426
2.036168726791358 12.226876123010493 26.896990859117302 224.5486386979198 0.7413382461585855
2.0439268887245006 12.16832323844796 24.96683862468534 237.14343946267465 0.7629655951053442
2.0506004662922126 12.107656729465587 23.209590280449685 250.5998272160006 0.7857766572295664
2.0561825293204836 12.044928216276166 21.61407002222318 264.9912638724057 0.8098610599227712
2.0606518589115796 11.98014228230739 20.160795751576213 280.3995008196326 0.8353188594144322
2.063979656408184 11.913299694335992 18.83788221240884 296.91347555642346 0.8622548106486319
2.066151920293304 11.844427526847054 17.63486385034352 314.63353343772343 0.8907897101577121
2.067161952592333 11.773577458495973 16.538714609016296 333.6693373978959 0.9210507482395996
