M[M_sun], R[km], Lambda[1], P_c[MeV/fm^3], rho_c[fm^-3]
0.24162668629717493 15.618656898711224 2160425.4255784233 3.5677272577965504 0.1711233750220791
0.2536437715400251 15.277301443987122 1723292.477382491 3.7848156226151026 0.17388812340211646
0.26603951609566434 14.981267203553097 1383042.5423976537 4.011393112406564 0.176666559950524
0.2788141528310847 14.723536629613267 1116480.5598377162 4.2477159431980755 0.1794573718886896
0.2919676472371441 14.498452123132145 905991.7352916352 4.494409206043046 0.18226712376179502
0.3055047686090345 14.301208693241925 738704.5201947119 4.75162770154858 0.18509150608301397
0.31941999877052174 14.128151524931827 605126.855932869 5.0200550536065105 0.18793716705077027
0.33371720225483453 13.975946614883597 497675.49879829516 5.299913445243521 0.19080069308615422
0.34839776936207195 13.842053933834137 411021.9961492719 5.591933676658902 0.19368842506003894
0.36345885419299373 13.724074951923535 340665.22307672683 5.896280270991144 0.19659537508263786
0.3789131372727828 13.620020074141138 283317.41573305207 6.21381844362071 0.19952924779530365
0.394742801814073 13.528498048727164 236403.74766723442 6.544807284531979 0.20248625137733609
0.4109689403198547 13.447920364517477 197879.04498638885 6.889945853415447 0.2054700406591188
0.42757837189553066 13.377056983963136 166090.5973214635 7.249940709946035 0.20848371620909836
0.4445712631331125 13.31495291011353 139804.86650926806 7.625053303339832 0.21152286441501456
0.4619517862448485 13.260614481082087 117990.7025274494 8.01622767852674 0.21459357071175225
0.47971568191889147 13.213173499306498 99814.83717497451 8.424171066631533 0.21769751908477628
0.49787181639597994 13.172008722852587 84647.06033970273 8.849327780695075 0.2208322275208258
0.5164102407023998 13.13641326817996 71943.32645111837 9.292564213599109 0.22400100649964858
0.5353278927923114 13.10587650408598 61282.31913484848 9.75476834129349 0.22720682237682677
0.5546334743103465 13.07983392533681 52303.95950188044 10.236749661226312 0.23045102594308356
0.5743153993001566 13.057881308678141 44333.14181194634 10.738983959506916 0.2337303730144282
0.5943717466385727 13.039534081375312 38331.0357198276 11.262706687980454 0.23705093597834226
0.6148077216320971 13.024517670049024 32905.13825963835 11.808859712384063 0.24041438606250568
0.6356113939055957 13.012461493218643 28295.33117356735 12.37842192557212 0.243822356015545
0.656779652692026 13.003026691380837 24179.03179586831 12.972088766749303 0.24727286957647093
0.6783123068718552 12.995975266354229 21030.31746778818 13.591174108066145 0.2507705683384886
0.7001987753988178 12.991068506383925 18174.335617576715 14.236881624815716 0.2543181591141333
0.7224323835571996 12.987990949147619 15731.64435364575 14.910400858125263 0.25791762624362735
0.7450185358117603 12.9866555434768 13635.563491064364 15.61276890906668 0.26156894161016436
0.767938643512624 12.98676200939703 11837.761438495627 16.345237008324286 0.2652738518518
0.7911818149364408 12.98813513161711 10290.218681397035 17.109428117851614 0.26903711969541266
0.8147541711513417 12.990673604370421 8957.310410154245 17.906797089481582 0.27286117733755827
0.8386359976495157 12.994137732743065 7758.8255568241175 18.738715964225477 0.27674716711960007
0.8628176840407497 12.998404174325414 6815.496696985415 19.606515551207032 0.2806954490879731
0.8872921209692312 13.003338131777333 5956.192736416685 20.512287890869842 0.28471244203171525
0.912050844988429 13.008843581153004 5211.836703405134 21.45782684556588 0.28880115877144374
0.9370696116909513 13.014731508005232 4565.927776636353 22.444624964074904 0.29296158983586673
0.9623484133962883 13.020922900223724 4004.9860868213113 23.47469045945332 0.29719739828166314
0.9878719297135451 13.027322289311497 3517.134280729381 24.55045347990622 0.30151475020798624
1.013613278065346 13.033786829019514 3092.3057914810893 25.673866000128275 0.3059153503648728
1.0395757164351744 13.04024021510961 2721.779856023463 26.846869413559663 0.31040031320023415
1.0657257340092487 13.046564155283662 2398.673330299978 28.07256947642494 0.3149784438572359
1.0920568531527841 13.052701868931024 2116.0847246994954 29.353031558371807 0.3196502608204557
1.1185533006933666 13.05853404353269 1868.8990528948527 30.69098988223569 0.32442030351404394
1.145183690142461 13.063987066393866 1652.3568764580837 32.089866290706595 0.32929677956457104
1.1719470521785473 13.069001067745958 1462.3062368246126 33.551576263579285 0.3342772217092843
1.1988012385496378 13.073459215140812 1295.6423751214895 35.08067362001864 0.339375275743496
1.2257457578415945 13.07732370846249 1149.2584095424618 36.6791958715417 0.34458779179038274
1.2527399530890264 13.080488990310148 1020.3257611741303 38.35217481774709 0.3499290834625482
1.2797810896049902 13.082931265312176 906.8603466418529 40.10185279795152 0.35539575178251126
1.306825025995365 13.084524950282004 806.8735061337226 41.93371457758725 0.36100243660229986
1.3338609051298673 13.085237001732095 718.73436164605 43.851209434077106 0.36675087829692016
1.36086828892546 13.085033834277791 640.7358168246777 45.85907043994007 0.3726490817185938
1.387798777511667 13.083778444505324 571.89267585545 47.96260719470401 0.3787068767039806
1.414654972696479 13.081491739409307 510.90124543671106 50.166547235188666 0.3849297703158564
1.44137815816005 13.078038915847602 456.9513474744344 52.476163458830285 0.3913250133620493
1.4679721350124333 13.07344246973789 409.0975181646049 54.897843562598936 0.3979041540254322
1.4943803450660038 13.067580226738828 366.5936536500433 57.4377754716087 0.40467625007111885
1.5205921212143463 13.060437032403444 328.90142013182316 60.10258504613437 0.4116510690840493
1.546574286386469 13.051954184330382 295.34244771333925 62.899375503483796 0.4188391469092301
1.5722911407426226 13.042077740396682 265.52025197305915 65.8357706139976 0.4262518508625555
1.5977142733753082 13.030754077815573 238.9657399097805 68.919962054279 0.4339014482705993
1.622801335453969 13.017935859426276 215.27856985072194 72.16076134837898 0.4418011809661461
1.6475539905979277 13.003599487665378 194.13204860627374 75.56765688166234 0.44996534644199077
1.6719022222849864 12.987670031265885 175.267265815246 79.15061357060344 0.45840828830888
1.695839525159092 12.970127967902327 158.39541200628497 82.91976002511501 0.4671430212340875
1.7193202090646744 12.950919769535892 143.30677325659508 86.88785880784062 0.4761912128339377
1.7423065439994976 12.92998471932186 129.80273391924786 91.06652521819059 0.4855673637635218
1.7647862697287826 12.907342464574606 117.70266551836463 95.46976259338267 0.49529306132148965
1.7867144878787284 12.882911130842858 106.85051926836957 100.11132039813967 0.5053861588417095
1.8080527807698816 12.856661161857039 97.10234205776686 105.00767655374074 0.5158721821446365
1.8287655215087095 12.82853213206946 88.35171574038341 110.17536641072361 0.5267736603409877
1.848845241443572 12.798573584651562 80.47986716566774 115.63197045758506 0.5381137957367478
1.8682316422171366 12.766672473462473 73.39219617575637 121.39777932685384 0.5499222385206035
1.8869031379111738 12.732829035913973 67.02319890400935 127.49416442402648 0.5622286135377909
1.9048265661634138 12.697021047260579 61.26698929568037 133.9436054259343 0.5750623737028909
1.921970822266091 12.65921215833994 56.08467837752769 140.7716742765407 0.5884594412554666
1.9382863168446864 12.619331359859158 51.40153231688102 148.0060942273242 0.6024582677676963
1.9537853557984282 12.577495012102839 47.17171192080811 155.67542288373502 0.617094841203325
1.968403364245958 12.53357659474195 43.34713709177586 163.8132272360036 0.6324165100325988
1.982121176555647 12.487585108831585 39.88615500871484 172.45320207634518 0.6484645998885733
1.9949134566191669 12.439516850213819 36.751633784702065 181.6347528814692 0.6652926998487735
2.006752168154077 12.38936523132051 33.90889902925421 191.39980140918104 0.6829549885002822
2.0176022048181355 12.33710221754337 31.332894496892518 201.79436266406097 0.701510674234095
2.0274421742895212 12.282725245642158 28.99747843943381 212.86843575025975 0.7210226373513532
2.0362549851555336 12.22626975991082 26.873675046410288 224.67734210584692 0.741560713063181
2.0440041196574854 12.16768488513112 24.947164106433846 237.28236325675007 0.763202472936
2.0506670997864185 12.106990505904482 23.19216669505841 250.750264437043 0.7860302417446997
2.0562436959360126 12.044254282102148 21.59762304726371 265.1540573437595 0.8101319577172054
2.0606942793894025 11.979415405148272 20.144938823263836 280.5756319042831 0.8356078740945971
2.0640050192441945 11.912528720456239 18.825407482944073 297.104483121842 0.8625642771295584
2.066169857265543 11.843640286802778 17.621579274280002 314.8410238433985 0.891121861486976
2.06716732559766 11.772759607922051 16.52646447391956 333.8946787452836 0.9214066568976588
