M[M_sun], R[km], Lambda[1], P_c[MeV/fm^3], rho_c[fm^-3]
0.24162668629717493 15.618656898711224 2160425.4255784233 3.5677272577965504 0.1711233750220791
0.25363510949496165 15.277520916193437 1723375.1673327696 3.784657524872425 0.17388615279002284
0.2660222669195904 14.981615386848777 1383419.469975279 4.011060769375232 0.17666254378112575
0.2787861651339618 14.724053655048328 1116963.8404063273 4.247198121465111 0.17945136593692793
0.29193009356189104 14.499027453901618 906384.3791575683 4.493692328194762 0.1822591411605757
0.30545394615354166 14.301910302472562 739170.4857529984 4.750687438586008 0.18508134944849935
0.3193585733674529 14.128861742043336 605576.1426011586 5.018884490510835 0.1879250220068568
0.3336456707526612 13.976648603316612 498181.348471569 5.298481778875621 0.19078627858139355
0.3483134954158345 13.842756468614713 411463.1607358148 5.590237344013875 0.1936720125750533
0.3633627330258541 13.724704027727716 341069.0183108223 5.894281178999133 0.19657659918759593
0.37880112514293723 13.620726124481653 283686.95290353533 6.2114924172964665 0.19950803723594457
0.3946188562559275 13.529154701577676 236750.40186266278 6.542156750338611 0.20246300977315654
0.41082832697598654 13.448544998035183 198177.7513893564 6.8869196660283345 0.2054442683774399
0.42741841331408076 13.377725761269646 166356.65994959298 7.246510492407074 0.208455338898488
0.44439847466651267 13.315558757043565 140056.61602737397 7.62122854695477 0.2114924168948792
0.461763996983185 13.26112336639133 118206.43878062023 8.011941701033901 0.21456041521078115
0.4795105472691733 13.213694307506039 100009.50383944242 8.419390471228565 0.21766157569049577
0.49764825556289943 13.172502048726374 83941.2833323495 8.84407020282492 0.2207941604106557
0.5161663921450661 13.136840649331525 72101.17812524617 9.286744609720321 0.2239600361255319
0.5350667770713176 13.106250047019467 61415.590639533286 9.748347282592732 0.22716286041009695
0.5543550951335108 13.080167066619051 52420.109437702864 10.229685324346132 0.2304039802152683
0.5740147308842438 13.058149093309293 44836.91455736917 10.73130704328138 0.23368108483424924
0.5940573204023455 13.039796635683981 38424.21455726251 11.25430180106282 0.23699842209278352
0.6144679097073518 13.024752935596009 32706.98134787563 11.799677240889062 0.24035854131520065
0.6352482291832839 13.012615361482835 28368.18759101743 12.368409161954752 0.2437630696991898
0.6563945164431335 13.0031660985732 24439.28068973571 12.961291688676942 0.24721115790575957
0.6779080959147931 12.996108030939004 21088.181626729853 13.579439477769002 0.2507052330608897
0.6997731813193253 12.991131658767591 18225.11312661682 14.224146572579292 0.2542490708342163
0.7219790738138644 12.988073769330292 15776.121962274692 14.896598476798925 0.25784464785070804
0.7445475123382704 12.98666112050436 13675.775040215342 15.597962594941627 0.2614932615537734
0.7674430816184984 12.986736890619397 11873.752100360645 16.329226370147698 0.26519404283609643
0.7906635407641625 12.988097726668604 10322.063524680938 17.092132866200277 0.2689530187432958
0.8142130970116911 12.990590111708796 8986.315907644843 17.888131614531662 0.27277261099356637
0.8380707289863982 12.994044259422907 7834.001583490045 18.718749879556015 0.27665537712411803
0.8622293327902316 12.998303519502258 6837.792699426547 19.585015883363678 0.28059899363749097
0.8866757798396113 13.003207896756162 5976.283674346676 20.489138098253036 0.28461099605103635
0.9114118457066064 13.008682408122564 5229.932107089953 21.432916459938056 0.2886944997139089
0.9364084515886113 13.01459184152682 4581.766401545299 22.4180577110152 0.29285124459175677
0.9616572024750076 13.020763347216928 4019.1974789986834 23.446133165656292 0.2970814186263546
0.9871568771795477 13.027151854851109 3529.7838866574402 24.519771843670735 0.3013928666324792
1.0128741065787479 13.033606952611246 3103.795612110603 25.641178729894072 0.30578920389382613
1.0388120666511305 13.040051989904939 2732.037521747835 26.811777188599255 0.31026774109337474
1.0649415052254898 13.046389736449484 2407.795849899711 28.034908175415513 0.3148391183284132
1.0912459223188313 13.052507715064118 2124.1320590664013 29.31293458813803 0.3195059363472793
1.1177180753587814 13.058353069709373 1876.0975793109033 30.647978890315844 0.3242685794530039
1.1443297953652598 13.06382258155082 1658.692468467611 32.04383316458931 0.32913786051961963
1.1710644712281564 13.068844945399087 1468.1645784781992 33.50248119964869 0.3341117662819253
1.1978963177044026 13.07331900423593 1300.9510182177146 35.028036704214536 0.33920121973283196
1.2248203727531641 13.077207857064243 1153.962272102826 36.62316975474594 0.3444070602102561
1.251798956636605 13.08040650101388 1024.5970499168632 38.29211542852204 0.34973882848381044
1.2788150277761805 13.082859764083953 910.6849553418045 40.03791659320755 0.35519795452473935
1.3058389420520355 13.08447431005204 810.31298801482 41.86563749367395 0.36079662926399697
1.3328553838683068 13.085222071401729 721.7766739983891 43.778228887861765 0.366533942370809
1.3598466292817175 13.085058444949519 643.5810606556385 45.78133923674573 0.37242304993869046
1.3867606153761975 13.083846574127334 574.4213975107335 47.87979361357215 0.3784711625192737
1.4135935446166306 13.081580249778733 513.1903893297052 50.07774404435743 0.3846809339888334
1.4403185957423366 13.0782144630489 458.9891324503228 52.381511517881755 0.39106513459522224
1.4668865708759007 13.073643419917657 410.9255557995423 54.79692414860383 0.3976324971129182
1.4932888944062912 13.067847065073432 368.26436187413793 57.330135963473644 0.40439202246548783
1.5194840062242911 13.060751731542611 330.40861133086906 59.987735891496676 0.4113534167318032
1.5454646584821996 13.05234536672762 296.70572605301527 62.776786883147516 0.41852714912424677
1.5711745138325737 13.042536534822434 266.742123144405 65.70486877025107 0.4259245146879629
1.5965927195823693 13.031287983770905 240.05315614991574 68.78012524533561 0.4335577022737105
1.6216885753649113 13.018552588131003 216.27465627996054 72.01131538655098 0.44143986840450644
1.646419864688201 13.004285711774738 195.04743208466653 75.40787020761853 0.4495852177311155
1.6707847447084407 12.988448674182548 176.09704733901444 78.97995477277252 0.45800909085471725
1.6947167067466935 12.970990181953669 159.14754356287887 82.73771223637301 0.4667246759457676
1.718206815967936 12.951882913351076 143.99613184486705 86.69291549492192 0.4757497621441117
1.7412091989673761 12.931066974291742 130.42174173020172 90.85860519890718 0.48510481825322416
1.7636948430575263 12.908515524182299 118.27032346281142 95.24686516896392 0.4948039746017385
1.7856294530815726 12.88417650280973 107.36061937872886 99.87325155515104 0.5048724166068643
1.8069717813959407 12.858010326222486 97.57450768526448 104.75305701795051 0.5153312550614215
1.827722481588125 12.830051622468444 88.77768373075303 109.90212684372341 0.5262007293277231
1.8478034438794284 12.800157559513702 80.86729812262156 115.33941870516965 0.5375094847681062
1.8672252046253413 12.768409331482044 73.75432291638035 121.08436712824603 0.5492842461369956
1.8859213488714626 12.734694061104635 67.34233752106566 127.15813417430877 0.5615542035078398
1.903861257493096 12.698982271003489 61.56960741747671 133.58378486960495 0.5743512249380045
1.9210373185394174 12.661315100854535 56.358017774807166 140.38573409128637 0.5877074830089561
1.937404709573618 12.621636885645204 51.65318360983857 147.59124348530938 0.6016602817253194
1.9529438978219558 12.579949574477038 47.39893139984707 155.2304906609771 0.6162516501028553
1.9675941821935157 12.536150947223689 43.55703241638274 163.33422719777582 0.6315197699360766
1.9813598915583628 12.490328770179408 40.0786480379614 171.93832815409243 0.6475139414862836
1.9942029308751663 12.442429726386875 36.92620662815727 181.08084730294394 0.6642837531571539
2.0060726812740786 12.392385142416831 34.07361068022054 190.80327174432816 0.6818825999674788
2.01697331914924 12.340283062910771 31.483564459163407 201.15124633354867 0.7003692061856306
2.026869933263966 12.286079823197989 29.133192249601116 212.17503479409174 0.7198081347232211
2.035737397278392 12.229782422925224 26.998469122244572 223.9291388301892 0.740267425889013
2.0435538951336936 12.171392496289435 25.061301589815226 236.47400905139264 0.761822962643684
2.0502859234138504 12.110890809953611 23.29812862596865 249.87572729631586 0.7845559884397283
2.055911313060022 12.048274166531723 21.69466776766163 264.2077903325377 0.8085573144335777
2.0604356003267816 11.983633690208197 20.235153481629304 279.5507054112221 0.8339241559069982
2.0638302740703836 11.916954466829937 18.90723194936388 295.9938332126023 0.8607640342876381
2.066063112976846 11.848230765030232 17.69777161238819 313.63510589776877 0.8891914240418279
2.067137363547542 11.777533300924503 16.596312530443075 332.5850724205458 0.9193382383183505
