M[M_sun], R[km], Lambda[1], P_c[MeV/fm^3], rho_c[fm^-3]
0.24162668629717493 15.618656898711224 2160425.4255784233 3.5677272577965504 0.1711233750220791
0.25364345645173353 15.27731326665466 1723334.6228042936 3.7848101625878976 0.17388805534551133
0.26603843007179917 14.981307594472087 1383054.29004046 4.011381634355819 0.1766664212450546
0.27881373893205685 14.723540212176045 1116432.1854531995 4.2476980588201405 0.17945716445685675
0.29196651130966983 14.498474342813926 905935.7835595164 4.494384446055486 0.18226684805358706
0.30550145862446954 14.30126987759238 738688.6165382578 4.751595225255598 0.18509115527706785
0.3194177262956022 14.128161015117794 605154.1255509022 5.020014621798417 0.18793674755515605
0.33371402315487797 13.976031625631693 497715.62440384715 5.2998639934873095 0.19080019518902447
0.3483948731610429 13.842078279234945 411038.7103155481 5.591875081505403 0.19368785813580988
0.363456527423272 13.724040576749323 340678.1046356316 5.896211216051048 0.1965947265040269
0.3789095825459624 13.620042635640004 283327.10544855834 6.213738093263456 0.19952851509679362
0.3947403399503705 13.528497006369989 236424.9593991152 6.544715722201345 0.20248544849939107
0.41096423287435774 13.447941700097617 197883.97148847964 6.889841311552023 0.2054691503367406
0.4275705399582128 13.37710853787528 166096.01466628019 7.249822207583166 0.2084827358694199
0.4445651846768591 13.314963504090795 139815.82462373943 7.62492116802365 0.21152181253293503
0.46194523154300043 13.260607068970517 117995.42668201635 8.01607960556526 0.21459242524768335
0.4797102851408017 13.213173075292229 99823.89314769497 8.42400590142567 0.2176962772733249
0.4978651903458167 13.172012200801596 84655.01996000909 8.849146132249073 0.22083091230846433
0.5164009054971511 13.136433544776917 71948.7886151182 9.292363142360815 0.22399959094559566
0.5353196316522195 13.105863673785644 61285.28579575137 9.754546484010692 0.22720530342443285
0.5546242507751367 13.079828271898819 52308.231210957754 10.236505571812737 0.23044940040280873
0.5743051848853554 13.057878030342959 44738.8240251726 10.738718698537571 0.23372866995683744
0.5943607045449592 13.039557864003879 38334.24423005443 11.262416266440518 0.23704912141930518
0.6147958366718986 13.02451814170966 32906.68281294596 11.8085424146842 0.24041245636309097
0.6355963084301086 13.012439159998678 28298.15228650462 12.378075929095205 0.24382030734473123
0.656766639787855 13.003029176272621 24375.696029071107 12.971715660360493 0.24727073705335198
0.6782977940338244 12.995988107432671 21032.09822619975 13.590768593754406 0.2507683105434446
0.7001844156399487 12.991069193387894 18040.01590599632 14.236441528386388 0.2543157715695253
0.7224167171856953 12.98800405589943 15733.450644466066 14.909923865692033 0.2579151042048292
0.7450027365732632 12.98665419851401 13540.832729609963 15.61225721192223 0.26156632615378406
0.7679206434148786 12.98675184640431 11838.112641997299 16.344683677285236 0.26527109363535056
0.7911646985232724 12.988129619071207 10291.456000656037 17.10883037600413 0.2690342130792207
0.8147373685885445 12.990651341516456 8958.399625903265 17.906151975811508 0.2728581163193216
0.8386171262253587 12.99412777123886 7809.126691655259 18.738026340008872 0.2767439986531459
0.8627964850340399 12.998399791876777 6816.320111295512 19.605772450036184 0.28069211526166893
0.8872688096677311 13.003342993314122 5956.814955503015 20.511487736405773 0.2847089356307878
0.912030023967163 13.008839100590041 5212.570811052216 21.456965816578467 0.2887974720946624
0.9370477615695524 13.01472413956435 4566.491915410647 22.443706647194904 0.2929577756703576
0.962324250991095 13.020931958354762 4005.775757326575 23.47370333100704 0.2971933892597383
0.9878469739932643 13.027317310103449 3517.5687468816786 24.54939289383531 0.30151053700301034
1.0135876579165917 13.033780425670221 3093.106520949292 25.672736061680183 0.3059109897147877
1.0395479135903682 13.04023207436152 2722.1942716604317 26.845656309724248 0.310395730312387
1.0656985357829192 13.04656111592897 2398.936517831387 28.071267529047716 0.3149736273877574
1.0920281849534064 13.052690994318336 2116.327468380964 29.351645381604623 0.3196452714352107
1.118524976790365 13.058523862830926 1869.098745046486 30.6895029274693 0.32441505818475325
1.1451546400067794 13.063979217118753 1652.5776683486838 32.0882834108441 0.3292913409452709
1.1719155450812822 13.068993465766036 1462.564763452649 33.5498788927444 0.3342715013945645
1.198769225291453 13.073459902194324 1295.7817797226246 35.078853747541174 0.3393692579185815
1.2257137747801423 13.07732622259579 1149.4117634833501 36.67725877829599 0.34458154302742766
1.2527078448148998 13.080484949464132 1020.4796350779628 38.35009821790365 0.34992250524948015
1.279747762074706 13.082929971664644 906.9835075682277 40.09964210451553 0.35538891263556527
1.3067910518769468 13.084518539257537 806.9982424507477 41.931360653059514 0.3609953203318345
1.3338256042866268 13.085235986478581 718.7891116247968 43.848685888903915 0.36674337701558396
1.3608334504717026 13.085032623536957 640.8484784558299 45.85638256148277 0.37264126573316064
1.3877631885616766 13.083783294092532 571.990959822863 47.95974350305092 0.3786987257131162
1.4146190215758854 13.081492023174638 510.99391400440544 50.163476331384125 0.3849211653049755
1.4413407330518537 13.078043248020963 457.0234800396869 52.47289021754023 0.39131602626784434
1.4679336859336443 13.073453554336698 409.1513310540946 54.89435349134521 0.3978947593812928
1.494343002242733 13.067587510666781 366.65792039905153 57.43405290405603 0.40466642044182544
1.5205534670825926 13.060450609644846 328.94629481768646 60.09861303699724 0.4116407749041179
1.5465359699421777 13.051968320392174 295.3863901594636 62.89513571294663 0.4188283563052347
1.572252141723351 13.042093242813804 265.5560696846304 65.83124318048228 0.42624052945771346
1.597675469580712 13.030771379828156 239.00367402202545 68.91512545424872 0.43388955896969544
1.6227623963355196 13.017959023840925 215.30900286666335 72.15559224170853 0.4417886837186485
1.6475142910436649 13.003624277026757 194.16379414664118 75.56212994092047 0.44995219798094505
1.6718630951535722 12.987698619233742 175.29352504922534 79.1447301493079 0.4583945623543082
1.6958014105964905 12.970156520616122 158.41863628719426 82.91346272644442 0.4671285500600832
1.7192661819579313 12.95091825082837 143.3329157770266 86.88111521795025 0.4761759419207454
1.7422682704101198 12.930023359819659 129.8219836876071 91.05933253000018 0.48555136267983146
1.7647483833666457 12.90738347314534 117.71927517705015 95.4620515237892 0.49527614151300337
1.786676297644679 12.882955212542612 106.85873771858088 100.10308423310148 0.505368385554873
1.8080159509139577 12.856709603202546 97.12009076438731 104.99887258840299 0.5158534869057879
1.8287279263863945 12.82858448439017 88.36195916453605 110.16594806464538 0.5267539690846913
1.8488084278058645 12.798630010810472 80.49071949316597 115.62184840600005 0.5380928870710247
1.8681968096142394 12.766730570418545 73.40606110468406 121.38693515464034 0.5499001637599226
1.8868695479282582 12.732893243029414 67.03300554796029 127.48253725375666 0.5622052778998341
1.9047941418666958 12.69708972865055 61.27840096145569 133.93117137832414 0.5750378250321709
1.9219392966307953 12.659286930409152 56.09451857134778 140.75831922574793 0.5884334205378531
1.9382558121451272 12.619409196431937 51.41074129524803 147.9917382054175 0.6024306532453021
1.9537560078398806 12.577581062045466 47.17978819277033 155.6600253380832 0.6170656613129988
1.9683753195974716 12.533664486031935 43.35360865277465 163.79669486774398 0.6323856274312962
1.9820954214384663 12.487679821654837 39.893528697036814 172.43538268125442 0.6484316983238706
1.994889230116531 12.439616897773167 36.75883316245671 181.6155818686895 0.6652577795831741
2.006722706168013 12.389455904861748 33.917198222339465 191.37915429876313 0.6829178709422591
2.017580957929174 12.337212466302923 31.338716768540376 201.77210214099705 0.7014711640014761
2.0274216843430026 12.28284228287164 29.000021907988206 212.84446630310015 0.720980704237594
2.0362375497791443 12.226390986598467 26.879297587644963 224.65144190426267 0.7415159439481463
2.043988687960661 12.167812861417447 24.951308258229105 237.25440613430322 0.7631548034740431
2.0506535679555222 12.107124538437533 23.195713699500903 250.71999960816677 0.785979240719123
2.056226664986994 12.04437219340623 21.60092035731226 265.1212962160725 0.8100774412973528
2.060686738001556 11.979561064396272 20.149001443349555 280.54020113561796 0.8355497593875472
2.063998313611866 11.912680964477067 18.82740320287927 297.06604355078616 0.8625019981368027
2.066166362118557 11.84379765432345 17.624187495876424 314.7992668399658 0.8910550167374507
2.0671662288026966 11.772922549093208 16.52858958763482 333.8493289338656 0.9213350304930413
