M[M_sun], R[km], Lambda[1], P_c[MeV/fm^3], rho_c[fm^-3]
0.24162668629717493 15.618656898711224 2160425.4255784233 3.5677272577965504 0.1711233750220791
0.25364402750461107 15.277269136394613 1723212.2319085237 3.784820022644881 0.173888178246365
0.26603998300457377 14.981257924658578 1383013.7217582774 4.011402362151376 0.1766666717282312
0.27881486712513615 14.723520888749185 1116414.381573698 4.247730355595378 0.1794575390507793
0.29196930982441355 14.498420587252912 905849.6296741611 4.494429159289393 0.182267345945824
0.3055045263222498 14.301251272630159 738694.4580261904 4.751653873153714 0.18509178878629867
0.31942096271471204 14.128148347632578 605108.2011078169 5.020087636360994 0.18793750510942384
0.33371935470634556 13.975947389119145 497642.38345965714 5.299953296966186 0.1908010943268755
0.34840013592402735 13.842033905155471 411009.8702860513 5.591980896853512 0.19368888192841163
0.36346252856515354 13.723994477368562 340653.3888271081 5.896335920528608 0.1965958977548704
0.37891580139255815 13.62000761262231 283302.3672835702 6.213883195942095 0.1995298382585078
0.3947483216024446 13.52844302795007 236413.40768312977 6.5448810724116715 0.20248689839735845
0.41097284908078796 13.447904932125908 197870.0290227101 6.890030101326137 0.20547075814967952
0.4275810193799827 13.377061173131741 166084.06271356676 7.250036208461001 0.20848450624383852
0.4445761107116897 13.3149483206171 139822.11147468674 7.6251597885147415 0.21152371210547657
0.4619570990669479 13.260574544173162 117979.34018477828 8.01634700771799 0.21459449381952006
0.4797214731187024 13.213157268413642 99812.49602118076 8.424304170350167 0.2176985198386648
0.4978792094839398 13.171983076728006 83768.15276035051 8.849474168170167 0.22083328742869202
0.5164170477097467 13.136400639874815 71937.66706945485 9.2927262538354 0.2240021472730141
0.5353351710744977 13.10584822990456 61276.692069249555 9.754947132965098 0.22720804647925055
0.5546412566003286 13.079824274690937 52300.78064234146 10.236946369767347 0.2304523359452306
0.5743240641533687 13.05783955505677 44730.59436525417 10.739197730220848 0.23373174548862952
0.5943799469251386 13.039526240074196 38328.46974524347 11.262940735666186 0.2370523983125181
0.6148174510618043 13.024502547211155 32902.837614511795 11.80911541968156 0.24041594118951265
0.6356207542879192 13.012449685943368 28293.375956089127 12.3787007613806 0.24382400702305745
0.6567912949529858 13.003015365132802 24371.517119657263 12.972389450610736 0.24727458816212167
0.6783237265889505 12.995970876659804 21028.758412239982 13.59150090975117 0.2507723878827154
0.7002102280518878 12.991069411111727 18173.07384643532 14.237236296578946 0.25432008322575855
0.7224444311877345 12.987996276871089 15730.445935133439 14.910785264806881 0.2579196587466563
0.7450324835602072 12.986638449712332 13634.596535304767 15.61318128469015 0.26157104940081194
0.7679517107712686 12.986749640109927 11836.725069571343 16.345682937300655 0.26527607469590436
0.7911962541829355 12.988137597727981 10288.878427536918 17.109909838202363 0.26903946213835417
0.8147695283140317 12.990673607450931 8956.730404955097 17.907316987606116 0.2728636442169847
0.8386526128437936 12.994133734648806 7807.816613116387 18.739271734174288 0.2767497205949518
0.8628332547238585 12.998402125007349 6814.755468027334 19.607114419305955 0.28069813583144665
0.8873127113444785 13.003353899013693 5955.538974611954 20.512932739448527 0.2847152678581724
0.9120687052283605 13.008841861306896 5211.261154580877 21.45852075432864 0.2888041298878189
0.937088482641862 13.014736483968477 4565.458982755615 22.445365042462843 0.2929646637001535
0.9623664178026686 13.020938209363996 4004.4772761292456 23.47548599486039 0.2972006291873278
0.9878912907624346 13.027328512913064 3516.6536277346927 24.55130821682429 0.301518145671999
1.0136334647801672 13.033791980198965 3092.077764250801 25.674776630003766 0.3059188646609397
1.0395977180176361 13.04024518783522 2721.55220647078 26.84784706893089 0.31040400660618067
1.0657481227257628 13.046570395330248 2398.460462412042 28.073618733628702 0.31498232551588456
1.092079557267487 13.052701126574442 2115.9045155798235 29.354148698680753 0.31965428183964023
1.1185772101624698 13.05853760162764 1868.7055335081996 30.692188243026184 0.3244245308093842
1.1452078288490708 13.06399321296244 1652.1860743043376 32.09114196081076 0.3293011626414005
1.1719704704821938 13.06900619482284 1462.122937002232 33.55294420626367 0.33428183181717147
1.198826491157546 13.07345710304201 1295.5705899593079 35.08214029158824 0.3393801256287611
1.225771620609365 13.07732696717695 1149.1286838606406 36.68075701587258 0.3445928278003342
1.2527668187389756 13.080497360298509 1020.2227050118465 38.353843736530635 0.3499343576573869
1.2798087801865645 13.082938474044381 906.7430857348571 40.10363444819605 0.3554012636131569
1.3068523037085562 13.084520106782957 806.7837684032479 41.935611663965545 0.36100817178182876
1.33388960281607 13.085235405278652 718.6399531690306 43.853243225705775 0.3667569237774401
1.3608956819457227 13.085035733991212 640.6563523418666 45.861236675407184 0.37265538083707134
1.3878277146191764 13.083777113282872 571.8286440994411 47.964915126471276 0.37871344582280686
1.414684455439252 13.081485035064325 510.8618302040038 50.16902216998253 0.3849367053558923
1.4414075041167063 13.078035704811102 456.9018367447757 52.47880146782217 0.3913322563463644
1.4680018896188027 13.073435808037269 409.0359166955964 54.90065632637541 0.397911725479654
1.4944102850473562 13.067573122654512 366.5613840252812 57.44077561688824 0.40468417210759156
1.520620415074038 13.060431403725426 328.8348716380434 60.105786230475985 0.411659365532136
1.5466054878150939 13.051942566626341 295.30559814179907 62.90279250844799 0.4188478434585279
1.5723218485874235 13.042063610976376 265.477679654092 65.83941944770083 0.4262609752204099
1.5977454873028074 13.030738212098075 238.93319751028548 68.9238600643976 0.4339110303354664
1.6228324589793564 13.017919462835783 215.2460549147603 72.16492734678748 0.44181125301853447
1.6475845769265425 13.003582576628629 194.10629560684708 75.57211128203912 0.4499759433549253
1.6719335327242946 12.987648950091454 175.24521059251558 79.15535528186034 0.45841935066699363
1.6958713090317739 12.970102951132972 158.37261867775644 82.9248353088504 0.46715468422132983
1.7193510568227357 12.950892715711513 143.28516984827937 86.89329378954369 0.47620352039343333
1.742336803241683 12.929954249989152 129.78313173076248 91.07232216015895 0.48558025982562375
1.764817905461244 12.907309225762571 117.68568465091381 95.47597733802952 0.4953066978589299
1.7867433703848705 12.882874936749028 106.82539202264192 100.11795835677049 0.5054004832684551
1.8080825974933 12.856624436997784 97.08789017228015 105.01477214659026 0.5158872496509254
1.8287931370265236 12.828491510248805 88.33739327539969 110.18295718188526 0.5267895306242827
1.848873510721857 12.798529410732701 80.4703942480029 115.64012840406163 0.5381306472390774
1.8682599474592203 12.76662409087992 73.38219128267453 121.4065192911775 0.5499400298851269
1.8869301237257756 12.732777200812446 67.01245213625903 127.50353547426316 0.5622474211608429
1.9048532046594024 12.696965581947454 61.25918142222332 133.9536268086085 0.5750821590239015
1.9219967322880287 12.659151469249002 56.07775174554632 140.78243797966127 0.5884804130423749
1.9383116094823656 12.619280105423195 51.394410801351036 148.01766470687357 0.6024805241607768
1.9538085158431395 12.57742808093421 47.16352132078078 155.68783282548998 0.6171183592852033
1.9684269848817557 12.533503474816811 43.34103494195763 163.82655184119224 0.6324414005058263
1.9821429469181466 12.487508213600368 39.88220837084862 172.46756402687024 0.6484911176599146
1.994934237319296 12.439436608881932 36.7476221970625 181.65020423901137 0.6653208447107818
2.0067707414966085 12.389281737083499 33.90456435044612 191.41644250896724 0.6829849044049479
2.0176202160256387 12.337012421716139 31.330184431841147 201.812304187305 0.7015425186680678
2.027459363835084 12.282630212094691 28.993306208358543 212.88775468203306 0.7210564346666756
2.036269550016199 12.226171967557658 26.871226300674692 224.69821725230145 0.7415967962507946
2.0440162397921755 12.167582048904968 24.94339748341467 237.30489631294415 0.7632408938667327
2.050677620189543 12.106882077795783 23.188377832573558 250.77461819186442 0.7860712198379506
2.056254005771428 12.04414060817648 21.595013720629666 265.1804625287611 0.810175897479157
2.060701774163906 11.979297267886441 20.142800341871972 280.60418888321647 0.8356547141866265
2.0640093795404835 11.912408018279233 18.822963801253177 297.13546528112425 0.8626144737790136
2.0661722905825823 11.8435122533334 17.61941637233256 314.87467995933974 0.8911757383089494
2.0671680593969293 11.772627254984622 16.524230845465752 333.93123078807173 0.9214643879294859
