M[M_sun], R[km], Lambda[1], P_c[MeV/fm^3], rho_c[fm^-3]
0.24162668629717493 15.618656898711224 2160425.4255784233 3.5677272577965504 0.1711233750220791
0.2536435780701392 15.277304751514086 1723234.709036555 3.784811910854826 0.1738880771368152
0.2660391029100099 14.98127596910701 1383040.0118562158 4.011385309554099 0.17666646565765687
0.2788135258571309 14.723545383291302 1116459.497141836 4.247703785279487 0.17945723087515558
0.2919669453969892 14.498471716016683 905939.9713172681 4.494392374034293 0.18226693633347105
0.30550326464370176 14.301210865574722 725455.1804920553 4.751605623935761 0.1850912676026598
0.31941790977445444 14.128181161881516 605125.3339572772 5.0200275677703345 0.18793688187461138
0.33371473016443587 13.97598360215682 497701.0291806914 5.29987982757099 0.19080035461197364
0.34839577340016215 13.84207078492014 411032.3062086012 5.591893843225403 0.19368803966061204
0.36345723312913775 13.7240350801213 340686.7233488258 5.896233326900724 0.1965949341738062
0.37891080350043993 13.62003728632387 279421.300705969 6.213763820800867 0.19952874970095683
0.39474139749235665 13.52850031803162 236419.6851535912 6.544745039705559 0.20248570557429701
0.4109651575227419 13.447943116683755 197884.5426515531 6.889874784975122 0.20546943541045828
0.4275729829785121 13.377089478854797 166094.65317893692 7.249860151017253 0.20848304976572604
0.4445665888632162 13.314975844563834 139818.75551826588 7.624963476588579 0.2115221493363162
0.4619479171189205 13.260595160937488 117993.18772281987 8.016127017195357 0.2145927920149728
0.47971109535310985 13.213187497478554 99833.9535583185 8.424058785806958 0.21769667488994118
0.49786735450632486 13.17200698095248 84650.03451531354 8.849204294381781 0.2208313334271559
0.5164051661272091 13.136414000270829 71944.96758899055 9.292427523451822 0.22400004419249003
0.5353220790487951 13.105862216920444 61283.2207393461 9.754617520552856 0.22720578977820233
0.5546275318695364 13.07982118393297 52305.87133002463 10.236583726820802 0.2304499208846741
0.5743082212530286 13.057860387423748 44735.63283052772 10.73880363242483 0.23372921525870288
0.5943626017952964 13.039552511452397 37999.2707403283 11.262509256434608 0.23704970242247103
0.61479996776415 13.02451820020572 32906.63552626759 11.808644010089541 0.24041307423266364
0.6355999592285885 13.012439591590066 28298.57799839374 12.378186713484446 0.24382096330732045
0.6567714897200755 13.00302573168575 24375.35925173583 12.971835124996524 0.24727141986422274
0.6783016151726112 12.995983990509096 21031.236963273746 13.5908984349822 0.25076903346461443
0.7001887911618305 12.991061227518632 18175.181873633857 14.236582442346721 0.2543165360346374
0.7224213005391631 12.988005137497055 15732.79630256861 14.91007659325207 0.25791591173301026
0.7450074525291996 12.986648125306143 13636.619588311767 15.612421051458025 0.26156716359281196
0.767926992224056 12.98676108676003 11837.864205199628 16.344860847412107 0.2652719767839972
0.7911704705573482 12.988130402638566 10291.108056641844 17.109021765841053 0.26903514374318765
0.8147430985317049 12.990663291420697 8958.290540484413 17.906358533422534 0.2728590964204164
0.8386240050126303 12.994125384834591 7809.172801206969 18.73824714925427 0.27674501315737876
0.862803765139322 12.998391944276499 6815.990971798677 19.606010381809078 0.2806931827114782
0.8872769300154965 13.00333733049873 5956.617614452499 20.51174393578393 0.28471005833618723
0.9120359434337587 13.00884715065867 5212.1713070356855 21.45724150704845 0.2887986525214185
0.9370541673008059 13.014729387818292 4566.377979859722 22.44400068037382 0.2929589969167857
0.962330840010057 13.020930770152404 4005.304263817689 23.47401939656936 0.2971946728958991
0.9878548127573642 13.027319124613491 3517.3904814954744 24.549732479358944 0.30151188601508694
1.0135957450344903 13.033785769643844 3092.5875538979976 25.673097852733637 0.30591238593614
1.0395573530167457 13.040235480387883 2722.00874950399 26.846044728975187 0.31039719769037455
1.0657078432458658 13.046557846951993 2398.8705632560936 28.07168439452733 0.3149751695544335
1.0920377454411196 13.052687773452705 2116.3806555406 29.3520892159434 0.3196468689663146
1.1185341732325162 13.058530778707958 1869.0264527431561 30.689979029208555 0.3244167376644891
1.145165122106255 13.063977061841934 1652.5198399708775 32.08879022617362 0.32929308231282384
1.1719253935214249 13.068995350391205 1462.5237151334256 33.550422366084604 0.33427333295575545
1.19878041203584 13.0734513036926 1295.7631120315018 35.079436443738025 0.3393711847369352
1.2257239270813787 13.077323682631869 1149.3828184472118 36.67787900651613 0.34458354378765654
1.2527190944001954 13.080490787918981 1020.4164031056479 38.350763113601715 0.349924611493292
1.2797584719973085 13.082935575176796 906.9255767101563 40.100349934556 0.3553911024252397
1.3068023152195147 13.084515174593081 803.5904339712738 41.9321143430738 0.36099759885093125
1.3338373665636518 13.08524077767516 718.7788607333702 43.84949388824941 0.3667457788075053
1.3608444060255713 13.085032773651868 640.8018198080807 45.85724317725791 0.3726437682869289
1.3877743184949054 13.08378033893287 571.9682014871859 47.960660410867675 0.3787013355287469
1.4146297907570022 13.081491493994278 510.9528396036308 50.164459584471444 0.3849239204884829
1.4413528027992049 13.078040982927392 457.0070467634862 52.473938255137845 0.39131890378642165
1.4679461410975643 13.073449131602723 409.1255679316334 54.89547095360889 0.39789776738873545
1.4943546613467888 13.067585406718548 366.6307365240955 57.43524480697879 0.4046695677222223
1.5205658948679226 13.060446243949142 328.93272291554473 60.099884806056366 0.4116440709236067
1.5465482006099747 13.051963337474055 295.36943342936934 62.89649322010938 0.4188318112688905
1.5722641164237714 13.042088678090769 265.53867205002626 65.83269278494106 0.42624415437211216
1.5976880152617896 13.030766005125361 238.98902350551552 68.91667404730735 0.43389336571177384
1.622774788914513 13.017952068641065 215.3022696362507 72.15724729628977 0.4417926851115472
1.647526813085497 13.003617231151786 194.1558767935284 75.56389956622394 0.4499564078776048
1.671876069890905 12.987689420450723 175.28820912910533 79.14661391199631 0.4583989571511086
1.6958126370347277 12.970148310534038 158.40956148677438 82.91547900347804 0.4671331834588341
1.719278406389754 12.95090946549971 143.32654822980302 86.88327438738456 0.47618083137718253
1.7422804486197785 12.930011002578949 129.81878737804038 91.06163549061814 0.4855564859195171
1.7647608861200224 12.907369994757644 117.71454254153804 95.46452045814954 0.49528155890627623
1.7866874493005374 12.882943788319263 106.85061203673315 100.10572129089252 0.5053740762111805
1.808027685776208 12.856693971869902 97.11404896312241 105.00169144255666 0.5158594727484918
1.8287398243919117 12.82856943688657 88.3561613020605 110.16896362893276 0.5267602738274527
1.8488203876261617 12.798612009587517 80.48597693031424 115.62508927963276 0.5380995815976103
1.8682087234801923 12.766710776948479 73.40216415753217 121.39040723365541 0.5499072316404222
1.8868805964876767 12.732871848526289 67.02881081902463 127.4862600293472 0.5622127494807398
1.904804823097129 12.697066648527233 61.27625293633472 133.93515249602385 0.5750456849946363
1.9219493564413652 12.65926238649292 56.091675622151094 140.76259522520826 0.5884417518108822
1.938264906888118 12.619384720198607 51.408299336875864 147.9963346899545 0.6024394948119984
1.9537654239154747 12.57755349938316 47.17727725041844 155.66495529150936 0.6170750040682367
1.9683849219363054 12.533635683518787 43.35300382552129 163.8019881615055 0.6323955153480331
1.9821038102834219 12.487649406087286 39.891387593576276 172.44108804627382 0.6484422326565672
1.994897890192581 12.439584531147583 36.757987203984506 181.62171998501213 0.6652689602471656
2.0067299672667365 12.389421588503023 33.915158059809166 191.38576502087827 0.6829297551166892
2.017587652791703 12.337177501466172 31.33686261179188 201.7792294326963 0.7014838142411929
2.027428365377523 12.28280454499385 28.999336569509172 212.852140744166 0.7209941302130914
2.036242912342188 12.226351750469542 26.87755477130334 224.6597345171933 0.7415302779270161
2.043993591006073 12.167771541737569 24.94977385579093 237.26335731347746 0.7631700660568045
2.050658688639292 12.107081427928518 23.19431087362908 250.72969344498514 0.7859955823368145
2.0562352972497764 12.04434988004699 21.59927849626654 265.1317854939908 0.810094896065223
2.060689374967956 11.979517377349879 20.148338120667606 280.5515451515951 0.8355683662140463
2.0640003454046654 11.912632985432262 18.82655143551072 297.07835089188336 0.8625219382346233
2.066167511210059 11.843747347414478 17.623270875932793 314.81263631816523 0.891076418642474
2.06716582265969 11.772869877823865 16.527940414517907 333.86384871445085 0.9213579633266439
