M[M_sun], R[km], Lambda[1], P_c[MeV/fm^3], rho_c[fm^-3]
0.24162668629717493 15.618656898711224 2160425.4255784233 3.5677272577965504 0.1711233750220791
0.2536355281878148 15.277470803468201 1723427.7427989296 3.7846628110187206 0.1738862186792863
0.2660229493340576 14.981616641405193 1383458.8909799757 4.011071881257873 0.17666267806166971
0.2787867694339712 14.724056712504225 1116882.575123814 4.247215434345452 0.17945156674024992
0.2919315331262505 14.499003266059955 906423.4071585538 4.4937162956819625 0.18225940804410826
0.305455687608134 14.301907634675667 739196.1066930477 4.750718873682569 0.185081689007537
0.31935963242233745 14.128872471733539 605576.8508606268 5.018923624044914 0.18792542803237702
0.3336465836847039 13.97670651164262 498165.546489427 5.2985296401754685 0.19078676046526677
0.34831578644140526 13.842741621307846 411442.5116953605 5.590294051826217 0.19367256123873747
0.36336565763211354 13.724689631531026 341051.3061493511 5.894348006210983 0.19657722684291176
0.3788046783861578 13.620705998896396 283680.4686207355 6.211570171514995 0.19950874626079537
0.39462241990560487 13.529133753729282 233628.74018375427 6.542245350087891 0.20246378667326534
0.4108326963654642 13.448521627137515 198170.9590007963 6.887020820221857 0.20544512984899965
0.42742503027688816 13.37767831198432 164339.38484512045 7.246625148938058 0.20845628742258487
0.44440396904457535 13.315525669658998 140048.4646026904 7.621356388236795 0.21149343459368578
0.46176963026397844 13.261115120532153 118189.83963361585 8.012084954937324 0.21456152339553994
0.47951799330675965 13.213669383678509 100001.74907991 8.419550253230002 0.21766277702777542
0.49765493204949507 13.172476957432552 84810.55601601573 8.844245923219232 0.22079543270139004
0.5161750700825072 13.136820527123893 72094.46869376993 9.286939109588483 0.2239614054167294
0.5350767893509216 13.10622311352363 61413.76543055532 9.748561878774899 0.22716432964915245
0.5543628321245708 13.080167928098742 52415.126679061235 10.229921413613885 0.23040555247769284
0.5740245161985389 13.058136957859428 44834.54399007795 10.73156359954649 0.23368273200494244
0.5940675603445639 13.03980304246201 38421.10080228432 11.254582678779133 0.2370001770218379
0.6144804293721774 13.02472273953187 32982.66956284931 11.799984096874974 0.2403604075115729
0.6352611498706461 13.012617334436175 28366.121831016626 12.368743756288112 0.24376505085706549
0.656407064559593 13.00315433126885 24436.711870533894 12.96165248501173 0.2472132200696577
0.6779213945172409 12.996097211996167 21086.595955087483 13.579831594110217 0.25070741625962334
0.6997867205392447 12.991147406699406 18223.67239865907 14.224572108187019 0.25425137938565645
0.7219986351398351 12.988042450484327 15775.30042721786 14.897059665681148 0.2578470863301748
0.7445631038017924 12.986656261860158 13674.805001925464 15.598457319179214 0.26149579025591235
0.7674595454273972 12.986746333303465 11872.36857121949 16.329761321761385 0.26519670943572016
0.7906812825781958 12.98809268460685 10321.01722521442 17.092710725813834 0.2689558286789168
0.8142314808207545 12.99058544584057 8985.240340396147 17.88875524031684 0.27277557005332564
0.838089487779657 12.994039383871263 7833.185771082507 18.71942232045793 0.27665849147337396
0.8622461745295121 12.998290678541842 6837.093028427726 19.585734169932056 0.28060221613632363
0.8866955263919668 13.003216912657397 5975.395143594857 20.489911495375203 0.28461438519714277
0.9114315135981 13.008694710719192 5229.178754188992 21.433748655293233 0.28869806293342687
0.9364301433145583 13.01458526604684 4581.233543607913 22.418945240691738 0.29285493088475034
0.9616819882980088 13.020764382831963 4018.682469609295 23.44708715288676 0.2970852930519548
0.9871809953600658 13.027150531253822 3529.192987587753 24.520796771362726 0.3013969381836435
1.0128988196038782 13.03361762292254 3103.339676876402 25.642270634304737 0.30579341776323576
1.0388374293584566 13.040058399014427 2731.686937795135 26.81294939993436 0.3102721694967192
1.064967355756701 13.046390737231157 2407.424496239246 28.036166171449516 0.31484377220276155
1.091282484193041 13.052500719736775 2122.343121347648 29.314273914917248 0.31951075710133364
1.1177471820070715 13.05836139859143 1875.8672644380486 30.64941551456737 0.32427364723814206
1.144358328560879 13.063831778228817 1650.5508613354662 32.04537381486006 0.3291431886875836
1.1710941082614805 13.068848031745794 1467.9789581291814 33.50412096205516 0.3341172924503017
1.1979269936577361 13.073322599679154 1300.8267620387899 35.02979471645387 0.3392070330027092
1.2248514268526685 13.077211290743506 1153.7752387170829 36.62504092146796 0.34441309630445094
1.251831306497734 13.080405363498746 1024.4442608002414 38.29412124388604 0.3497451824671651
1.2788485134428325 13.082858620694346 910.5858044533157 40.04005183527016 0.3552045602503428
1.3058715808500767 13.084481495694028 810.1611424921254 41.86791097436635 0.3608035023405609
1.3328896232440752 13.085222197273975 721.6948627623462 43.78066605341175 0.36654118688723275
1.3598810636252185 13.085060533002887 643.4959178207268 45.78393498775581 0.37243059803002165
1.3867949031791376 13.083845711504884 574.336564430552 47.882559018532106 0.3784790337544819
1.413627646594298 13.08157849475478 513.1042772541659 50.0807093725569 0.38468924316523423
1.4403540412066143 13.078210559124267 458.92067423215775 52.38467206920485 0.39107381228499927
1.4669228077399417 13.073632888324173 410.87077108692483 54.80029389290272 0.39764156785853555
1.493324887036866 13.06784011865705 368.2109226167363 57.33373000096204 0.40440151270459773
1.5195270003443127 13.060762569531574 330.34026773505946 59.99157055383352 0.4113633549526654
1.5455018486797376 13.052333323808979 296.656458588509 62.78087984459397 0.41853756603653286
1.5712113104351912 13.042523020334324 266.6976029961393 65.70923917002204 0.425935443410596
1.596631268868311 13.031268939190541 240.02017588542262 68.78479382240367 0.43356917854158616
1.621721457005983 13.018539885938772 216.22750514364017 72.0163046283115 0.4414519307961501
1.6464574802848206 13.004263350950252 195.02386555477307 75.41320451400416 0.44959790791959287
1.6708220517185595 12.988422643995387 176.06579158570307 78.9856606375992 0.4580224538843833
1.6947533696989705 12.970961865076108 159.12371823815582 82.74378936082552 0.46673864116006
1.7182440502853824 12.951849275453851 143.97149550176718 86.69942288908697 0.47576449819019667
1.7412461929303407 12.931030893384841 130.40212633146814 90.86554557391483 0.48512025803295594
1.763731462746492 12.90847664506932 118.25183384253964 95.25430523871998 0.49482029977607017
1.7856668191140128 12.88413503518367 107.34443038015512 99.88119779349205 0.5048895642444664
1.807007411607791 12.857963068145555 97.56077050246432 104.76158530414403 0.5153494224788614
1.8277587321693118 12.82999928659 88.75983662402602 109.91124835854603 0.5262198585894419
1.8478378974137273 12.800103105298742 80.85213154356629 115.34918249186101 0.5375296533821868
1.8672588185818229 12.768350518707045 73.74552200016281 121.0948267692431 0.5493055381330348
1.885953723278927 12.734632064538296 67.33546657465875 127.16934826539584 0.5615767100991728
1.903893241176401 12.698914552106238 61.55582018172781 133.59581754973172 0.5743750452584135
1.921067739854183 12.661244274885197 56.34692595226692 140.39861290199818 0.587732575829787
1.9374333604530567 12.621560453159638 51.643919613074466 147.60508650696116 0.6016869094661998
1.9529719415716447 12.57986892728868 47.39154409545879 155.2453369343959 0.6162797852771169
1.9676214829491383 12.53606715484712 43.55025222821239 163.35021301170286 0.6315497023180668
1.9813857026765394 12.490235858677186 40.07180839628258 171.95550684236645 0.6475456600559027
1.9942278729135783 12.442332868591874 36.920311696145106 181.09932754047776 0.6643174151660648
2.0060951562199922 12.39228557659631 34.067029282019995 190.8231732484095 0.6819183771400484
2.0169942937640895 12.340177287480588 31.478257964684737 201.17270114781255 0.700407286364606
2.026888427138764 12.285968521324895 29.12893378112844 212.19818873924993 0.7198487237171348
2.0357541853830106 12.229665850049095 26.995049474379986 223.9540972469068 0.740310567106485
2.0435680088039065 12.17126938017942 25.0569856448986 236.5010042138903 0.7618690806001157
2.0502932510894 12.110744094924167 23.294758256435685 249.90489758497017 0.7846051629527795
2.0559227275001954 12.048137718769963 21.691095565473265 264.2393512327952 0.8086098336052558
2.060442462376988 11.983494617912708 20.23221603918687 279.5848962841575 0.8339803368546479
2.0638362591322568 11.916806383285651 18.90449842619965 296.03092033733765 0.8608242267338337
2.06606675947414 11.848077322336518 17.69440733525003 313.67532078536505 0.88925580016721
2.0671375092891595 11.77737416399977 16.593543005729686 332.62874276871275 0.9194072121449173
