M[M_sun], R[km], Lambda[1], P_c[MeV/fm^3], rho_c[fm^-3]
0.24162668629717493 15.618656898711224 2160425.4255784233 3.5677272577965504 0.1711233750220791
0.2536366820788419 15.27745584993367 1723380.3226560054 3.78468713959314 0.17388652192322995
0.26602357681573097 14.981658541613982 1383428.602066915 4.011123022060531 0.1766632960680886
0.27879242167984947 14.723910912446124 1116848.2195079136 4.247295114753589 0.17945249091290852
0.2919365275223264 14.498944786652668 906305.5089929691 4.493826603678336 0.18226063634924902
0.30546403071435835 14.301750719975253 739083.647409351 4.7508635513811495 0.18508325180280322
0.31937121705474236 14.128706821044428 605484.2100619309 5.019103734133097 0.187927296744058
0.33365979012165764 13.976564937266408 498082.01793827035 5.298749920496739 0.1907889783225908
0.34832887526116285 13.842631341242946 411376.0913326535 5.590555049235748 0.1936750864604726
0.3633800252050966 13.724596406314935 340992.3130460801 5.89465557965614 0.19658011563779815
0.37882221075382644 13.620583923061833 283628.7939376509 6.211928038497715 0.19951200957677787
0.39464224556133887 13.529027754854651 236690.26198237555 6.542653135936665 0.20246736240426738
0.4108548486736025 13.448438716932634 198121.2047807678 6.887486390966386 0.20544909484482923
0.4274503013143538 13.377560995153102 166312.22809355432 7.24715286791043 0.2084606531064005
0.4444315456099546 13.315435816423689 140012.88170157964 7.621944794010458 0.2114981186819878
0.4617991697068113 13.261019535560381 118163.11791264155 8.0127443024283 0.2145666239814422
0.479549629133901 13.213581877219061 99969.18378495112 8.420285677275713 0.21766830638849521
0.49769098540653434 13.172394508200629 84787.16131034413 8.845054709845817 0.22080128866213447
0.51621500151013 13.136759420341548 72070.05376450485 9.28783433654594 0.2239677078703208
0.535116789357331 13.106167347652404 61389.79101443096 9.749549607928767 0.22717109216577533
0.5544089441243539 13.080109236757242 52403.79143091614 10.231008074818426 0.23041278921740715
0.5740702063087283 13.058093748383033 44818.310214075245 10.732744470090175 0.2336903135596208
0.5941165712396689 13.039776924136442 38406.69513678764 11.255875501474835 0.23700825460143593
0.6145318664771564 13.024688874583074 32969.18863665622 11.8013964987865 0.24036899727173555
0.6353157592242323 13.012600109403074 28354.531885298038 12.370283839873549 0.24377416980625366
0.6564657374081411 13.003146328052754 24429.646522518782 12.963313178647624 0.247222711913481
0.6779843321949292 12.9960804740962 21078.166241338142 13.581636457560272 0.2507174652557614
0.6998532341329368 12.99113801586072 18215.798683483597 14.226530805470789 0.25426200541401517
0.7220673516918227 12.988055292713177 15767.492492829715 14.899182481192902 0.2578583104559868
0.7446348300131114 12.986671534900795 13668.138877728174 15.600734503961423 0.26150742971400265
0.767537369994314 12.98674772369314 11866.242695418836 16.332223682034734 0.2652089836841015
0.790761315864451 12.988097336572926 10316.112486753282 17.09537060218672 0.2689687627570085
0.8143134919433231 12.990614955922634 8980.834381280067 17.89162579083838 0.27278919061029616
0.8381754079359898 12.994052133151026 7828.40799611891 18.72249815641037 0.2766726546840088
0.8623370799476693 12.998308007423022 6833.623528511816 19.589040472250264 0.2806170494296497
0.8867904724545711 13.003244395058266 5972.444103777718 20.493471490565277 0.2846299856480517
0.9115305535981353 13.008715552609 5226.418891926672 21.437579320545492 0.2887144647327262
0.9365293474776692 13.014607135356808 4579.151360616507 22.42303063016273 0.29287189926674484
0.9617868766601146 13.020797320251532 4016.561694922196 23.451478474239792 0.2971031275127582
0.9872910746741143 13.02718339347632 3527.4078257995366 24.52551466317285 0.3014156801281167
1.0130144609802083 13.033643343303359 3101.7061477914986 25.647296849330658 0.30581281489501516
1.0389557252859432 13.040087311373327 2730.151253241662 26.818345307264256 0.310292554262973
1.0650886389504626 13.046423374117275 2405.8783732815755 28.041956990303188 0.31486519495974236
1.0913969836821862 13.052546798028716 2122.7512526137693 29.320439140835028 0.31953294812916966
1.1178746939958777 13.058388969261603 1874.7708651968164 30.656028656096527 0.3242969755234071
1.14449211315691 13.063863050501494 1657.5573291538908 32.052465850241475 0.3291677157048022
1.1712290608234084 13.06887409037624 1467.040594229597 33.51166926890807 0.334142731022659
1.1980709364122832 13.073359128835236 1299.9616599842282 35.037887403931485 0.3392337933262652
1.2249937876324848 13.077229590421906 1153.0406231455004 36.633654531370574 0.3444408824766386
1.251977181432767 13.080426616404933 1023.7880345086772 38.30335473587051 0.3497744321455893
1.2789969621248476 13.082869549743197 909.978680813984 40.04988116792033 0.3552349689217945
1.3060233496590676 13.084482397139295 809.6697435302374 41.87837671847046 0.36083514187054094
1.3330436857006889 13.085229606138213 721.2126143410097 43.79188536667292 0.3665745364884465
1.3600391053526188 13.085051836646324 643.0519349567297 45.79588439235216 0.37246534527538394
1.3869565923910132 13.083838024721016 573.9275321212965 47.895289475683654 0.3785152687450162
1.413789921661915 13.081562003262452 512.7571494968423 50.094360249209956 0.3847274944259738
1.4405185510639313 13.078185492724593 458.6104361281465 52.399221725282246 0.3911137601893027
1.467088548809009 13.073605220375377 410.5891778725023 54.81580664943776 0.3976833254092194
1.4934943485587262 13.067796208350817 367.9566853062448 57.35027538400333 0.40444520163153125
1.5196965161755587 13.060713568464314 330.10454949890277 60.00922375995746 0.41140910642853873
1.545672629065773 13.052273120688238 296.44757517105745 62.79972225281697 0.41858552146349826
1.5713862571408157 13.042450281362171 266.5367982467019 65.7293589052726 0.42598575528537364
1.596797994772788 13.031176869352764 239.8488249401537 68.80628637634399 0.4336220114075227
1.6218914665490494 13.01842553862261 216.1022508199746 72.03927354400867 0.4415074622917296
1.646630048753955 13.004155534596128 194.8762649326472 75.43776214175435 0.44965632993403615
1.67099475908615 12.988304734719984 175.93938229176905 79.01192897012615 0.4580839738322786
1.6949262776913465 12.970830617934908 159.01870519761246 82.77176701926749 0.46680293373767545
1.7184150718618587 12.951701018818401 143.86212120663382 86.72938159490494 0.47583233991891066
1.7414165605893654 12.930865139775028 130.3164858288712 90.89749780752426 0.4851913399915425
1.7639004103335922 12.908296061751916 118.16474525855948 95.28855820081556 0.4948954584232227
1.7858330983742845 12.883940570214598 107.26284537357961 99.91778129051877 0.50496850984392
1.8071723503421881 12.85775230793904 97.48881229304682 104.8008000027696 0.515432879355019
1.8279206669659804 12.82977240616252 88.69502079813469 109.95324322993592 0.5263079284880591
1.8479963880824017 12.79985322519798 80.79794401482557 115.39413462701175 0.5376225089816189
1.8674126800371043 12.768085681230358 73.6837472507623 121.14298290896244 0.549403566386247
1.8861055720063025 12.734347913821676 67.28600731169173 127.22097823923514 0.5616803310447054
1.9040355690972004 12.698581950126142 61.512660263490126 133.65121671634824 0.5744847154137984
1.9212099648104777 12.660913520518779 56.306670886259425 140.45790808080562 0.5878481053869208
1.9375704531338953 12.621208639285749 51.60552072432136 147.6688214732247 0.60180950684482
1.953086613319389 12.579438238452642 47.35740994912288 155.31369146478784 0.6164093239545946
1.9677395773002657 12.535644648653545 43.51665971723681 163.42381474770986 0.6316875167132152
1.981501222634599 12.489803550921607 40.043114361179526 172.03460138616512 0.6476916994830084
1.9943397499866573 12.441893498911071 36.89292532928271 181.18441536559956 0.6644724038193337
2.0061994631228814 12.391818460074786 34.04290745305722 190.9148056880997 0.6820831058758454
2.017090323385571 12.339681696843662 31.455211158233947 201.27148630963163 0.7005826202824822
2.026976986522551 12.285452409938156 29.107876324948972 212.3047981879565 0.720035610670314
2.0358295885213247 12.229107473315489 26.97574055795283 224.06901610549474 0.7405092070893843
2.043637281998775 12.170697897490744 25.03934761229479 236.62530224326682 0.7620814286866969
2.050354427655515 12.110146538897054 23.28001920197431 250.0392120867901 0.7848315868425454
2.055972230641141 12.04751630051785 21.676323290702125 264.3846746513594 0.8088516602168593
2.060482557952798 11.982839819757155 20.21795661436381 279.7423310422985 0.8342390267664871
2.0638593798454306 11.916115749077786 18.892120660084093 296.2016928527695 0.8611013907232278
2.0660831116348155 11.84737122823318 17.68310322160081 313.86049732673234 0.8895522313885165
2.067143361206236 11.77663897150068 16.58308216718346 332.8298326675052 0.9197248175771121
