M[M_sun], R[km], Lambda[1], P_c[MeV/fm^3], rho_c[fm^-3]
0.24162668629717493 15.618656898711224 2160425.4255784233 3.5677272577965504 0.1711233750220791
0.2536435988649402 15.277288416279502 1723153.8274768337 3.784813041020639 0.17388809122378684
0.26603917986606535 14.981262771366966 1383035.0959282839 4.011387685384466 0.17666649436816473
0.27881370976828207 14.72354258037377 1116461.8171584313 4.247707487148623 0.17945727381125895
0.29196787796463103 14.498452987794572 905913.525836709 4.494397499078089 0.18226699340202318
0.3055036064547139 14.301224275420472 738672.583587691 4.751612346168504 0.18509134021560297
0.3194186140326866 14.12816873107863 605164.9248527943 5.020035936705358 0.18793696870554236
0.3337165950922477 13.975951836220005 497688.7967093816 5.299890063533563 0.1908004576711322
0.34839638112995625 13.842065654163617 411029.1666915516 5.591905971767713 0.19368815700759534
0.3634582328288677 13.724028337582094 340672.65447670873 5.8962476204999925 0.1965950684223154
0.37891154349630385 13.620027132728016 279412.9222335017 6.213780452422653 0.19952890136132173
0.3947422096712643 13.528523743334874 236415.14524041684 6.544763992077496 0.2024858717609955
0.4109667013491582 13.447906205799367 197875.28347097486 6.889896423961274 0.2054696196971448
0.4275744717525626 13.377084446965688 166096.13259054805 7.249884679665904 0.2084832526849502
0.4445686415992178 13.31496193728925 139813.63246867928 7.624990827100978 0.2115223670639812
0.4619490385419286 13.260593376051885 117986.11745542703 8.016157666615506 0.21459302911301664
0.4797121461005431 13.213183331852836 99825.20839433621 8.424092973122843 0.21769693193076364
0.49786966340331756 13.171999647171567 84653.05350205819 8.849241893536112 0.22083160566109813
0.5164057144093852 13.136427496664146 71943.4616349477 9.292469142896884 0.22400033719597795
0.535323586702973 13.105864391933777 61282.486263284474 9.754663442465157 0.22720610418392181
0.5546289543085247 13.079840348263563 52306.204124698575 10.236634250522457 0.23045025735281774
0.5743104394701342 13.057855132610602 44735.31045052601 10.738858538388858 0.23372956777199966
0.5943666452868095 13.039550966701922 38331.42524389686 11.262569370338957 0.23705007801523323
0.6148020698749919 13.024514758025704 32906.16940971659 11.80870968703999 0.24041347365810195
0.6356027407977265 13.012437956985865 28297.306457479932 12.378258330740108 0.24382138735840544
0.65677451137138 13.00304194480446 24180.847092228796 12.971912353680928 0.2472718612717137
0.6783047547381749 12.995982081576663 21031.688391829717 13.59098237171892 0.2507695008018765
0.7001920307823137 12.99106857096604 18175.18921287179 14.23667353716693 0.2543170302284829
0.7224251219150066 12.988003951756822 15732.262600187434 14.910175325101248 0.2579164337655141
0.7450113113959274 12.986653332584247 13636.546183487479 15.612526966764719 0.2615677049616034
0.7679306040536803 12.986751059935838 11837.660605043691 16.344975380431713 0.2652725477023741
0.7911734014795353 12.988136291162867 10290.845834862277 17.109145491359694 0.2690357453784878
0.8147474713966714 12.990661536272095 8957.806939509985 17.906492064332696 0.27285973001503716
0.8386289874096738 12.994124595695826 7809.024014445756 18.738389893306607 0.2767456689924415
0.8628077134208704 12.998399256622971 6815.986913683383 19.60616419493781 0.28069387277398195
0.8872815042685903 13.003347692118062 5956.525086964896 20.511909558245744 0.2847107841194951
0.9120404488824301 13.008835120072899 5212.1448091115535 21.457419729789123 0.28879941561958306
0.9370588955945417 13.014729246489663 4566.192674155959 22.444190761005196 0.2929597864035129
0.9623360467428838 13.020930514466908 4005.0713809548006 23.47422372034591 0.29719550271546624
0.9878593770279587 13.027321813353216 3517.3731936336753 24.549952007955046 0.3015127580979841
1.013600985147728 13.033777416693109 3092.4053606913985 25.6733317364143 0.3059132885383072
1.0395632534034018 13.040232229168003 2721.957824213294 26.846295826857087 0.3103981462929573
1.0657135015827321 13.046558428673077 2398.8095289604285 28.071953881914858 0.31497616650546206
1.0920432505626327 13.05269023273585 2116.2174505943326 29.35237613776534 0.3196479017087027
1.1185406144248005 13.05852482368616 1868.998769386374 30.69028681081369 0.3244178233840449
1.1451704689648812 13.063979598822206 1652.4726276620272 32.089117863072794 0.32929420804093845
1.171931364858854 13.069000927300177 1462.4783673201298 33.55077370117319 0.3342745169912281
1.1987870588275977 13.073452100824591 1295.7408404362604 35.07981313511956 0.3393724303532127
1.2257305851940783 13.077322797059209 1149.3292651691738 36.67827996111758 0.3445848372051344
1.2527254358095257 13.080492175666672 1020.4489651522732 38.35119294429768 0.34992597310270857
1.2797655001248567 13.08293589931214 906.9043678092085 40.100807520924555 0.3553925180445943
1.3068099214802096 13.084522148373049 806.9424380464778 41.93260157645699 0.3609990718312642
1.3338439966284368 13.08523963081509 718.7810455769558 43.85001623093557 0.3667473314801043
1.3608523175470655 13.085037035337605 640.7666792421268 45.85779953483254 0.3726453860991805
1.3877821238790524 13.083778255850225 571.9524528365488 47.961253159520034 0.37870302268275496
1.4146375576205412 13.08149377544465 510.9340562780164 50.16509522336532 0.3849257016187124
1.441359700105676 13.078042649422445 456.9991955555122 52.47461577528216 0.39132076400289306
1.4679533044704656 13.073446163586654 409.1199973527402 54.89619335475209 0.3978997119626919
1.4943621344980262 13.067583949004879 366.6253353664328 57.43601533184131 0.4046716023323812
1.5205732705551005 13.060444445709356 328.92307081533 60.100706962083414 0.4116462016896201
1.5465561354997295 13.05196051399773 295.35917841619784 62.89737080339403 0.4188340447881209
1.5722720551946971 13.042087064306314 265.53705025453644 65.83362990655989 0.4262464977600818
1.5976959552649692 13.03076126205612 238.98463983897398 68.91767516233874 0.43389582664668125
1.6227830344859258 13.0179472768812 215.29366655940444 72.15831723581984 0.44179527188329853
1.6475347873074218 13.003612553811454 194.14872588137752 75.56504357268246 0.4499591294418586
1.671884126650994 12.98768372548525 175.2746220855541 79.14783170522772 0.458401798248785
1.695821501428359 12.970141937172855 158.40602845847857 82.91678246382895 0.4671361788069242
1.7192867830044618 12.950902067922568 143.32374894518395 86.88467022406996 0.4761839922605103
1.7422877629117888 12.930002129126525 129.807213296069 91.06312428466927 0.4855597979382755
1.7647685321353264 12.907361887010815 117.71247946443397 95.46611655019714 0.4952850610886187
1.7866965774724493 12.882931788256135 106.85160255805015 100.10742607065428 0.5053777550519466
1.8080341641673485 12.856684444580017 97.10945126097539 105.00351374933933 0.5158633424207645
1.8287473473697458 12.828557849810519 88.3536176410153 110.17091310423227 0.5267643496617284
1.8488277703526133 12.798599664056985 80.48635420705973 115.62718441240287 0.5381039094189386
1.868216496149885 12.766698594198399 73.40210809551829 121.3926518355707 0.5499118008273669
1.8868870547522272 12.73285893852412 67.02602502342499 127.48866670116749 0.56221757965188
1.9048128977364434 12.697053036966501 61.273031166375254 133.93772618043172 0.5750507662467793
1.9219561385136659 12.659246509987199 56.09072535312577 140.76535954460542 0.5884471377562854
1.938271524730326 12.619368412831289 51.40618725441549 147.999306196547 0.6024452106527708
1.9537716401059166 12.577535857179376 47.173881417176425 155.66814237911925 0.6170810439182893
1.9683901570249218 12.533618632648984 43.350551104975025 163.80541014164478 0.632401907635372
1.9821095097309458 12.48762898846922 39.89064263512298 172.44477642297895 0.6484490428408745
1.994902155890236 12.43956395838769 36.75597165859428 181.62568812765852 0.6652761882740175
2.006741739197649 12.389415215952381 33.912594845640946 191.39003869498342 0.682937437951883
2.017585660363446 12.337150650729937 31.338643630470397 201.8723566027507 0.7016097474802508
2.0242089161819448 12.28723641729238 29.420940393836656 213.81328218449582 1.2725153021130946
