M[M_sun], R[km], Lambda[1], P_c[MeV/fm^3], rho_c[fm^-3]
0.24162668629717493 15.618656898711224 2160425.4255784233 3.5677272577965504 0.1711233750220791
0.2536377552734492 15.277445277929317 1723366.184352935 3.7847167335130227 0.1738868907971647
0.26602721136721635 14.981561282896893 1383286.1107698225 4.011185231711138 0.17666404783500256
0.27879679763718684 14.723866917453938 1116791.0880875376 4.247392042030544 0.1794536151232549
0.29194439169052544 14.498792433990822 906207.0511415032 4.493960789178794 0.18226213053593945
0.3054729092412741 14.301674928238175 739030.2504853825 4.751039548020745 0.1850851529024055
0.319382308224365 14.128555228500426 605380.4208216898 5.019322835347271 0.18792957000372038
0.3336724327675611 13.976418777063229 490053.63914579956 5.299017890715656 0.1907916763380523
0.3483449035783106 13.842496877278272 411294.932731861 5.590872554430251 0.1936781584105721
0.36339830438508475 13.72446175802785 340913.04279488494 5.89502974836575 0.19658362990950135
0.3788438598865507 13.620446328928258 283549.50498908607 6.212363394184631 0.19951597949644018
0.39466545916078827 13.528906466411705 236632.90837584835 6.543149223521698 0.20247171242220663
0.4108809447276442 13.448308498286059 198069.13968239242 6.888052781223048 0.20545391846193142
0.4274784325993821 13.377467035184592 166256.88018885703 7.247794870322186 0.20846596422782185
0.44446393250527955 13.315303211019245 139962.56119512714 7.62266063132491 0.21150381720729272
0.4618338416958477 13.260927448834012 118120.01966914766 8.013546452380304 0.21457282925983132
0.47958663762214987 13.213505312170124 99939.54388044773 8.421180388341053 0.21767503336492344
0.4977335569256595 13.172285732167387 84754.7402107159 8.84603868076892 0.22080841303203616
0.5162589150173049 13.13669116587647 72041.9975270985 9.288923480245467 0.22397537550986565
0.5351646524142254 13.106104838511023 61363.620193608804 9.75075130117861 0.22717931959385707
0.5544598841029925 13.08003242091881 52380.133766491 10.232330142285027 0.23042159367099455
0.5741270393045899 13.058044115025679 44799.35876191252 10.73418116623923 0.2336995375939305
0.5941762939380173 13.039699194294656 38054.92449121311 11.257448416565726 0.23701808220338777
0.6145953897730296 13.024665664375554 32955.914464146335 11.803114914665537 0.24037944810739367
0.6353835383813028 13.012571375381143 28342.16106609633 12.372157617024438 0.2437852645798039
0.6565376756292821 13.003125245199136 24416.577415868614 12.965333713063877 0.24723426045964517
0.678059443892166 12.996057589740051 21067.186486007144 13.583832419105162 0.25072969178131
0.6999316131576464 12.991114749289054 18206.43678355242 14.22891395533632 0.25427493411834534
0.7221516411484953 12.988029087611002 15759.881626448774 14.901765335699782 0.25787196698137904
0.7447235945306269 12.986666458052 13660.659951878613 15.603505200674634 0.2615215916777248
0.767628799300472 12.986742495778106 11859.079395445737 16.33521971074305 0.26522391813578255
0.7908586410023546 12.988107370963878 10309.868723237661 17.098606982088842 0.2689845001765423
0.8144164659130466 12.990621165024956 8975.572790548456 17.89511853616995 0.2728057634371512
0.838281541408594 12.994079117498892 7823.587941304728 18.726231782232922 0.27668980876283356
0.8624478519681111 12.998327653556428 6829.345809573035 19.593063481192633 0.28063509813359516
0.8869061646548809 13.003261559887239 5968.794847132041 20.497803222453175 0.2846489679688301
0.911649930819636 13.008754602026968 5223.359841585253 21.44224043858966 0.2887344222903922
0.9366540082305056 13.014632855482152 4576.008788196783 22.428001729024523 0.29289254638130224
0.9619161075545019 13.020823615446295 4013.9682895025267 23.456821877305387 0.2971248286602873
0.9874248293610374 13.027212244911407 3505.6027810775013 24.531255490746844 0.30143848571076937
1.0131522747236448 13.033677541215374 3099.4239838655244 25.653412894352684 0.305836417890639
1.0390975424904083 13.040123726500473 2728.26292746588 26.824911263079795 0.3103173592617154
1.0652378344599507 13.046455551158962 2404.217053406857 28.04900355353789 0.314891263261228
1.0915487643384312 13.052577223498936 2121.1230037795463 29.32794135623327 0.3195599514982196
1.1180312887762927 13.058419772379615 1873.3992711678002 30.664075995565824 0.3243253630348396
1.1446469317400934 13.063881906644257 1656.3065726158675 32.06109602149933 0.3291975621942311
1.1713948610552318 13.068903947120132 1465.9842813713797 33.520854737803454 0.3341736869998979
1.1982414657437335 13.073375758088911 1298.9686953584635 35.04773541792477 0.33926635803873834
1.2251671338738548 13.077255211198215 1152.1284245230297 36.644136538157966 0.3444746958079549
1.2521487218322542 13.080432796410173 1022.9619988825203 38.31459119348381 0.34981002678003176
1.2791774792600186 13.082883615645889 909.2611875105713 40.06184281330367 0.35527197425648305
1.3062081437275401 13.084492591777877 809.0457613562219 41.89111293712424 0.36087364538905997
1.3332310646754728 13.085224732813256 720.6030056443428 43.80553877390213 0.366615121475754
1.3602289432499262 13.08505067761657 642.5152026591527 45.81042640978003 0.3725076314866804
1.3871495080520213 13.083822769224751 573.4807973974608 47.9107821391133 0.37855936586627753
1.413987467982403 13.0815415386603 512.3749333164906 50.11097321630671 0.38477404579056573
1.4407170216401417 13.078155364761527 458.2130549574491 52.41692865341783 0.39116237677975035
1.4672914843516485 13.073567643089454 410.2699171583307 54.83468584070513 0.39773414479676267
1.4936972431203017 13.067748759714958 367.63750435600997 57.37041147804369 0.40449837201381017
1.5199024879901348 13.060646696207304 329.822753907501 60.03070830087621 0.4114647875013474
1.54588089473697 13.052199949144478 296.19289166804214 62.82265431261816 0.4186438853788719
1.5715928259400425 13.042364605620165 266.2806842847981 65.75384577009906 0.42604698770525906
1.5970079834041422 13.031079078397882 239.65269347049403 68.83244430257601 0.4336863126633731
1.622102300204538 13.018310775770209 215.89892815557278 72.06722859214109 0.4415750486615983
1.6468503967463572 13.00403098707499 194.7038007352205 75.4676510969523 0.4497274350501342
1.6712052981662744 12.988158772517036 175.7898081110539 79.04390035947257 0.4581588502335391
1.6951271631542977 12.97064796386524 158.87691299131785 82.80581915746835 0.4668811854520851
1.7186244906240056 12.951522242322854 143.7346091617274 86.76584531640962 0.4759149123076265
1.741623219361787 12.9306703440032 130.1994524731233 90.9363883002909 0.4852778570228725
1.7641053354868752 12.908079191642468 118.0569691327202 95.3302495097886 0.49498693846432645
1.7860357962710542 12.883709399910089 107.16647539665892 99.96230969905949 0.5050646002177406
1.8073802134567238 12.857510211790188 97.39704651248547 104.848396068731 0.5155339497008533
1.8281167397141664 12.82948868580691 88.61704521558508 110.00435942439269 0.526415127246253
1.848200773898257 12.799581346082753 80.72239396493623 115.44885103751696 0.537735534204541
1.8676017301595267 12.767757446503897 73.62407974295323 121.201599981026 0.5495228892642079
1.8862890313929708 12.733997887425309 67.22144109133744 127.28382453888122 0.5618064630666357
1.9042298940411637 12.698269321385947 61.45543229272489 133.71865190299962 0.5746182125013929
1.9213831569450746 12.660516485156085 56.25624690197965 140.53008656329425 0.5879887365188983
1.9377309503792635 12.620753823087021 51.55774820136423 147.7464054475484 0.6019587434794751
1.9532453058489334 12.578988046580756 47.318335358978985 155.39689983332977 0.6165670121422566
1.9679012184413993 12.535197411585925 43.479474725314034 163.5134118682733 0.6318552814107261
1.9816446128026515 12.489295201840765 40.00621560596499 172.13088633142596 0.6478694791068544
1.994474458772483 12.441353303187205 36.860493841103555 181.28799762539458 0.6646610803417997
2.0063255464217966 12.391250230310174 34.01081215359351 191.02635670604224 0.6822836424786539
2.0172093504432604 12.33909402422256 31.428965646596005 201.3917466896419 0.7007960705942922
2.027083296662913 12.284822472390186 29.083072817456117 212.43458583711717 0.7202631291370747
2.0359352200608116 12.228479941076166 26.954000051076843 224.2089218292881 0.740751037463644
2.04372155759105 12.170005394695082 25.017734607829905 236.7766290098063 0.7623399520879477
2.050425499709587 12.109421301560554 23.259223425857954 250.20273607978118 0.7851072513319446
2.0560374312060095 12.046768136382239 21.657766732784808 264.5616046799845 0.8091460820639095
2.0605309561769203 11.982046332423472 20.202885662625597 279.93400990738513 0.8345539850977745
2.0638917575274434 11.915292921778903 18.87637351880459 296.40938349440853 0.86143809118439
2.0661031568266175 11.846511767730485 17.66887736745714 314.08596037674704 0.889913153386421
2.0671484174134793 11.775745353030016 16.569732415934602 333.07467575387705 0.9201115276741088
