M[M_sun], R[km], Lambda[1], P_c[MeV/fm^3], rho_c[fm^-3]
0.24162668629717493 15.618656898711224 2160425.4255784233 3.5677272577965504 0.1711233750220791
0.25364092985744774 15.277372621381513 1723225.8728802558 3.784779868770474 0.17388767774769137
0.26603499530568225 14.981372186866057 1383185.2734642057 4.011317951222083 0.17666565167196663
0.2788078028215416 14.723647189122264 1094054.870782247 4.247598832402231 0.17945601357994
0.2919599248478527 14.498553460272419 906042.1879580586 4.49424707312686 0.1822653183741442
0.3054930044707341 14.301375749189502 738800.4293227927 4.751415042009235 0.18508920895412223
0.31940503646727336 14.128348221321087 605235.856794077 5.0197903015419465 0.18793442014591552
0.33369989722192817 13.976144507201543 497809.77791331214 5.299589631246745 0.19079743281651126
0.34837752477172457 13.842231448702778 411123.10926069005 5.591549992866296 0.1936847128137977
0.36343860427783037 13.72414133008143 340749.8263663823 5.895828098363644 0.19659112818163044
0.378888223106194 13.620170132253225 283394.75800998625 6.213292311154211 0.1995244501007139
0.3947163588955486 13.52863487349494 236487.82537608754 6.544207739103319 0.20248099417387294
0.4109372801478662 13.448063143004546 197947.45163157454 6.8892613221133905 0.20546421090329808
0.4275424287597125 13.377198849867872 166152.54018507607 7.249164770346641 0.20847729705964888
0.4445326442766911 13.315098074737236 139865.07133871564 7.6241881006268235 0.2115159768450955
0.4619092446583861 13.260715065840214 118039.87931627182 8.015258123207003 0.21458607041750227
0.4796704076210488 13.213282468596516 99862.65137674184 8.423089599634386 0.21768938796482085
0.4978217848937075 13.172107159770503 83810.76712005027 8.848138390021619 0.22082361582416243
0.5163549061256406 13.13651616523166 71976.70232900526 9.291247653468693 0.2239917378342525
0.5352689391009328 13.105943127159918 61310.295945189995 9.753315686747296 0.22719687673486866
0.5545720724319311 13.079909193373917 52335.31216401576 10.235151445061433 0.2304403824468916
0.5742483506120986 13.057940183734818 44355.93818077208 10.737247126199916 0.23371922200659365
0.5942997459125918 13.039590463202018 38354.44678162555 11.260805121356007 0.23703905495566138
0.6147309984757718 13.024558324551185 32923.77841496772 11.806782181041921 0.24040175120566093
0.6355273199269469 13.012474325662492 28312.8797256855 12.376156497504892 0.24380894224785746
0.6566937617478257 13.003057679685881 24387.717968594385 12.969645845019535 0.2472589068376308
0.6782207807831183 12.99600305902093 21042.87992117515 13.58851900733539 0.2507557854489638
0.7001020582356047 12.991085242812586 18185.69268808358 14.234000111650191 0.25430252676457804
0.722330843157525 12.988005282803202 15741.981043516984 14.90727778468227 0.2579011133770828
0.7449124046148355 12.98666302588152 13644.618820274172 15.609418622158312 0.26155181716582193
0.7678267223090501 12.986759797461758 11844.9118509283 16.341614144721305 0.2652557927853847
0.7910644471378382 12.988124255431389 10297.033605760942 17.105514498791578 0.2690180890911863
0.814633851472033 12.990640807092479 8963.867954671174 17.902573331123907 0.2728411359061643
0.8385077594431117 12.994114395321743 7813.554540298273 18.734200799162878 0.27672642227234656
0.862683547703177 12.998366628702271 6820.404605330884 19.60165028068244 0.2806736216874948
0.8871522224498757 13.003325749959282 5960.91268426286 20.507049103291113 0.2846894848522584
0.9119061015199613 13.008803922272207 5215.839552682103 21.452189526374458 0.28877702140316036
0.9369212629122695 13.014693108652997 4569.45657322735 22.438612593865102 0.29293661787293973
0.9621916715083383 13.020895287171836 4008.140845776451 23.468227600334135 0.29717115069047756
0.9877101854024658 13.027295107540459 3500.571397372732 24.54350971834406 0.30148716593965813
1.0134465910231878 13.033742154472627 3094.8516509303495 25.666468211245526 0.30588680087284054
1.0394035930866983 13.040199218805443 2724.1956775771305 26.83892717458003 0.31037030885152445
1.0655504127953348 13.04653334018629 2400.5672941220546 28.06404561828017 0.3149469103995008
1.0918730936478793 13.052651959584221 2117.9478060854185 29.343956286967497 0.3196175954156452
1.118365086882605 13.058491542474592 1870.5150670958758 30.681254869335522 0.32438596262522545
1.144990583634422 13.06394938982181 1653.7948914997917 32.079503304630336 0.3292611733651261
1.1717463498906706 13.068963405651072 1463.663208336569 33.54046377269673 0.33423977146926437
1.1985963020471615 13.073424150469934 1296.8377698309052 35.06875918831299 0.33933587794785514
1.2255369486715935 13.0772974390449 1150.2657492691258 36.66651406806017 0.34454688225545227
1.252526456559447 13.080471778505585 1021.2928418267961 38.33857976347029 0.34988601731093155
1.2795636042330951 13.082917171158302 907.698822483947 40.087379926264624 0.355350977552586
1.3066015882854054 13.084510640278884 807.712700039448 41.918304076727054 0.36095584832351885
1.3336330828116814 13.085235495473965 719.3540588929078 43.83468856674119 0.3667017697352344
1.360637690081579 13.085037610634581 641.3598094455481 45.84147381615494 0.3725979131269473
1.3875640837357208 13.08379112060482 572.4754333807815 47.94385967147639 0.3786535152010427
1.4144160193531556 13.08151432713699 511.4220815212729 50.14644329022475 0.384873436846567
1.4411432816734986 13.078093502338984 457.4146111407847 52.45473499988844 0.3912661788423447
1.4677273501808257 13.073491887167465 409.50926491217496 54.874995729790555 0.39784265176860517
1.4941336801381053 13.067639679719345 366.97470882213327 57.41340572239806 0.4046119005066515
1.5203430197044712 13.06051248576395 329.2336528765029 60.0765824676033 0.41158367869977824
1.5463238281915452 13.052043690567741 295.65851363050075 62.871620055982845 0.41876850708868424
1.5720381608780243 13.042181112602094 265.7893050799979 65.80613229854688 0.4261777366062293
1.5974600208233911 13.030874739750592 239.2117058381547 68.88829999514832 0.4338236167885906
1.6225473229389855 13.018076171642699 215.50572397255468 72.1269227812254 0.4417193701280952
1.6472991249143663 13.003757400625028 194.34089407412696 75.53147603641034 0.4498792730685613
1.6716485207045433 12.987850057043948 175.45125796558756 79.1120993020076 0.45831843496087776
1.6955871007268142 12.97032513905926 158.5620233945133 82.87853667343207 0.46704829009198195
1.7190505646496872 12.95110129640544 143.4664021535739 86.84371422748377 0.47609124707897627
1.742056882393482 12.930230903651772 129.9535559568959 91.01944103200502 0.4854626187803248
1.7645429348801476 12.907614133088359 117.82351428716126 95.41928535944555 0.49518230299921295
1.7864698498592648 12.883198839847214 106.95726954409189 100.05740616871681 0.5052698142736175
1.8078109483427829 12.856972153765543 97.20756242682492 104.9500458348798 0.5157498031923365
1.8285363328359323 12.82889397842741 88.44719885477791 110.1135294618166 0.5266440741107092
1.8486118619979761 12.798938487483094 80.5660586603891 115.56571246188649 0.5379769295815111
1.8680039631317786 12.767064908888234 73.47518935851014 121.3267948738154 0.5497777401871172
1.8866813524880395 12.73325337356024 67.09429096076167 127.4180551012417 0.5620758627342488
1.9046115969636974 12.697471521474293 61.336953507165816 133.86221494253098 0.574901683617132
1.9217463982761924 12.65964719553725 56.150070545765324 140.6842557599954 0.5882891167416546
1.9380921038636418 12.619874624467393 51.45805618520865 147.91212434489526 0.6022775120235511
1.9535884715082903 12.578029272934458 47.221951414000955 155.57463623328536 0.616903840411837
1.9682203030463177 12.534155980662758 43.39339515047511 163.70479966853318 0.6322136424408122
1.9819503613539156 12.488205736633645 39.92868051230971 172.336564729915 0.6482492417812536
1.994748859764687 12.440166261739492 36.79145667785613 181.50926947443233 0.6650641300829299
2.0065942400180803 12.390040200234122 33.948216975087355 191.26465734796295 0.6827120384006212
2.0174624925675007 12.337825730773316 31.368180658173866 201.64865937469628 0.7012520652679171
2.0273142900434435 12.28348751848291 29.02763233467453 212.71154819521212 0.7207481719600816
2.0361394856621784 12.227069785594436 26.902722343261217 224.50781871016838 0.741267687837971
2.0439022458613674 12.168524766885355 24.97208072987557 237.09937840203327 0.7628904669494327
2.0505801277860303 12.10786893358922 23.21590413683944 250.55211134929675 0.7856962190639457
2.0561651290164757 12.045149318528532 21.618929477897986 264.9396334880841 0.8097751439635981
2.0606380177677717 11.98037210857148 20.166009721045516 280.34356352786705 0.8352269457020715
2.0639708192186417 11.913540714049129 18.843755239087503 296.8528984013815 0.8621566648031816
2.066145702818771 11.844678332493727 17.638616305510272 314.5677296622202 0.890684371255738
2.0671612975909435 11.773841907357275 16.541694717147376 333.5978732454669 0.9209378763193542
