M[M_sun], R[km], Lambda[1], P_c[MeV/fm^3], rho_c[fm^-3]
0.24162668629717493 15.618656898711224 2160425.4255784233 3.5677272577965504 0.1711233750220791
0.2536447557930159 15.277248286990094 1723101.861459015 3.784834490022656 0.17388835857524965
0.26604080234366795 14.981263054635894 1382969.2305449343 4.011432775587758 0.1766670392566611
0.27881692729531343 14.723484189448362 1116359.9931689189 4.247777744148721 0.17945808868658505
0.291972583448891 14.498350794846386 905829.9022723343 4.49449476660003 0.1822680764984546
0.3055090542474275 14.301187381435017 738583.266287815 4.751739927041601 0.1850927183325242
0.31942718861074176 14.128055459668893 605073.0929124205 5.020194770854167 0.18793861667114062
0.3337269988683583 13.975890137324855 497652.50393103494 5.300084332792575 0.19080241364021946
0.34840791798214127 13.841969280063637 410970.5898543303 5.592136161313759 0.1936903841547763
0.36347349250063954 13.723886151182406 340629.6712354988 5.896518902052838 0.196597616356069
0.3789260985266214 13.619946113749704 283268.51195007795 6.214096109055545 0.19953177976973838
0.3947592232542573 13.528400946924164 236374.48033744982 6.5451236961919825 0.20248902588014311
0.41098594758526075 13.447814156535168 197834.59177843767 6.890307119863987 0.20547311735579415
0.4275950397561655 13.377032935812363 166062.54423837535 7.250350221485931 0.20848710399311912
0.44459103066112743 13.31490435055363 139786.88485149576 7.625509928252767 0.2115264994429304
0.46197448710317385 13.260524203271352 117966.73337715465 8.016739381770211 0.2145975291500348
0.4797409880628419 13.213108170109404 99790.97570325874 8.42474183865212 0.21770181049244644
0.4978984484159901 13.17197734561165 84627.03649584348 8.849955517074374 0.22083677260042303
0.5164390262121614 13.136363276944557 71926.7239003413 9.293259073494404 0.2240058983566309
0.5353588097089877 13.105811871253586 61264.03396449756 9.755535036346615 0.2272120715769958
0.5546666600010951 13.0797996000348 52296.215876882256 10.23759318939215 0.23045664351160663
0.5743513019478085 13.057813222067441 44721.12423952861 10.739900655711077 0.23373625848801585
0.5944097714946697 13.039501869812158 38321.804242505445 11.263710338612617 0.23705720680565437
0.6148484951348822 13.024500220053945 32894.32905044959 11.80995624692964 0.24042105482207027
0.6356540539249127 13.01243115989308 28286.668675246692 12.379617643458902 0.24382943594987846
0.6568262225419149 13.003023208680522 24365.973541852 12.973378177025385 0.24728023931686147
0.6783593464348481 12.995985064752778 21022.860283651276 13.592575521495469 0.25077837103300193
0.7002498730290785 12.991055889741054 18168.44076382126 14.238402556062134 0.25432641024037417
0.7224856441730564 12.98800403455221 15725.699648876236 14.91204930470533 0.2579263422020828
0.7450750186593321 12.986639149596874 13630.829391037318 15.614537297833877 0.2615779804405236
0.7679970041789087 12.986764894444766 11833.564773407834 16.34714928812689 0.26528338408699964
0.7912444620365311 12.988134693846122 10286.076920351954 17.11149388669677 0.26904716482977864
0.8148216994832731 12.990671298437846 8954.23314042324 17.909026581740324 0.2728717561189097
0.8387037253458317 12.99413781416297 7805.470506593459 18.74109929096803 0.27675811727281574
0.8628870316100683 12.998407205798001 6812.412521610031 19.60908370305497 0.28070697076566625
0.8873706394625757 13.003371643042836 5953.845854608346 20.51505322914889 0.28472456017282655
0.9121276522245201 13.008853755982454 5209.769224392286 21.460802578112798 0.2888138999964762
0.9371501901864898 13.014752283126217 4564.041787999996 22.44779869468225 0.2929747717059615
0.9624349971148005 13.020963298424753 4003.4559100071165 23.478102018300596 0.2972112536358148
0.9879556988432545 13.027353512156001 3515.437999284156 24.554118926016233 0.30152931128531235
1.0137000385267696 13.033803727878258 3091.0171441643656 25.677771144540444 0.30593042106924767
1.0396658258229408 13.040267160243742 2720.579049910625 26.85106200006869 0.3104161520371081
1.065819858579849 13.046585071065229 2397.5366763834336 28.077069131758414 0.31499509003891446
1.0921541544361022 13.052718376417424 2115.053761972271 29.357822334315323 0.31966750467230093
1.1186522972550157 13.058551610079467 1867.744445981516 30.696128978996438 0.32443843201087263
1.1452880198359106 13.064006043431554 1643.7481735020951 32.09533693463002 0.3293155761582552
1.1720516220969621 13.06901711344426 1461.620533735717 33.557442628296755 0.3342969919632297
1.1989083316213431 13.073473937995221 1294.995752669973 35.08696339537163 0.3393960743254264
1.2258567602358976 13.077341055793868 1148.6490145059925 36.685890804256 0.3446093886069657
1.2528542742503745 13.080494828363744 1019.8436699385406 38.3593090453722 0.3499515673909887
1.279897759383848 13.082944364368752 906.3905493577874 40.10949340152604 0.35541938925741007
1.3069421851037826 13.084526422488082 806.5163597315661 41.941850246426334 0.36102703196174885
1.3339807704069833 13.085238398073761 718.3497745023915 43.85993138797947 0.3667768044545804
1.3609903892473005 13.085033901278296 640.3938190729165 45.868360402578226 0.37267609566799953
1.3879229295819822 13.08376859862815 571.6090678253368 47.972504848569635 0.37873504862191437
1.4147752531193252 13.081456971443545 510.6475032689536 50.177161117971615 0.3849595115850883
1.4415046710323363 13.078023649890225 456.7340781811143 52.48747672037197 0.39135607533952993
1.468100382240254 13.073417160025699 408.870122218329 54.90990629982357 0.39793662474460495
1.49451075360558 13.067547993966773 366.40750857308717 57.4506418395079 0.4047102243711182
1.5207226160385257 13.060398592636071 328.7301657072139 60.11631362111203 0.41168664916862174
1.5467071422533278 13.051907114960937 295.1822590725884 62.914029682957775 0.41887644296105025
1.5724233119477893 13.04202238404632 265.37078653779173 65.8514190562959 0.42629098171888
1.597836820139496 13.030684104755387 238.8247128430149 68.93667916335957 0.43394254216690187
1.622934863249342 13.017861637550677 215.15822117571133 72.17862780845826 0.44184437635516643
1.647687025483818 13.003519350567712 194.0234962424131 75.58676024746917 0.4500107928965276
1.6720363672845027 12.98757872065943 175.1662935155687 79.17094916139511 0.4584557310095427
1.6959728287156692 12.97002093263649 158.30339836226355 82.94152625971796 0.46719303997781153
1.7194532721284546 12.95080437328888 143.22615533707938 86.91116774049173 0.47624399609817947
1.7424293511378182 12.929826656560191 129.73827816327895 91.09138655077929 0.48562267107740403
1.7649177147846902 12.907201239194316 117.63523674568118 95.49641584072344 0.4953515444975362
1.786843323956244 12.882761754548138 106.78530908322635 100.13978876848986 0.5054475923498599
1.8081805325912257 12.85649628439478 97.04916664333571 105.03810767948679 0.5159368027039443
1.828894076439701 12.828365044351568 88.2992006967084 110.20792132362659 0.5268417240040083
1.8489673798485853 12.798378913461493 80.43346314004074 115.66695796735391 0.5381860678586688
1.8683428410752336 12.76643369677639 73.35663531022362 121.43526309415401 0.5499985417345583
1.8870173007480444 12.732608957011344 66.97925173981083 127.53427681928535 0.5623089965486225
1.9049412437340032 12.696781799974888 61.232853022612225 133.98658518321258 0.5751472290888544
1.9220803179225348 12.658957246462652 56.0529843818077 140.81783786476166 0.5885493854804463
1.9383924359143125 12.619059681347325 51.37128233392287 148.055718115761 0.6025537217860469
1.953886280525906 12.577208860865413 47.14549137756239 155.7286472669978 0.6171957067374438
1.9684998351367737 12.533267441924634 43.32459130560701 163.87037467397042 0.6325232619216491
1.9822129774120265 12.487259252619602 39.86403578984801 172.51479879655903 0.6485783314976021
1.9949977022234298 12.439171184762538 36.730082243191774 181.70102219049252 0.6654134103140354
2.0068352965013885 12.389001356278815 33.89212749227681 191.47117368183416 0.6830832952908124
2.0176761427582477 12.33671951106916 31.315685973292116 201.8713126559293 0.7016472528791705
2.027509903528181 12.282327327812558 28.98052552773826 212.95129367543458 0.7211675923342143
2.036316174815252 12.225847253061353 26.85956586263873 224.76687494934527 0.7417154727146427
2.0440563206122793 12.167245024486888 24.933337727358275 237.37900722912786 0.7633672597867706
2.0507125553165606 12.106526523026291 23.178627137407364 250.8547178191135 0.7862059970014248
2.056282323676549 12.043768508231445 21.58667808501542 265.26730987309105 0.8103204165058463
2.06072548070689 11.978908937647365 20.13585767056527 280.6981140781909 0.8358087733672822
2.0640262371517797 11.9120048558173 18.8153635458044 297.23736766081635 0.8627795738930967
2.066183189905235 11.843090951740091 17.612953191635558 314.9853779016893 0.8913529439420415
2.067170477013864 11.772187801100841 16.518349197493578 334.05145448369547 0.9216542716533226
