M[M_sun], R[km], Lambda[1], P_c[MeV/fm^3], rho_c[fm^-3]
0.24162668629717493 15.618656898711224 2160425.4255784233 3.5677272577965504 0.1711233750220791
0.25363681304790947 15.27748450628852 1723406.3429304003 3.7847014039418805 0.17388669972145565
0.2660260369202868 14.981594869894773 1383304.400200009 4.011153007192768 0.17666365842071566
0.2787934250126101 14.723943087518363 1116823.1758738558 4.247341833697074 0.17945303278224897
0.29194044373687655 14.498868658875358 906279.3384240738 4.493891280909067 0.18226135654522402
0.3054676638873137 14.301738079807638 739055.6652168859 4.750948381292042 0.18508416812774117
0.31937519866451547 14.128682715100727 605437.3012388428 5.019209340060111 0.18792839244631093
0.33366543293763995 13.976465490172178 498080.3665554871 5.298879080747288 0.19079027875199822
0.34833646797529527 13.842515290295461 411317.28560786037 5.590708084705158 0.19367656712073775
0.36338888825317234 13.724526448602761 340957.2909908448 5.894835926105597 0.19658180948981682
0.3788329224315085 13.620513102322667 283585.11419586174 6.212137876057006 0.19951392304265775
0.39465294036615584 13.528981307445163 236663.133530587 6.542892245163079 0.2024694590691623
0.41086739519878185 13.44838501034728 198097.11461376183 6.887759384679422 0.20545141977384682
0.4274640364364304 13.377522623225433 164274.64701729242 7.247462305047156 0.2084632130005307
0.44444679542322113 13.315389012122013 139985.8196052655 7.622289817866674 0.2115008652937329
0.4618148528215214 13.26100446309509 118142.05602861918 8.013130926841834 0.21456961483385328
0.4795676552991777 13.213538380101248 99950.35176214232 8.420716913710125 0.2176715486836245
0.4977126594761017 13.172322370850484 84774.51155515976 8.845528967074227 0.22080472248710267
0.5162357880816991 13.136724751935944 72057.25905833341 9.28835928398017 0.22397140353298445
0.5351392244807001 13.10613514225276 61375.32544925324 9.750128800787826 0.2271750576266731
0.5544319857932064 13.080092460412686 52392.21087150756 10.231645284170952 0.2304170327831188
0.5740977130602062 13.058059793113772 44808.56135520615 10.733436926669624 0.23369475934535708
0.5941436747351619 13.039758625649133 38398.467446033654 11.256633610825316 0.23701299128237674
0.6145628785825682 13.024670703591534 32687.124048541955 11.802224734222975 0.24037403432506962
0.6353490925128139 13.01256562113998 28349.538490769268 12.371186953567104 0.2437795172094469
0.6565010037113956 13.003108575441132 24420.62816871552 12.964287023704063 0.24722827801247965
0.6780191788678622 12.996066344339301 21072.824164692654 13.582694851403085 0.2507233581091175
0.6998910100672624 12.991128041827332 18211.454965392648 14.227679416255311 0.2542682366835792
0.7221073109119583 12.988037097125453 15764.99595355056 14.900427340981501 0.25786489249894257
0.7446791794559738 12.986662648867835 13664.753891943566 15.602069895514552 0.26151425534982203
0.767580142526092 12.986748473302772 11862.661857359384 16.333667673298557 0.26521618161838617
0.7908069585744235 12.988114862011372 10313.131134258338 17.09693043139212 0.26897634767823186
0.8143642010911609 12.990615221740116 8978.382917150226 17.8933091757334 0.2727971781512552
0.8382275321905253 12.994064490670702 7826.296481633179 18.72429763399441 0.27668092235243275
0.8623903705530662 12.998318161325667 6831.590233254964 19.590979417719243 0.2806257482551401
0.8868461244418407 13.003249568496557 5970.847362504929 20.495559224293554 0.28463913442095723
0.9115888266196619 13.008729281634855 5224.770965296071 21.439825800651192 0.2887240835099874
0.9365884005560933 13.014617985235946 4577.652633117214 22.42542650437103 0.29288185036420217
0.9618491600720165 13.020809193612914 4015.269078175054 23.45405377806223 0.29711358658677844
0.9873555506890224 13.027198079898275 3526.1550367841983 24.528281502607935 0.30142667146771196
1.0130816121762305 13.033647810713873 3100.40395782822 25.650244521973292 0.30582419053143284
1.0390246607349098 13.040104003943153 2729.2304709047166 26.821509809700114 0.3103045091833451
1.0651602659931092 13.046437829891724 2405.0846881411903 28.04535311574246 0.31487775870449075
1.091470664217419 13.052562760710282 2121.8752581519634 29.324054862571657 0.31954596250735706
1.1179497606858078 13.058405807157355 1874.0861674597938 30.659907092404737 0.3243106569588007
1.144563022667522 13.063870849602433 1656.901431054946 32.05662517291966 0.3291821002606397
1.1713093050592438 13.06888630311407 1466.5143060019982 33.516096208572144 0.3341576502657635
1.198152612188364 13.0733650847484 1299.4072417791167 35.042633644664846 0.3392494878576616
1.2250768141456356 13.077240870651979 1152.4849821357777 36.63870631323412 0.34445717874293136
1.252057790807337 13.080422783786041 1023.4064808919285 38.30877010887015 0.3497915868600843
1.279082703925299 13.082883026952281 909.6802100194335 40.05564602971248 0.35525280347826355
1.3061121418573494 13.084483447221405 809.3596699145153 41.88451486832123 0.3608536984274654
1.333134579617852 13.085227365859415 717.9697200495068 43.79846553161702 0.3665940961416711
1.3601303022015083 13.08505281900602 642.7851618877056 45.80289280018538 0.3724857247733427
1.3870494909789266 13.083829636587101 573.6757442795275 47.902756021629294 0.378536520945031
1.4138852106330608 13.081553459779487 512.6030860711322 50.10236669116665 0.3847499293586646
1.4406131771924546 13.078171014555958 458.41978208993964 52.40775536864596 0.3911371903766996
1.467185656216066 13.0735856463298 410.4248800082054 54.824905227762486 0.39770781714572595
1.4935927557741149 13.06777170588612 367.80174691820383 57.35997968473125 0.40447082633205256
1.5197964933149188 13.060677684748319 329.9901708044007 60.01957789758487 0.41143594104852355
1.5457736146657304 13.052238972879644 296.33025012845087 62.81077396929089 0.41861364896057485
1.571484948500055 13.042411112568617 266.39722895989 65.74115990064807 0.42601526512703847
1.5968993852641027 13.031126739679925 239.74704231596954 68.81889267310031 0.43365300012986496
1.6219916942701649 13.018370484889157 215.9898728172631 72.05274588884001 0.44154003411476694
1.6467316579790974 13.004093354627258 194.79659246062863 75.45216644912202 0.449690597439906
1.671096527586469 12.988233842471741 175.87152361012733 79.027336812398 0.4581200587132953
1.6950281336409443 12.970750323748613 158.9477004428115 82.78817758522493 0.4668406451704503
1.718516278628429 12.95161348962023 143.7993883734939 86.74695430578619 0.47587213346311846
1.7415161956224474 12.930773111442855 130.26095885041946 90.9162399830811 0.48523303443340965
1.7639990414104778 12.90819184553856 118.11327735572164 95.30865008264584 0.4949395444982575
1.7859303164017581 12.883825939227624 107.21039606641594 99.93924036373299 0.5050148175929408
1.80726892957738 12.857627302549778 97.44573266386575 104.82373736673942 0.5154815868954875
1.8280179303141242 12.82963194920208 88.6614879486066 109.97787691427587 0.5263595892268728
1.8480899068969234 12.799710433372006 80.76151284950798 115.42050322451314 0.5376769774049533
1.86750376254016 12.767929084455108 73.65769348395213 121.17123119355891 0.5494610695418439
1.886193958298302 12.734179337022153 67.25753220307938 127.25126453425825 0.5617411153971582
1.904125357320535 12.698428896901623 61.486427019666515 133.68371432686646 0.574549048836354
1.921288176695107 12.66071310751443 56.279618547020966 140.49269141277253 0.587915876545025
1.9376508659787146 12.62100290376812 51.58140387714867 147.70620960633158 0.6018814247790267
1.9531617308708336 12.57922039288702 47.338849668344565 155.35378988077687 0.6164853144668019
1.967822652228727 12.535443159716124 43.49965530230225 163.46699174869175 0.6317683627991564
1.9815693163177117 12.489556313514514 40.02568729245998 172.08100108268405 0.6477773714493927
1.9944045103779828 12.44163538350475 36.87719083197933 181.234331437327 0.6645633266361107
2.006259876271165 12.391546921623565 34.02884016938066 190.96856166470764 0.6821797436396995
2.017146264222472 12.339395095714748 31.440333851038158 201.3294390427343 0.7006854806671737
2.027027957318977 12.28514840086981 29.095396243482302 212.36734177412012 0.720145249922752
2.0358868479486247 12.228822627202948 26.965464952186394 224.13643522006137 0.7406257426339341
2.0436785876946395 12.170362920057057 25.02841055006516 236.69822468962892 0.7622060078295159
2.0503891890722223 12.10979665667046 23.269890740005017 250.11801185687614 0.784964425443097
2.0560128727311926 12.047183598736977 21.668210709391975 264.4699341786412 0.8089935370237304
2.060505837599417 11.982457008975398 20.21145340584145 279.83469731566294 0.8343907989888077
2.063874279117661 11.91571897554044 18.88414749769561 296.30183834052315 0.861263848765035
2.0660930526588417 11.846956882148044 17.676359328080792 313.9691424098203 0.889726150797697
2.0671461472882164 11.776208763935122 16.576621055784063 332.9478158801025 0.9199111626369771
