M[M_sun], R[km], Lambda[1], P_c[MeV/fm^3], rho_c[fm^-3]
0.24162668629717493 15.618656898711224 2160425.4255784233 3.5677272577965504 0.1711233750220791
0.25364417722374105 15.277288373245698 1723214.2903171747 3.7848230742456446 0.17388821628309636
0.266040614643337 14.981263273034433 1383008.208619244 4.011408777236971 0.1766667492507547
0.27881578850501876 14.723485815750282 1116365.647574388 4.247740351210273 0.179457654984849
0.29197029608872854 14.498394640511632 905824.8883282691 4.494442997738646 0.18226750004016817
0.3055057421548082 14.301224618632713 738663.7090919322 4.751672024331034 0.1850919848536558
0.31942185235681775 14.128135300026285 605113.4675287284 5.0201102339852754 0.18793773956849763
0.33372066196284805 13.975925908654823 497674.9539159208 5.299980935986896 0.19080137260595262
0.34840178047341613 13.842021070137 411002.8389603583 5.592013646291451 0.19368919878823276
0.3634646566285912 13.723985528472628 340652.9841134154 5.896374516163457 0.19659626025324062
0.37891754137965744 13.62000020104174 283311.23270043463 6.213928104852684 0.19953024777369852
0.39475113269041523 13.528434652585045 236410.38952359156 6.544932247983992 0.20248734713799288
0.410975892752565 13.447883458490603 197864.7524186683 6.890088531523526 0.20547125576575975
0.4275838541300846 13.377046893295022 166079.02993977148 7.250102441604256 0.20848505417365856
0.44457891974744823 13.314925282258855 139798.1778857279 7.625233641554276 0.21152430002315864
0.46196071824772816 13.260562363516858 117978.37897403401 8.016429768854762 0.2145951340438225
0.47972533739201734 13.213162021833291 99807.47240648765 8.424396484964893 0.21769921391551408
0.49788275973053225 13.171980335012266 84639.70805292421 8.849575695894465 0.22083402253279538
0.5164209888396826 13.136410686476713 71936.61354109217 9.292838637739482 0.22400293846270514
0.5353391706782219 13.105850486219763 61275.27200653715 9.755071135066677 0.2272088954632761
0.5546461579225042 13.079808382977301 52296.98567632231 10.237082798388691 0.23045324450662777
0.5743289757518215 13.05785378929308 44729.10438636721 10.73934599258493 0.23373269737893287
0.5943872001044204 13.039515410480764 38327.50388090155 11.26310306147373 0.23705341252710113
0.6148234322853192 13.024511357148878 32900.55554211147 11.809292767908294 0.2404170197626302
0.6356283868883312 13.012430009816521 28291.615233782886 12.37889415083169 0.24382515209634742
0.6567985371627537 13.003023549737703 24369.882417147906 12.972597993209112 0.24727578010609708
0.6783304207588391 12.995981559264703 21027.711034413176 13.591727566916587 0.25077364984908734
0.7002190250229736 12.991064502555226 18172.077126116146 14.237482283652035 0.2543214177176355
0.7224528283449955 12.988000181532296 15729.678961284406 14.911051875217963 0.2579210684163992
0.7450412077963818 12.986652171800936 13633.875881113094 15.6134672936116 0.2615725112887012
0.7679620504223029 12.986747213303444 11835.726328491637 16.34599221798275 0.26527761638253433
0.7912057537326613 12.988140823370617 10288.480428312132 17.110243942915428 0.26904108677643646
0.8147817634579516 12.990668417705542 8956.229835200007 17.907677571536304 0.2728653551619505
0.838663666998458 12.994126605910884 7807.361291478236 18.739657197969937 0.27675149160164847
0.862845192173846 12.998403239800933 6814.398776005013 19.60752977505353 0.28069999927073486
0.8873252526424827 13.003364941888544 5955.297693019739 20.513379986315076 0.2847172277632884
0.9120813228245249 13.008843226912944 5211.039801696288 21.459002028382592 0.28880619056394724
0.9371012481621219 13.014733302272923 4565.121306703665 22.44587833886345 0.292966795641175
0.9623852196636422 13.020945177695559 4004.396167984282 23.476037755267285 0.29720287005028423
0.9879061659522662 13.027335759119145 3516.473627461278 24.551901038410445 0.3015205006707352
1.0136475713589599 13.033796419955367 3091.8922378305856 25.67540821799999 0.3059213020806541
1.0396116434284883 13.04024681879457 2721.31677401065 26.84852514481361 0.31040656825476476
1.0657633282892556 13.046574741768293 2398.251234349736 28.074346471550655 0.3149850177349026
1.0920949371365076 13.052702201892117 2115.7190523751383 29.354923519365418 0.31965707071836275
1.1185931092859493 13.058542151140362 1868.5226978598696 30.69301939726428 0.3244274627598166
1.1452243640816118 13.063993200707877 1652.0679526155152 32.09202673583949 0.3293042026412524
1.171987307569285 13.069005537047811 1461.9958417763614 33.553892980626316 0.33428502928459636
1.1988432809280631 13.073462857903252 1295.4680322177446 35.08315754342059 0.33938348940479307
1.2257885180859989 13.077336983524916 1148.8856700344327 36.68183979313372 0.3445963206721683
1.2527847287169072 13.080492997824816 1020.1547211932822 38.354996433503146 0.34993798738964826
1.2798266517427501 13.082938805226282 906.5975782147975 40.104870166787705 0.3554050865136526
1.306871518071869 13.084522316690832 806.7389440414603 41.93692744832402 0.3610121495972849
1.333908688643011 13.08523794471885 718.5674997656075 43.85465382828683 0.366761116817821
1.3609176855696512 13.085031329952534 640.6109483710801 45.86273914047105 0.3726597498013826
1.387847594699557 13.083773509344972 571.7939580784424 47.96651587162592 0.37871800206024875
1.4147048259922808 13.081481815789138 510.8033059786271 50.17073874831018 0.3849415153975372
1.4414282034729555 13.078030996556626 456.86828334802817 52.48063115424685 0.39133727997976236
1.4680224546951026 13.073432017386152 409.00833693916434 54.90260722272479 0.3979169769417654
1.4944313997165262 13.067567383074742 366.51776293654933 57.442856481257365 0.4046896667359815
1.5206435222413242 13.060423015259715 328.82703008495713 60.108006535985815 0.41166511985535925
1.5466269673402204 13.051935598692136 295.2819636686453 62.90516250786684 0.4188538752954722
1.5723436572459986 13.042054953953713 265.4561122209783 65.84195024458171 0.4262673037895572
1.5977672356263637 13.030728066167807 238.91107280436083 68.92656369146395 0.43391767637514767
1.6228534914412442 13.017905803030079 215.22706291674325 72.16781685238993 0.44181823891938
1.6476063531938074 13.003568685534479 194.0907533980164 75.57520082560735 0.4499832933058572
1.6719555929786996 12.987632068455504 175.22373283474195 79.15864410650184 0.45842702345725567
1.6958921791283326 12.970084560542892 158.3545439255881 82.92835550289668 0.4671627736169957
1.7193724877391463 12.950874351437333 143.27227963085377 86.89706347439501 0.4762120568749013
1.7423540313596528 12.929933117112332 129.7728154837509 91.07634290490425 0.4855892045026991
1.7648376425551786 12.90728890080452 117.67554876898524 95.48028787679371 0.495316156143475
1.7867643854788804 12.882853083137952 106.8164103039725 100.12256244288841 0.5054104186865549
1.808103368986369 12.856596466588163 97.08255874806424 105.01969365505198 0.5158977004844597
1.8288132961684742 12.828462077408963 88.32707339420647 110.1882221545551 0.5268005382816117
1.8488935023043178 12.79849749735361 80.45950223737722 115.64578678090874 0.5381423354930879
1.8682705490783829 12.766561718246493 73.38565916276977 121.41258136740679 0.5499523700508265
1.8869494344244955 12.732740180507536 67.0079249638967 127.510035285433 0.5622604662299979
1.9048733951973398 12.696925876074827 61.2541656820497 133.96057770460223 0.5750958822508272
1.922014559146242 12.659110979499308 56.072850691625554 140.78990376752293 0.5884949592362251
1.9383280572351853 12.619224030750473 51.38997282178098 148.02569009619953 0.6024959613964332
1.9538246532353831 12.577382243452107 47.159843896899005 155.69644048831987 0.6171346716679051
1.968442128364062 12.533452467982714 43.33801130469056 163.8357939406225 0.6324586648243692
1.9821571939643654 12.48745511446222 39.87823107938412 172.47752566159124 0.6485095107292443
1.994947815607024 12.439381029522444 36.74463627043228 181.66092152135496 0.6653403663891742
2.0067862417864526 12.389221338815851 33.90247837611779 191.42798503680945 0.6830056545456815
2.017631861133703 12.33695030836668 31.32648807404851 201.8247487353029 0.7015646065132106
2.0274688105074157 12.28256669695055 28.99094878321883 212.90115465087231 0.7210798771104652
2.036279997947648 12.22610352970424 26.868745195755224 224.7126966731055 0.7416218242743604
2.0440249665654178 12.16751094488256 24.942030259394915 237.3205257270841 0.7632675434535837
2.0506849680179897 12.106806758413342 23.186909757217606 250.79151052001248 0.7860996431920967
2.0562592529707415 12.044063013865674 21.592855941970075 265.19877782238467 0.8102063751918427
2.060706089604415 11.979215848892057 20.141061788244233 280.62399675999 0.835687203714778
2.06401316548425 11.912320934462606 18.819841729351346 297.15695538191227 0.8626492915929104
2.066175143578306 11.843423489776503 17.618134287116874 314.89802485375503 0.891213108893321
2.0671684858420414 11.772535079243308 16.52299444304493 333.9565844505609 0.9215044320141513
