M[M_sun], R[km], Lambda[1], P_c[MeV/fm^3], rho_c[fm^-3]
0.24162668629717493 15.618656898711224 2160425.4255784233 3.5677272577965504 0.1711233750220791
0.25364805197961643 15.277165719145335 1722998.1301478315 3.7848994300599044 0.17388916802148585
0.2660483408120458 14.981096916563219 1382934.9392837528 4.011569295081486 0.1766686890141745
0.27882953395693777 14.723241886275405 1116226.8594553408 4.247990464416195 0.17946055592112514
0.29198922520000087 14.498085699639407 905626.0818374878 4.494789272324048 0.18227135588804275
0.30552985463533916 14.300873430258623 738335.152079481 4.752126221227272 0.18509689104698296
0.31945185981136986 14.127789457823521 604848.4542044764 5.020675701917228 0.1879436065165422
0.3337535332365721 13.975597680863904 497490.6885155891 5.3006725660526355 0.19080833617309279
0.3484428567465989 13.841674364493814 410787.7203525214 5.5928331683970605 0.19369712789004728
0.3635114815055393 13.723645619062317 340459.20636067603 5.897340346603337 0.19660533153712348
0.378971723993984 13.61966624232013 283125.7901266678 6.215051935974338 0.19954049576034724
0.3948116674235294 13.528121963656034 236244.74592007577 6.5462129160253255 0.2024985768666176
0.411043755513786 13.447556204169974 197723.2944862475 6.891550765723804 0.2054837087658121
0.42766044223038663 13.376729944630078 165942.03846766666 7.251759968697506 0.2084987664705132
0.44466269181930956 13.314628885149835 139683.60687987207 7.62708188312917 0.2115390132145102
0.4620501840515507 13.260287843133652 117873.0657726014 8.018500970588804 0.21461115646373
0.47982489914562043 13.212912586957485 99714.3372471694 8.426706804137428 0.21771658428592458
0.4979912724591797 13.171779450284552 84562.44273056414 8.852116616319845 0.22085241988232693
0.5165382538733979 13.13619292812679 71867.66124996603 9.295651289862825 0.2240227397090019
0.5354653751037463 13.105647910037916 61217.692671043005 9.758174597034625 0.2272301434066668
0.5547809221363547 13.079658177279267 52242.1999478566 10.240470079151466 0.23047563372018182
0.5744720096680067 13.057716528240839 44680.322712493624 10.743056714875387 0.2337565213654755
0.5945402889261102 13.039389170102325 38280.47942849681 11.267165815381425 0.2370787966870372
0.6149873910513388 13.02439622391187 32862.46342171619 11.81373156406126 0.24044401504920807
0.6358017352104164 13.012360121333662 28256.314854235836 12.383734498238466 0.24385381215251112
0.6569776840082617 13.002962927671952 24339.624749041126 13.05728674928745 0.24085040304915553
0.6657460174816697 12.991971798141675 22796.86451849535 13.823651942446297 1.4480529670073778
