M[M_sun], R[km], Lambda[1], P_c[MeV/fm^3], rho_c[fm^-3]
0.24162668629717493 15.618656898711224 2160425.4255784233 3.5677272577965504 0.1711233750220791
0.2536449579632505 15.277270654971574 1723283.931019817 3.784837783961838 0.17388839963261252
0.26604132314178963 14.981258790438318 1382893.7678008946 4.0114397001559015 0.17666712293598053
0.27881754936894376 14.723482860018402 1116354.1729937387 4.247788533666815 0.17945821382873547
0.29197356902948324 14.498341165919078 905842.73214848 4.494509704247059 0.1822682428326211
0.3055102955261223 14.30116508770847 738608.3668701188 4.751759520082007 0.18509292997475443
0.3194280937448239 14.128054920021457 605044.2426670925 5.020219163671426 0.18793886975603444
0.3337252585394475 13.975906170003636 497637.612948783 5.30011416765504 0.1908027140277795
0.3484097019763614 13.84195383329985 410959.56736413616 5.592171512769339 0.1936907261898339
0.3634735706819338 13.723907283999381 340629.7931795651 5.896560564406221 0.19659800765770868
0.37892740833973665 13.619955548032548 283255.9753282492 6.214144586562026 0.1995322218262268
0.3947622128938111 13.528379868450076 236367.881771306 6.54517893857689 0.20248951028122994
0.4109889235542782 13.44782126773765 197837.05704729378 6.890370193688639 0.2054736545189528
0.4275986311026361 13.376992324074859 166051.92326905977 7.250421718724419 0.20848769547144996
0.444595257008401 13.314885194891339 139778.47868738257 7.625589651347026 0.21152713409002247
0.46197829983318034 13.260513082801163 117956.24144342134 8.016828721425911 0.21459822026449965
0.47974416813691684 13.213108907306077 99791.10824027208 8.42484149164214 0.21770255974361905
0.4979041117302979 13.171927134797048 84626.16394017742 8.850065116006185 0.22083756614351738
0.5164440474875304 13.1363587303685 71926.1529551755 9.293380392209702 0.22400675244794996
0.5353643839912012 13.105804673467878 61262.50664258358 9.75566889755631 0.22721298806169424
0.5546732667156697 13.07978443165926 52293.17221118776 10.237740051340369 0.23045761898583494
0.5743574591562167 13.057810508086753 44718.20960115703 10.740060707432548 0.23373728606964553
0.5944160046538485 13.039498156156386 38320.40580405301 11.263885572860689 0.2370583016724074
0.6148549739815888 13.024481067478686 32893.17566256949 11.810147699082261 0.24042221917058906
0.6356613126838249 13.012416537497216 28283.934775969814 12.37982641349616 0.2438306720927604
0.6568341668520127 13.00300810794923 24363.820393217033 12.973603306230496 0.2472815260630793
0.6783677761438702 12.995967075580229 21022.045710928316 13.592820207137715 0.25077973337710274
0.7002580120634946 12.991045933533897 18166.838239132307 14.238668110336128 0.254327850885271
0.7224950186014879 12.98799926340484 15724.618941012764 14.912337124126337 0.257927864011856
0.7450847997563174 12.986646595622206 13629.914440302171 15.614846060092589 0.26157955862838006
0.7680035919172161 12.986785179040934 11832.512591489743 16.34748317504535 0.2652850484295464
0.7912550567291102 12.98814281611937 10287.16149334986 17.11185457428508 0.2690489187313815
0.8148321770329433 12.99066204562926 8953.306981791446 17.909415857138484 0.27287360320283943
0.8387165980618329 12.994144550467865 7805.223276451071 18.741515427470283 0.27676002920472875
0.8628995875235796 12.998409494688891 6811.862624067549 19.609532112185548 0.28070898249463827
0.8873827047480982 13.00336313062471 5953.387900830016 20.51553606948529 0.2847266760540462
0.912141029045269 13.008856063340891 5209.462421803568 21.461322156063474 0.28881612467879797
0.9371651510830827 13.014749587548437 4563.649401953207 22.448352845688465 0.29297707333375556
0.962448325066435 13.020967345853565 4003.0985293398458 23.47869769757227 0.2972136728663306
0.9879717250403446 13.027348378002342 3515.2934586945144 24.55475893788298 0.301531853748631
1.0137170709957712 13.033806714536189 3090.7353841004933 25.67845301135561 0.30593305252460756
1.039683220791941 13.040267762696635 2720.4395976045985 26.851794059057895 0.31041891762414775
1.0658364358554224 13.04659173096873 2397.3297748286013 28.07785481031161 0.31499799660552197
1.0921708522217135 13.052721690316751 2114.849285387193 29.358658847536315 0.3196705156062748
1.1186705815251163 13.05855303338946 1867.651988655619 30.697026315587223 0.3244415974238426
1.145303190147777 13.064010828905738 1651.4164990593708 32.09629216551878 0.3293188582375025
1.1720695289927547 13.069020806329428 1461.4517205850507 33.55846696005265 0.3343004440668601
1.1989283205012933 13.073476306547743 1294.9041958412201 35.08806166354675 0.3393997060005403
1.2258757096545256 13.077343691097054 1148.575503161486 36.68705982134303 0.3446131596751285
1.2528740342993305 13.08050472405645 1019.705771641754 38.360553556330835 0.3499554862366905
1.2799178416934147 13.08294473516759 906.3430671910616 40.11082755397539 0.3554235166793768
1.3069630266129495 13.08452380843745 806.4566394069287 41.94327084866474 0.36103132665753584
1.3340021370750703 13.085242863415328 718.2902817739247 43.86145437014894 0.3667813315452164
1.3610107127596474 13.085031482237287 640.3258109113386 45.869982573045654 0.3726808127193636
1.3879439839671177 13.083769871854937 571.5434524850585 47.97423313732339 0.37873996788961134
1.4147951255718003 13.081457779519205 510.5993453374254 50.17901447978919 0.38496470490914586
1.4415275933571663 13.078015262303197 456.68926690457823 52.48945221261792 0.3913614993010843
1.46812294966381 13.073413665793804 408.8377826013579 54.91201267136773 0.39794229471797915
1.4945332243042362 13.067542939018608 366.36913817148366 57.45288854796904 0.4047161569192831
1.5207456523918959 13.060393225775371 328.70327506017117 60.11871089632205 0.41169286214082423
1.5467322643246777 13.051897294130923 295.16260171398415 62.91658859675991 0.4188829556001194
1.5724465707162139 13.042012067545468 265.34266266454375 65.85415159938039 0.42629781477924483
1.5978610916782436 13.030672029427977 238.80422101839233 68.93959832993005 0.43394971804448684
1.6229584540011666 13.017850735630967 215.13304784048267 72.18174768961589 0.4418519192304592
1.6477103979571768 13.003504986208798 194.0052366399945 75.59009613431526 0.45001872889227956
1.6720589706136724 12.987563526610021 175.14906197828748 79.17450023617761 0.45846401562638334
1.6959962762388556 12.970002477770478 158.2917868955358 82.94532717600902 0.4672017744723783
1.7194764197059018 12.950784378317104 143.21217955136333 86.91523806851878 0.4762532133885212
1.742456348224774 12.929828085248955 129.71759742689287 91.09572798463165 0.4856323291697012
1.7649404784404445 12.907176356822413 117.61958319396506 95.50107021220938 0.49536175722784703
1.7868659550543684 12.882739695086313 106.76865083981603 100.14476013058831 0.5054583203335918
1.8082023659026638 12.85646831484085 97.03277855183295 105.04342181649547 0.5159480872850211
1.8289160683379577 12.828333634194397 88.28892583644912 110.21360636028035 0.5268536099033875
1.8489895032621875 12.798344416206595 80.42727232083791 115.67306783955597 0.5381986887462834
1.868362853479961 12.766398245837953 73.35134837698278 121.44180892018814 0.5500118666375862
1.8870376452098443 12.732570158787729 66.97214610228846 127.54127046522706 0.5623229937772617
1.9049608342405708 12.696740966571394 61.2284079906076 133.9940908517212 0.5751620476089798
1.9220990126559878 12.65891234805217 56.04676775612968 140.82589957773203 0.5885650927630272
1.9384106530061185 12.619013109287904 51.36736720996891 148.06438416181035 0.6025703913567855
1.9539046414945793 12.577156195306591 47.14277427312698 155.7379421318061 0.6172133214366847
1.9685266072655883 12.533245468812337 43.31735893587399 163.83443385429132 0.6402642874279733
1.9733922980621155 12.495271563870437 41.3347872317082 174.5667597723124 1.789418900334453
