M[M_sun], R[km], Lambda[1], P_c[MeV/fm^3], rho_c[fm^-3]
0.24162668629717493 15.618656898711224 2160425.4255784233 3.5677272577965504 0.1711233750220791
0.2536472936917792 15.277182299027023 1723059.7695719614 3.7848765715988253 0.1738888831017958
0.26604605655027813 14.981123802357839 1382769.6164370761 4.011521240748891 0.17666810830592483
0.27882500242031716 14.723337243012056 1116258.4433680207 4.247915587136148 0.17945968745751426
0.29198312573905166 14.498234758570344 905733.9738001841 4.494685605891257 0.1822702015382539
0.3055224714687961 14.300966995239243 738458.3552700779 4.751990244101912 0.18509542223451284
0.3194428278763346 14.127900106891056 604912.386647809 5.020506411020705 0.1879418500581505
0.333745353718921 13.975708034768749 497519.7483849363 5.300465502557342 0.19080625138727567
0.3484305569479184 13.841778130284764 410852.0629516051 5.592587813840521 0.19369475401721806
0.3634980234325468 13.723714230160647 340490.093732387 5.897051186544812 0.19660261568466103
0.3789568015513702 13.61973529216756 279266.11395914113 6.2147154690328765 0.19953742758697368
0.39479322366185077 13.52822309863711 236292.6396923747 6.54582949007061 0.20249521473897783
0.4110239158774577 13.447629514633185 197768.1650091751 6.891112975835319 0.20547998036341036
0.42763619792451807 13.376875296351841 165991.82418816787 7.251263704144735 0.20849466100104985
0.4446378564244667 13.314734460920876 139720.25303581633 7.626528514182341 0.2115346080418784
0.4620224793382317 13.260374149664871 117902.48257697145 8.01788084133714 0.21460635926261543
0.47979517983043524 13.212996238201317 99742.06154483161 8.426015075829385 0.21771138345606653
0.49795951729727655 13.171808750838824 84585.08564506323 8.851355838352722 0.22084691152478952
0.5165032860881642 13.136252644596135 71889.38514260312 9.29480914542744 0.2240168109596752
0.5354279117348273 13.105706802565967 61233.2543769801 9.75724537247663 0.22722378144347555
0.5547417066219791 13.079682886361132 52263.065907224496 10.239457658308641 0.23046895302174475
0.5744312052727203 13.05774212523095 44695.531032269704 10.74194564968365 0.23374938798277964
0.594494023292949 13.039428704354277 38294.79035487942 11.265949334602132 0.2370711960931144
0.614938553799573 13.024443940869212 32870.34025405688 11.812402476550155 0.240435931979607
0.6357498463036501 13.01237122014501 28266.478449820293 12.382285164011348 0.24384523053700743
0.6569271105024818 13.002985785815763 24154.721613846505 12.97625473852422 0.24729668056279924
0.6784663091930885 12.995937245821777 21008.651677201193 13.595701981940682 0.250795778327132
0.7003634069922017 12.991036997370893 18155.543878466822 14.241795685107551 0.25434481813104726
0.7226052973877759 12.987988669211985 15712.927717751329 14.915726949740598 0.2579457872976831
0.7452005488643395 12.986640518806013 13620.403926746487 15.618482562123045 0.26159814601457265
0.7681286325098193 12.986768957172313 11822.882346542116 16.351415613060528 0.26530465064676256
0.7913827714841531 12.988149756382365 10278.033280946898 17.116102692027702 0.26906957588943053
0.8149658539973517 12.990690624293514 8946.575087143721 17.914000707655763 0.2728953579907114
0.8388565720201926 12.99416389641084 7799.07719634405 18.746416672173073 0.276782547888166
0.863044117811035 12.99843324974446 6806.389849288889 19.614813498201702 0.2807326767428969
0.8875314575208857 13.003412902023841 5948.210277683711 20.52122302608401 0.2847515971796384
0.9122966811770805 13.00889736381688 5205.069246782461 21.467441854274863 0.2888423274543542
0.9373268308857783 13.014790993201082 4560.150937096036 22.45487978824118 0.293004182537242
0.9626180101693526 13.021008480544536 3999.6154383911276 23.485713819136045 0.297242167420694
0.9881464435215065 13.027392778456415 3512.262376386459 24.562297276117324 0.3015617999878189
1.0138988270252125 13.033858039931102 3087.970846611474 25.686484379935145 0.30596404712271025
1.0398699459292162 13.040315958585293 2718.093402752225 26.860416676106873 0.31045149231868807
1.0660294853354182 13.046638934910703 2395.2446002839397 28.0871090547326 0.3150322320796891
1.0923698145769019 13.052770487844665 2112.953712305798 29.368511912480475 0.31970598059026106
1.1188761532581466 13.058598366867612 1865.909293867296 30.707595878195374 0.32447888224083343
1.1455153748240992 13.064052960063242 1649.780147063043 32.107543719703266 0.3293575174694469
1.172285131263575 13.069057984783644 1460.0904631261499 33.57053253333922 0.3343411062928485
1.199149763814364 13.073512883774907 1293.6588115266622 35.10098325435231 0.33944239156067707
1.226102563120623 13.077372976592839 1147.4062042310698 36.700829823468304 0.34465757957043414
1.2531045957302855 13.080530326005695 1018.7085311042399 38.3752129000621 0.35000164710475956
1.2801546487839823 13.08295785120467 905.3808660333503 40.12654292306791 0.35547213478118345
1.307211755091299 13.08456287004167 805.5400262630791 41.96000464043401 0.3610819154452127
1.3342560638390457 13.085268614463299 717.4531852946155 43.87939427365448 0.36683465821626976
1.3612620159773519 13.08502310342536 639.6527932955026 45.88909098551164 0.37273637738713306
1.3882051371965103 13.083767782589604 570.9199681813872 47.99459170901395 0.3787979149565326
1.414806644570307 13.081333460188869 510.53786377463445 49.67070250645965 0.4244205937763268
