M[M_sun], R[km], Lambda[1], P_c[MeV/fm^3], rho_c[fm^-3]
0.24162668629717493 15.618656898711224 2160425.4255784233 3.5677272577965504 0.1711233750220791
0.2536414410796994 15.277357957540401 1723192.1461086182 3.7847949581067906 0.1738878658289892
0.2660375209888425 14.981307774532667 1383084.3761020545 4.011349671670878 0.17666603499487019
0.2788108930486889 14.723589759047261 1116514.654733017 4.2476482567577705 0.17945658682798335
0.29196310542597487 14.498544158482769 906037.2535137114 4.494315497951557 0.18226608030044777
0.30549679009639635 14.301347455363624 738716.4954260893 4.751504790212389 0.1850901784060033
0.31941146087751227 14.128255239201609 605192.8409099169 5.019902033839883 0.1879355794116313
0.3337072302254332 13.976055416708151 497736.89103094983 5.299726288732722 0.19079880873063929
0.3483866688501326 13.842094997404795 411066.618290114 5.591711916337237 0.1936862794679227
0.36344694503128805 13.724108537961623 340712.22764077 5.896018925041357 0.19659292046617075
0.3788990530332289 13.620100131212604 283357.25564213615 6.213514349715379 0.19952647482503993
0.39472838644933983 13.528558195655055 236454.37411832678 6.544460758614137 0.2024832128131702
0.4109507387735441 13.448001111086924 197919.1812181545 6.889550206280111 0.20546667116208742
0.4275570953988876 13.377144926166878 166127.22416718688 7.249492229295926 0.20848000604361577
0.44454895906344566 13.315038815243582 139844.06891510345 7.624553228927181 0.21151888350114306
0.4619271047479999 13.260664378346522 118013.55813848416 8.015667288474845 0.21458923564164495
0.47968915323825684 13.213251318710252 99837.26753223044 8.423545991599457 0.21769281939437393
0.49784295634907044 13.172094450135837 84672.03706299207 8.848640325593527 0.2208272500521636
0.5163781516875443 13.136476276815749 71962.64118363465 9.291803254081564 0.22399564929720475
0.535294194447075 13.10590079111178 61297.7547809335 9.753928718457395 0.2272010738744526
0.5545973444923624 13.079875479424516 52319.722951425574 10.235825902719274 0.23044487407178604
0.5742752875249397 13.057912944301744 44748.08126504616 10.737980079137929 0.2337239277914961
0.5943295929497215 13.039573495784584 38343.28260833815 11.261607590032302 0.2370440687944726
0.6147641313166471 13.024553272666976 32915.78914160515 11.807658904689283 0.24040708314821801
0.6355616592380224 13.012456650727271 28306.504626423884 12.377112510966453 0.2438146028745024
0.6567306975738878 13.003047940130262 24381.99452015081 12.970676758220531 0.24726479911474183
0.6782593464276319 12.99599018331527 21038.101335366522 13.589639456485099 0.2507620238096431
0.7001433547321756 12.991072513144246 18181.150256662764 14.235216102639951 0.2543091235750439
0.7223724873074929 12.988015655438556 15736.538625085044 14.908595709219336 0.25790808174090574
0.7449568640288355 12.986657975778144 13640.748219084078 15.61083242609436 0.2615590435937298
0.7678739040567191 12.986752766124797 11841.516943397384 16.343142969690643 0.2652634135944143
0.7911168477506961 12.988119140896982 10294.199212953727 17.10716601533021 0.26902611985686326
0.8146846949413625 12.99065835635523 8961.28083144355 17.90435571821847 0.27284959320548124
0.8385631310368143 12.994117286435037 7811.228802361738 18.7361061521384 0.276735176383413
0.862739791724365 12.998386248000088 6818.404735943842 19.603703367834477 0.28068283259473176
0.8872111208443499 13.003334622361377 5958.876405937362 20.509259803000894 0.2846991724811611
0.9119671494924805 13.0088225589984 5214.207194798153 21.45456839334175 0.28878720702262534
0.9369827650550684 13.014706850725057 4567.959114481453 22.441149720124415 0.29294715565100027
0.9622571721894593 13.020908374976672 4006.9928171556444 23.470954816767826 0.2971822267267497
0.9877786636882554 13.027300445783963 3499.4173282034776 24.546439857558052 0.30149880599175294
1.0135168221568198 13.033762874120946 3094.0305232273363 25.669589933107126 0.30589884819871416
1.039476855067521 13.040214064041873 2723.247588409482 26.842278632272702 0.3103829700551919
1.0656259617422652 13.046552536825576 2399.7034605122694 28.067642494631126 0.3149602168091647
1.0919499883054695 13.052674839380344 2117.1203996178533 29.347785836621394 0.31963137944304376
1.1184452388834352 13.05850648381008 1869.8257543921216 30.68536279987432 0.32440045361638836
1.1450706536373914 13.06396422084503 1653.1309981748363 32.08387621159407 0.32927619824273946
1.171830822439802 13.068977922358274 1463.1427304745923 33.5451529341469 0.3342555744268242
1.1986821378921633 13.073440271462834 1296.308448055745 35.07378672822074 0.3393525026593609
1.2256257500631738 13.077307822762535 1149.8261242950903 36.671865400467915 0.34456414482543124
1.2526172228216506 13.08048069839056 1020.9025038527554 38.34431643842589 0.3499041898395867
1.2796553569266829 13.082926461944602 907.3589433966073 40.093486993287904 0.35536987077771676
1.3066966317663056 13.084515652485944 807.33720650796 41.92480677172463 0.3609755069556505
1.3337289299213928 13.08523326342959 719.1312324638719 43.841659770810686 0.3667224917589702
1.3607342615037505 13.085037748411786 641.0784014945 45.84889892647625 0.37261950433913665
1.3876632016611479 13.083785310990885 572.2259457612947 47.95177039207709 0.3786760316655084
1.4145160860350043 13.081502849191393 511.18608394483414 50.154926333393576 0.38489720726837673
1.44123773062157 13.078062279927845 457.2012805626578 52.46377690320131 0.39129100452113347
1.4678313213682919 13.07347042541188 409.33329951558926 54.88463651551996 0.3978686030299312
1.4942361143901555 13.067613864038362 366.8149038797427 57.42368865397142 0.40463905311140236
1.5204479025031132 13.060479961144772 329.0950562244256 60.0875543397217 0.41161211429040045
1.5464298795548668 13.05200644188988 295.52747317160737 62.88333151368298 0.41879831367963327
1.572144393344662 13.042139400069214 265.66994820921076 65.81863818842537 0.42620900912337295
1.5975678917084257 13.030822697376733 239.11015631473862 68.90165975236414 0.43385645766287145
1.6226545517562811 13.018021778193212 215.4051858301082 72.14120085633925 0.4417538899493842
1.64740576884405 13.003692386554068 194.25371008187403 75.54674236662079 0.4499155913063457
1.6717553143456925 12.987774614802353 175.36444147112564 79.12835015274669 0.45835634800973024
1.695694387415564 12.970242414200861 158.49379592030604 82.89593053079687 0.4670882611255472
1.719157595157417 12.951009152689243 143.40105383672287 86.86234059254383 0.47613342663149133
1.7421631980561678 12.930127105740752 129.89020555617773 91.03930765927089 0.4855068147133487
1.7646432734328268 12.907495578649096 117.77191322937891 95.44058354658304 0.4952290359774467
1.7865721674325654 12.883078567339448 106.90290161137892 100.08015445804946 0.5053189040950908
1.8079134540463653 12.856841155960222 97.16457628717782 104.97436213921553 0.5158014389155624
1.8286270838369882 12.828727384883324 88.40106719240868 110.13964522733242 0.5266988430085572
1.8487090727973035 12.798782583843956 80.5318967343396 115.59366863735988 0.5380346773931046
1.8681004162429706 12.766899479349046 73.44047987553843 121.35674514199759 0.5498387079575874
1.8867751053536759 12.733073918626793 67.06367489833953 127.45016753929997 0.5621403121412021
1.9047024047880237 12.69728105498854 61.30645080502858 133.89655548817953 0.574969482516887
1.9218495883744386 12.659492752634499 56.119660917663246 140.72113948736225 0.5883609802687378
1.9381705186026774 12.619627316081642 51.4341506880728 147.95177202591654 0.6023537763105906
1.953673985172825 12.577820231002196 47.20276755317861 155.61715983399816 0.6169844268918602
1.9682978591715954 12.5339152381554 43.374986095638505 163.7505903424974 0.6322993824569881
1.9820228932912296 12.487944633227979 39.91084714631833 172.3857754799031 0.6483401040505146
1.9948198809125617 12.439892491466972 36.77466598794274 181.56221220243143 0.6651605659960728
2.0066592225216753 12.389750928912092 33.93274731089734 191.3216756854753 0.6828145409497992
2.0175219032251457 12.337520395031843 31.35416333454738 201.71013237642964 0.7013611737821821
2.027368044735651 12.283168752999952 29.014198776359585 212.77773953333758 0.7208639697460302
2.0361889685719747 12.226731760336444 26.891237104156016 224.5793407008559 0.7413913153015715
2.043944849273542 12.168169181161742 24.961519851831582 237.17657932423478 0.7630221016135837
2.050616101467428 12.10749717450736 23.204946572376283 250.6357161607916 0.7858371578781863
2.0561953378491875 12.044762261862958 21.609195305577803 265.03009726145024 0.8099256809383137
2.0606620201322112 11.979968279191487 20.15675197144758 280.4415711800307 0.8353879833044628
2.063987016638938 11.913118652636854 18.835829692950586 296.95903863473205 0.8623286309995349
2.0661553757758684 11.844239823435718 17.631710781301233 314.68302798117105 0.8908689411869443
2.0671630253168902 11.773382559971463 16.53499160928053 333.7230896976173 0.9211356457033062
