M[M_sun], R[km], Lambda[1], P_c[MeV/fm^3], rho_c[fm^-3]
0.24162668629717493 15.618656898711224 2160425.4255784233 3.5677272577965504 0.1711233750220791
0.25364428190959437 15.277259921258983 1723196.6641633892 3.784825146746586 0.1738882421158208
0.2660404835458175 14.981247779675416 1383174.0774354495 4.011413134059771 0.17666680190038703
0.27881575447854856 14.723492540486813 1116473.7072232268 4.247747139765572 0.17945773372186036
0.29197083251271067 14.498387992873903 905810.1954492561 4.494452396176244 0.1822676046939521
0.3055061014042949 14.301212932442752 738646.1007580633 4.751684351786267 0.1850921180136996
0.3194242206446994 14.128083390200349 605089.6832261842 5.020125581278642 0.18793789880258982
0.3337208827607674 13.975947988692644 497673.4657987032 5.299999707187496 0.1908015616007956
0.34840289463814506 13.842011669946146 410996.98102238623 5.592035888279979 0.19368941398559034
0.3634663553261091 13.723950683133072 340633.8038751963 5.896400728656598 0.19659650644652335
0.37891927851727775 13.619990501599409 283292.0589174181 6.213958605077258 0.19953052589902198
0.39475157177402326 13.528450257328572 236407.90818059235 6.544967004286583 0.20248765190381315
0.41097730659488874 13.447861294431764 195362.98862639707 6.890128214896951 0.2054715937260203
0.42758692446000557 13.377030357569923 166078.6321677053 7.25014742445377 0.20848542630524447
0.44458162633889325 13.314931504565063 139801.8602929976 7.625283799564513 0.2115246993131716
0.4619632244117038 13.26055627855945 117976.28906148949 8.016485976932598 0.21459556885874684
0.47972840646902826 13.213138599867802 99807.91926502215 8.424459181437447 0.21769968530533962
0.4978857650037727 13.172004675854414 84641.06592527345 8.849644649600483 0.22083452178708862
0.5164244900053591 13.136391180137998 71935.79568887665 9.292914964605478 0.2240034758086002
0.535343909823334 13.105833080015456 61273.47825646196 9.755155352638294 0.22720947206135034
0.5546501802671694 13.079807270198785 52298.0260878748 10.237175455661161 0.2304538615679167
0.5743332792121363 13.05784696493737 44727.80912635099 10.739446686967838 0.23373334386806235
0.5943904378296437 13.03952030035088 37990.91143070867 11.263213307322456 0.23705410134515903
0.614828138883117 13.024515046333626 32899.32554976588 11.80941321654043 0.24041775229127765
0.6356328621973901 13.012429885024298 28290.46843189975 12.37902549420048 0.2438259297901801
0.6568037902191993 13.003010940010835 24369.26858772951 12.972739628162518 0.2472765896334106
0.6783360804436902 12.995978751278683 20864.022836095883 13.591881504783283 0.2507745069338867
0.7002250692159393 12.991061040545953 18171.550623924428 14.237649349870628 0.25432232406002503
0.7224594154020985 12.988003201103924 15728.730606750842 14.91123294826506 0.2579220258178552
0.7450465788956462 12.986648044334364 13632.993129154995 15.613661541619452 0.26157350415566755
0.7679691463177225 12.986745885959376 11835.597823971055 16.346202271585835 0.2652786634470624
0.79121377528354 12.988137229738562 10288.016590905761 17.110470856393142 0.2690421901798392
0.8147872847132804 12.990673896956086 8955.661686106187 17.907922469068094 0.2728665171832278
0.8386711689194116 12.994124266182917 7806.70643744277 18.73991899331477 0.2767526944158014
0.8628531868591431 12.998394939600017 6814.124077647782 19.60781187233599 0.2807012648633318
0.8873335848673911 13.003360080675586 5955.051088621619 20.513683743345535 0.2847185588736941
0.9120901043559824 13.008843615705686 5210.915998361141 21.459328895954304 0.2888075901162327
0.9371099210115537 13.014747982109013 4564.87623931167 22.446226955328736 0.29296824359549967
0.9623942539413385 13.020950610694698 4004.3126586256712 23.47641249571322 0.2972043919825814
0.9879154333190685 13.02733272706639 3516.3278300707107 24.552303666812318 0.3015221001222392
1.0136568326168882 13.033801013540431 3091.685064737766 25.675837175789628 0.30592295751137694
1.039622006711385 13.040255014004147 2721.1888468853663 26.8489856763305 0.3104083080599079
1.0657745695239476 13.046573782549656 2398.0305880615424 28.07484073265608 0.31498684622165274
1.0921058033247155 13.052700227667092 2115.607820427561 29.35544975825105 0.3196589648552387
1.1186041158378528 13.05853839413282 1868.4564000598236 30.69358389698543 0.3244294540691616
1.1452359045300369 13.063994894370989 1651.9640511312275 32.09262765392037 0.32930626733659024
1.1719989509014648 13.069012431707266 1461.9396687473475 33.5545373660994 0.3342872009300796
1.1988565630544787 13.07345985693072 1295.4154944847944 35.083848437818745 0.33938577400526587
1.225802337041402 13.07733335501554 1148.9782559665941 36.6825751914581 0.3445986929533255
1.252797262600182 13.080495778105377 1020.0599012674485 38.3557793203288 0.34994045262520956
1.2798417917577012 13.082931076293852 906.6547903694756 40.105709440881554 0.3554076829473156
1.3068847624532314 13.084527260174768 806.6662785000303 41.9378211020897 0.36101485124800653
1.333922181792634 13.085238163431516 718.5352070469095 43.855611881563625 0.3667639646476283
1.3609316078157208 13.085029771855698 640.5854053142906 45.863759585733234 0.372662717117588
1.387861442499222 13.083772618438665 571.7487577519415 47.96760306770732 0.37872109657125097
1.414717950140036 13.081484229482209 510.7619427395369 50.17190461727824 0.3849447822908671
1.441441411220054 13.078028826035046 456.8291650579903 52.48187384523334 0.39134069194361515
1.4680369447571295 13.073431422455831 408.9822190729739 54.90393223850567 0.39792054364594864
1.494445688986243 13.067564778444527 366.4891931991578 57.44426977035422 0.40469339859785103
1.5206575651365215 13.060417059823797 328.80604001474717 60.109514532576306 0.4116690281012123
1.5466414088265263 13.051930270530756 295.26268406448594 62.90677217567727 0.418857972028024
1.5723590021930067 13.042048589894991 265.4388540583791 65.84366912520564 0.4262716020621553
1.5977819629727237 13.030721502497732 238.89536153110654 68.92839995760417 0.433922190273453
1.6228691452264594 13.017897642978378 215.21443187970524 72.16977936658266 0.4418229836513323
1.6476206706205747 13.00355994817819 194.0808551112017 75.57729920505632 0.44998828530083823
1.6719702285403821 12.98762444989007 175.21855129255746 79.1608778370788 0.45843223472513617
1.6959071290167955 12.970071467620286 158.35195002892652 82.93074637933509 0.46716826784408777
1.7193867387695596 12.950861887647461 143.2640721000194 86.89962380495801 0.4762178547639199
1.7423672262326206 12.929911868681463 129.77294293634873 91.07907375528518 0.48559527963960675
1.7648522643474271 12.907274101308596 117.668821556455 95.48321555574715 0.49532258012481784
1.7867787698642827 12.882834932990187 106.81606843653103 100.12568949967394 0.5054171667394346
1.8081185089802991 12.856576966103551 97.07621111280876 105.0230363058884 0.5159047986105173
1.828827110125147 12.828443565948183 88.32059379138285 110.19179808746263 0.5268080146060954
1.8489070039088236 12.798476455346 80.46034771443598 115.64962991603764 0.5381502740841002
1.868283062592073 12.766538107133286 73.37847834841173 121.41669869737379 0.5499607514258062
1.8869617942678722 12.732716600946143 67.00183442528116 127.51444242547693 0.5622692995797783
1.9048856243000925 12.696900083959443 61.250160757547924 133.96529872677604 0.5751052030144627
1.9220266351318467 12.659082078396851 56.06907844101668 140.79497450864764 0.5885048389682414
1.9383409989060616 12.619195049956582 51.38629140488203 148.03114092403544 0.6025064463349712
1.9538357207865988 12.577350705319722 47.15758450721548 155.70228680208479 0.617145751017714
1.9684524224711755 12.533419677324861 43.33729648488242 163.84207117071205 0.6324703907423439
1.9821678095472721 12.487418940242591 39.875648170114395 172.48429160938838 0.6485220033120783
1.994958056247985 12.43934357506975 36.74280449574562 181.6682007151579 0.6653536255416179
2.0067932339275263 12.38918267366446 33.8988376872572 191.4358247494326 0.6830197480910875
2.0176411518475086 12.336908276790938 31.3256353716448 201.83320111434705 0.7015796086522555
2.0274756707421187 12.282523231231362 28.98854684836793 212.91025596744169 0.7210957993192889
2.0362865234782745 12.226057157520323 26.866894598701865 224.7225311733465 0.7416388234421533
2.0440305025836905 12.167462096935063 24.940276989483873 237.3311413247733 0.7632856440228092
2.050684649218918 12.106757385839593 23.180674765795825 250.8029839147595 0.786118948545349
2.056263951274542 12.04400945151123 21.591855728234705 265.2112177273418 0.8102270759164346
2.0607090794941634 11.9791599744941 20.140640913829117 280.6374504614249 0.8357092709164529
2.0640153995051183 11.912263317058045 18.81995315120726 297.1715516917162 0.8626729402301758
2.066175530127749 11.84336344667255 17.617057745034714 314.91388098837825 0.891238491446191
2.0671680080137365 11.77246989534335 16.522208744342 333.97380499562837 0.921531630489518
