M[M_sun], R[km], Lambda[1], P_c[MeV/fm^3], rho_c[fm^-3]
0.24162668629717493 15.618656898711224 2160425.4255784233 3.5677272577965504 0.1711233750220791
0.25363168508548073 15.27759152423351 1684044.1922486643 3.784596121272072 0.17388538742376652
0.2660149301190868 14.981780361646285 1383606.4944739535 4.010931695938003 0.17666098400481078
0.2787760043166521 14.724243733192202 1117159.4336077129 4.246997020889805 0.17944903347330649
0.2919155973905239 14.499267555788789 906678.2438756799 4.4934139332277026 0.1822560411680054
0.30543534673083883 14.30214501295762 739375.9365683655 4.750322307766017 0.1850774053387808
0.3193354415069388 14.129106483049787 605791.6226259386 5.018429944485496 0.18792030591640524
0.3336167066067014 13.977018181814865 498378.95017470786 5.2979258640804545 0.1907806814418357
0.3482796336034471 13.843060005561675 411639.12307772046 5.589578683047207 0.19366563984900936
0.36332393910831323 13.724995823099482 341239.78957258514 5.893504990076868 0.19656930905697892
0.37875819822333184 13.621014999482481 283841.3372978059 6.210589322873531 0.19949980210220386
0.3945695907164148 13.52943234493061 236888.37917536558 6.541127698581993 0.20245398637943182
0.410773685820825 13.448796393109703 198287.18849162557 6.885744812257728 0.20543426282972116
0.4273604853406239 13.377926221133903 166462.51554219934 7.245178830589757 0.208444322401549
0.44433238315203444 13.315754578117565 140143.90609116878 7.619743767351077 0.21148059709452363
0.4616901487777389 13.261351916607277 118288.11730692037 8.010277933498202 0.21454754462379425
0.4794314485891158 13.213893833979846 100083.93419180918 8.417534764402776 0.2176476233693964
0.4975633965256208 13.172667336016964 84881.40260445177 8.842029406933028 0.2207793841764334
0.5160736621902275 13.136997474615372 72159.254873384 9.28448573522026 0.22394413350822706
0.5349664254872059 13.106413578776936 61464.42446052933 9.745855040730401 0.22714579720308695
0.5542475780776247 13.080311002417362 52469.99300669563 10.226943498557645 0.2303857207251067
0.5738990908541346 13.058274333280808 44877.13411144013 10.728327550748515 0.23366195556925698
0.5939326260404643 13.03992129288852 38459.69959520749 11.251039887713903 0.23697804159915092
0.6143368181629757 13.024820798540677 33019.962513531806 11.796113671681521 0.24033686886873487
0.6351085685531812 13.012687930184097 28398.297987256825 12.364523503299697 0.2437400624259658
0.6562463000731797 13.003216078568093 24464.5530165797 12.95710178182207 0.24718721011632927
0.6777509179365222 12.99614025249554 21110.612985069867 13.574885900813365 0.25067987996437696
0.6996082345595453 12.9911666050411 18245.172325914835 14.219204955045301 0.25422226231791867
0.7218087876491128 12.988062495834908 15793.985968293266 14.891242884236673 0.2578163308140255
0.7443635222183149 12.986667056384702 13691.304740008769 15.592217619893768 0.26146389705212125
0.7672507144113263 12.986722943208347 11886.885897445289 16.323014320215083 0.26516307732521827
0.7904637648791326 12.988071291874794 10334.06202930554 17.085422623282575 0.2689203891042659
0.813998123127144 12.990549627997897 8997.340898895423 17.88088999988467 0.2727382500498666
0.8378491814708777 12.994000396145728 7843.666494105062 18.71094150032374 0.27661921332149575
0.862000101847963 12.998250649918543 6846.419924063375 19.576675216101503 0.2805615743236692
0.8864342829419126 13.003162671718545 5984.08870696231 20.480157588221548 0.2845716420636283
0.9111621807904696 13.008626169334995 5236.857662904835 21.423253301259354 0.28865312486677175
0.9361503943743645 13.014519354265792 4588.291411671629 22.40775211878163 0.29280844102873294
0.9613888753493007 13.020691397706834 4024.688700337252 23.435056017658848 0.2970364310369957
0.9868804272406995 13.027079351528446 3534.8183237850744 24.507871105128448 0.3013455906477966
1.0125883261338686 13.033533226896756 3108.239868799461 25.628417913921925 0.30573966922219625
1.0385111193581271 13.03996619799649 2735.9953434205104 26.798166565314723 0.3102163226094645
1.0646352115559239 13.046314803350757 2411.324339558554 28.020301662497555 0.31478508248573106
1.090927959237398 13.052435292478805 2127.2369765011954 29.297383888917985 0.3194499633782651
1.1173939186584039 13.058288654989251 1878.8312987775048 30.63129867497099 0.3242097389125239
1.1439942310197209 13.063755251422702 1661.365642557599 32.02594533865513 0.3290759974590036
1.1707214093113183 13.06878222955441 1470.4165402598837 33.48344280231407 0.3340476049199667
1.1975457798602365 13.073262397885559 1302.9589534856666 35.00762561024053 0.33913372577851997
1.2244608877522793 13.077157861003107 1155.7733852510216 36.601445107536826 0.3443369798612626
1.2514259635418037 13.080350295975828 1026.292212036686 38.26882776035641 0.3496650582562262
1.2784396876134512 13.08282635673451 912.1872050257577 40.01312651462788 0.355121262303444
1.3054565207779334 13.08446387281309 811.6944705795974 41.839160762312375 0.3607163746802112
1.3324732349206847 13.085251379404497 722.9627345866795 43.7499341237226 0.36644983569881295
1.3594498671547208 13.085068472484629 644.6600465951565 45.751203653725995 0.3723354197568786
1.3863582432206587 13.083867476692806 575.3932967397874 47.847557411139576 0.37837909462009967
1.4131829859202694 13.081626476025741 514.0448109201602 50.043318634936284 0.3845844701978768
1.4399028094674313 13.078281632750832 459.7838277063185 52.34482010346831 0.3909643937183279
1.4664667646805245 13.073725374264342 411.6522678733511 54.75780461059191 0.3975271943520856
1.4928643230966034 13.067952686053284 368.90924363980844 57.28841306847882 0.40428185103540754
1.5190566660183211 13.060882810160134 330.98205990277825 59.94322011885489 0.41123804605728076
1.5450340845516723 13.052497591139728 297.2322912554329 62.72927313558999 0.4184062228592024
1.5707413927931415 13.042716793519746 267.22183170892987 65.65413495476349 0.4257976485368921
1.5961577150492192 13.031490570681278 240.4863021723167 68.72593070963428 0.4334244815942532
1.6212522171104327 13.018787549903955 216.65962544172055 71.9533991948137 0.44129984556721424
1.6459923321036927 13.004554720181016 195.4068766291027 75.34594923708978 0.4494379092096503
1.6703402050816467 12.988734817872139 176.40785112716085 78.91372161055915 0.4578539740164434
1.6942813917576818 12.971327204585297 159.45534418533262 82.66717033294093 0.466562570857132
1.7177753180869686 12.952249269261939 144.2680877943536 86.61738017418573 0.47557871180672906
1.740779312551554 12.9314738365238 130.6734762039007 90.77799417970773 0.4849253998976777
1.7632600886198628 12.908937112039201 118.49228086781352 95.16050603335854 0.4946144833751624
1.7852083955427909 12.884669853515913 107.55846596031444 99.78101836467674 0.5046733813832445
1.8065607454844392 12.858548171231757 97.75697311438404 104.65406944417899 0.5151203863671414
1.8273138944608507 12.830627087856476 88.93929459888474 109.79625514515467 0.5259786996024071
1.8474024768122879 12.800781181641863 81.02095565395075 115.22609389608596 0.5372753948179245
1.8668315612832125 12.76908203534864 73.88825838730898 120.96296757499861 0.5490371211345569
1.8855283344983702 12.735386268569833 67.47053982158828 127.02798009743881 0.5612929853140795
1.903491045166887 12.699755726617632 61.68248560081188 133.4441322006711 0.5740747635607438
1.920681479800925 12.662147174779394 56.46504946062739 140.2362632735815 0.5874162570151878
1.9370686140483 12.62254720162909 51.7500098879608 147.43058478149442 0.6013512467152623
1.952611164653319 12.580886028024056 47.489502871908634 155.0579782923482 0.6159243976238277
1.967276350177657 12.537146823959674 43.635011516264925 163.14870596727152 0.6311723936708388
1.9810684918090906 12.491398753902107 40.15178896224147 171.7389665080173 0.6471458420045574
1.9939213264005737 12.443548879333086 36.994832694527034 180.86638467281324 0.6638931065026782
2.0058109412162626 12.393568153839169 34.135939913096436 190.5723195158125 0.6814674143764208
2.0167302241526928 12.341522231163724 31.539679708090866 200.90227296224649 0.6999273030107671
2.026651424444576 12.287396238048734 29.18686861667441 211.90634898876144 0.7193371270205278
2.03553763379391 12.231151960027086 27.04759031444522 223.63951872286492 0.739766810638626
2.043377258109895 12.172829555605722 25.105455934097613 236.16076086378416 0.7612878161606919
2.050134585364516 12.1123947868526 23.336289312449125 249.53724604858553 0.7839853855659844
2.0557894102183147 12.04985860372231 21.731961466617104 263.8415769846104 0.8079479141460797
2.060336594862522 11.985275948474595 20.270819449165735 279.1539841243687 0.8332722808323152
2.0637583502159123 11.918665753418122 18.938901840436777 295.563516089022 0.8600656291000442
2.0660208626338523 11.85001230310351 17.72744113718479 313.16850813703144 0.8884444927996038
2.067133228023239 11.779401986707395 16.622536769774083 332.0776646252565 0.91853556036593
