M[M_sun], R[km], Lambda[1], P_c[MeV/fm^3], rho_c[fm^-3]
0.24162668629717493 15.618656898711224 2160425.4255784233 3.5677272577965504 0.1711233750220791
0.253639138454783 15.27741829420632 1723261.3203225213 3.7847523012670194 0.1738873341320598
0.266031964885165 14.98144909363688 1383180.3986042556 4.011259999926452 0.17666495136475943
0.27880313794530653 14.723753419529029 1094262.5722001388 4.247508537862656 0.17945496629935193
0.2919535687767149 14.498653250918805 906120.3705285394 4.494122067115717 0.18226392640319775
0.3054843189567295 14.30149100972864 738888.8022192676 4.751251081351567 0.1850874378660958
0.3193945625832966 14.128467295447773 605275.1163220328 5.019586179696495 0.18793230230298516
0.3336878697441728 13.976285482088578 497894.2974587788 5.2993399758542585 0.19079491920096214
0.3483641560995139 13.842327425646644 411190.156245479 5.591254181868719 0.19368185076102135
0.3634201551855718 13.724316620118636 340825.8933322134 5.895479487880057 0.19658785395819475
0.37886764619307783 13.6203190419823 283465.58361841406 6.212886684369974 0.1995207512728481
0.3946943403093079 13.528755013786103 236541.75126023134 6.543745518426145 0.20247694112296366
0.41091194022655625 13.448184176795062 198000.40150652707 6.888733586959278 0.2054597164892702
0.42751430039078775 13.377327544139131 166216.09883600345 7.248566570778192 0.2084723483079245
0.44450227385732544 13.315174324059285 139904.25855612083 7.623521091168203 0.2115106670209192
0.4618762981826526 13.26080334761465 118071.39739672205 8.014510673020407 0.21458028828602144
0.479633858726092 13.21337907540267 99894.13864596364 8.422255882948866 0.21768311958086028
0.497783855383738 13.17218732879956 84718.32767711078 8.847221481833474 0.22081697701711553
0.5163136063916921 13.136585434313583 72011.65943338297 9.290232719841384 0.2239845926382425
0.5352234693016968 13.106010798863428 61332.59097077772 9.75219584945861 0.2271892097360259
0.5545216750842206 13.07996364401237 52354.27448802535 10.233919408085846 0.2304321775612534
0.5741940266031564 13.05798210171193 44774.68755037251 10.735908243210295 0.23371062596306622
0.5942456935994743 13.039679266184606 38366.68469057316 11.259339263980847 0.2370298962522548
0.614670863979627 13.02463614876355 32938.54597604306 11.805180693941331 0.24039201149206713
0.6354645759230182 13.012516635455599 28324.089023564356 12.37441018553514 0.24379860220510302
0.6566274009876513 13.003085861247753 24401.15901792777 12.967762727241034 0.24724814370861767
0.6781495738736275 12.996029440931492 21053.05341226377 13.586472352309674 0.2507443902221123
0.7000283972094126 12.991089027536836 18195.07402592659 14.231778951048303 0.254290476859909
0.7222525023671358 12.988009558472548 15748.579323526887 14.904870445668873 0.2578883848682657
0.7448290710534734 12.986665678914962 13651.754912388345 15.606836162761086 0.2615386173463963
0.7677401327410652 12.986747510759953 11851.3274448934 16.33882160610084 0.26524187268075455
0.7909748965560622 12.988117314289104 10302.668792122837 17.10249787296744 0.26900342026131874
0.8145369287347601 12.990631621205013 8910.734734733389 17.899317681703106 0.2728256880824527
0.8384097156181508 12.994098215512425 7818.065192140053 18.73072056340772 0.276710432389774
0.8625807024612185 12.99835391309485 6824.361363343971 19.597900225327972 0.2806567975541555
0.887044928969331 13.003292227883238 5964.117238201422 20.503011188938867 0.2846717900854784
0.9117947795437996 13.00877847164142 5218.977950069984 21.447844478732005 0.2887584171674246
0.9368034134462945 13.014666547472666 4572.272229000666 22.433978508123804 0.29291737051901867
0.9620717609690285 13.020858215152312 4010.667489695729 23.46324634736341 0.29715092034208895
0.9875855466316036 13.027257825124085 3522.0463904475537 24.53815786465442 0.30146590556559344
1.0133222849883905 13.03371679448724 3097.102612040975 25.66076646687573 0.30586479674322353
1.0392688204954648 13.040166791522097 2725.8987443697433 26.83280586674904 0.3103471836528001
1.0654133168795912 13.046503450655544 2402.1794744136037 28.057476109458914 0.31492260692972956
1.0917309574386707 13.05262028804118 2119.2665512922626 29.336961852657144 0.3195924197467325
1.118217190777831 13.058466571967347 1871.718626923299 30.67375204394641 0.3243594959224944
1.1448411095090483 13.06392108660777 1654.8899101872944 32.07147297753207 0.3292334497449276
1.17159282856331 13.068937071909376 1464.6283571272586 33.53189948648862 0.33421090894172817
1.198444502877798 13.073415373693882 1297.746863255415 35.05957695623679 0.3393055147956879
1.2253761473152454 13.07727792163411 1151.1187646818232 36.656740525326214 0.3445153543195044
1.2523618617919094 13.08044849701466 1022.0356966539271 38.32810252079932 0.34985282770298987
1.2793948071346344 13.082905342247539 908.3769435795957 40.07622628386335 0.35531647190918764
1.3064307246278308 13.084507059875472 808.2714407488108 41.906427954995884 0.360919945008301
1.3334576362579549 13.085227427617468 719.9006516330284 43.821956890400436 0.36666392460881153
1.3604591133924089 13.085042922722623 641.9150512910225 45.82791324959421 0.37255848084145243
1.3873837753743201 13.083803072466065 572.9102668698785 47.92941232635482 0.3786123933931222
1.4142319988592582 13.081532601634276 511.81492113059875 50.13095084188371 0.38483002529901233
1.4409567940365942 13.078119015899246 457.7606023075948 52.438222029465656 0.39122084041243915
1.4675371433588642 13.073531837058502 409.81480364308936 54.85738916303914 0.39779525805738236
1.4939431742664597 13.067686501495075 367.26442723770145 57.39462656809335 0.4045623131928828
1.5201505855561745 13.060570198467051 329.48955636974495 60.056545287991746 0.4115317487255214
1.5461300341768887 13.052111641028382 295.8890581289222 62.85023238441408 0.41871407376414643
1.5718440684294246 13.042263611737077 266.0087480150041 65.78329399840717 0.42612062662528505
1.5972597003537108 13.030958483743808 239.3988005996106 68.86390255350236 0.43376364314528815
1.6223519182596344 13.018185061126262 215.67669458723142 72.10084852976081 0.4416563309233266
1.6471033153698318 13.003877439420068 194.50493806990553 75.50359729136123 0.4498129501947688
1.6714563185902813 12.987984333283926 175.59883309649382 79.0823515112554 0.4582489021183234
1.6953917170720512 12.970477251671008 158.7064013328156 82.84677322950333 0.4669752977903439
1.7188562845540551 12.951267410263553 143.59548385093436 86.80970036932713 0.4760142224253881
1.741872397924469 12.930430903177502 130.05846915976295 90.98316259728773 0.4853819126166906
1.7643514051998843 12.907820262863462 117.93108016901924 95.38039312099544 0.4950969647438386
1.7862803327698342 12.883422018320443 107.05171752337313 100.01586626984587 0.5051801729740115
1.8076234771840007 12.857206885366832 97.28329601836546 104.90564301698356 0.5156555137154619
1.8283536467805044 12.829159169572618 88.51927170026619 110.06584122162587 0.5265440643157074
1.8484323916620664 12.799216609768003 80.63743652363301 115.51466403986286 0.5378714811570665
1.8678298679842087 12.767370140971599 73.5385500446329 121.27210572329234 0.5496664131179901
1.8865101243821607 12.733580718060235 67.15061904696005 127.35941840335816 0.5619581793494669
1.9044444460948133 12.697819720883231 61.3862876041998 133.79951031637364 0.5747778852154838
1.921583874388565 12.660008991460423 56.19355113168482 140.61690807526816 0.5881578978407758
1.9379372184790085 12.620270241062087 51.502697864349265 147.83973060928548 0.6021382590712927
1.953439691503256 12.578457658015035 47.263898939369085 155.4969920509231 0.6167566969139683
1.968079237987745 12.534604086168253 43.4344512428495 163.62119107004366 0.6320570908558205
1.9818164203885507 12.488675697629516 39.96310805768319 172.2467124200993 0.6480833393154273
1.9941438058050212 12.441294326769782 36.89901390618753 181.5193813072957 0.794348577409253
2.0032000212397154 12.392448376897557 34.40590693822887 191.82487873353327 1.0040839909636579
2.008813131330303 12.340295243360966 32.35885194110575 203.27564575390417 1.218849700977939
2.0110926144272256 12.28396242856609 30.669029766084808 215.96847818937817 1.4395626442773177
