M[M_sun], R[km], Lambda[1], P_c[MeV/fm^3], rho_c[fm^-3]
0.24162668629717493 15.618656898711224 2160425.4255784233 3.5677272577965504 0.1711233750220791
0.2536434882596738 15.277286148049177 1723256.1739002073 3.784809169652906 0.17388804296905566
0.26603821985857856 14.981319057937485 1383009.5443286197 4.011379547013771 0.17666639602075782
0.2788124925418202 14.723558298022546 1116411.2533443882 4.247694806458637 0.1794571267343645
0.29196656287484346 14.498472813789743 905973.9901796334 4.494379943335914 0.18226679791475958
0.305501206992233 14.301281120355014 738698.603301043 4.7515893192966026 0.18509109148143899
0.31941729072472375 14.128183189805815 605131.8463660104 5.020007269101491 0.18793667126808758
0.33371455644515113 13.975974161854314 497712.23141812236 5.299855000484415 0.19080010464440741
0.3483943236119466 13.842082791129062 411037.20739658806 5.591864425749715 0.1936877550384423
0.3634553499178065 13.724057712573313 340682.4409124653 5.896198658156444 0.19659460855762323
0.3789084409055214 13.620047135356456 283328.9819304823 6.213723481271709 0.19952838185302285
0.3947395681440853 13.528522897905976 236422.4480997341 6.54469907128986 0.20248530249339164
0.4109629100042345 13.447928720446152 195396.10135352265 6.889822300290082 0.20546898842885614
0.42757055522903886 13.37709737172873 166104.3220350963 7.249800657584073 0.2084825575918002
0.4445635156143172 13.31498660857635 139817.30292311456 7.62489713885527 0.21152162124530402
0.461944684534159 13.260605556543995 117998.81275197516 8.01605267812069 0.2145922169421297
0.4797075727855533 13.213230008617636 99820.48275260125 8.423975865744278 0.21769605144698995
0.49786371570500954 13.172014407474032 84653.67933748971 8.849113099081892 0.22083067313421995
0.5163996239729455 13.13643486357425 71947.81077202567 9.292326577153952 0.22399933352425977
0.5353167228144917 13.105883992883841 61286.8593267785 9.754506138861418 0.22720502720018496
0.5546224263553007 13.079845048033674 52308.97062356443 10.23646118375549 0.2304491047956633
0.5743031329907224 13.05787020143105 44736.080499414995 10.73867046044076 0.23372836025331362
0.5943588718885857 13.039539238533251 38335.87834662484 11.262363452910476 0.23704879143941374
0.6147938800694125 13.024519270443887 32907.92499394514 11.808484713748332 0.240412105445129
0.6355941662260687 13.012453453443028 28298.421071760207 12.378013009318709 0.24381993479206576
0.6567648624736155 13.003028234942642 24375.864401871706 12.971647810679366 0.24727034925239774
0.6782950022089405 12.995982903872866 21032.653309482965 13.590694850741976 0.25076789996210835
0.7001817710430924 12.991070384736178 18040.701276720465 14.236361496676466 0.25431533739359297
0.7224137771747449 12.987998569047098 15733.632452673844 14.909837124516669 0.25791464557153776
0.7449997540664636 12.98664695862418 13541.039464344483 15.612164159765364 0.26156585053288206
0.7679188538954554 12.98675714045377 11838.580138336336 16.344583054103573 0.26527059205402714
0.7911614190086638 12.988129172111451 10291.65402686302 17.108721676832335 0.2690336845119569
0.8147331438873394 12.990659345875137 8958.113391627228 17.906034662207414 0.2728575596746585
0.8386140773849324 12.994120766650598 7809.507948954657 18.73790093228774 0.276743422469555
0.862792345038335 12.998397090442534 6816.273963889827 19.605637317703152 0.2806915090081141
0.887265573021616 13.00333837722337 5956.727711200764 20.51134222912787 0.28470829799533476
0.9120255034970887 13.008828602169727 5212.532533810902 21.4568092394918 0.28879680167692
0.9370430117012475 13.014723949765207 4566.563421371175 22.443539652513575 0.2929570820695237
0.9623144407131349 13.020942995001219 4005.5167931271794 23.47352382322268 0.2971926602252891
0.987842877550534 13.027314850667619 3517.646928633084 24.54920002809791 0.30150977083899333
1.0135836317875893 13.03378063528249 3093.0626934195466 25.672530584508024 0.3059101967388077
1.0395444386143162 13.040236825427563 2722.3043913557212 26.845435709318558 0.3103948969237777
1.06569464966273 13.046550401046787 2399.0335867608937 28.071030772883617 0.3149727515237569
1.0920247461243677 13.052683728785505 2116.3536028653953 29.35139330873752 0.3196443641276627
1.1185193810481036 13.058524055099447 1869.1557239458039 30.68923252866472 0.32441410433544865
1.1451499708119561 13.063981542755142 1652.5129342501423 32.08799556856967 0.3292903519475673
1.1719110044017194 13.068991693213942 1462.6541726709297 33.54957023095201 0.33427046117249976
1.1987644999072118 13.073449146871729 1295.8423705620248 35.07852280956726 0.3393681635964193
1.2257080274341279 13.077318825281699 1149.4236744700486 36.67690652442666 0.3445804067109729
1.2527017733558587 13.080487670207551 1020.4999356059384 38.349720595668124 0.349921309025021
1.2797414946402557 13.082934884320814 906.9933865651324 40.099240098223355 0.3553876689623989
1.3067850394669178 13.084521038450275 807.0516343329285 41.930932601145464 0.36099402626604876
1.3338189851237026 13.085234616321117 718.7867942647831 43.848226992696446 0.36674201293873177
1.3608270588311584 13.085036204771077 640.8600899470283 45.85589378243897 0.3726398444300969
1.3877565752249537 13.083779646099593 572.0097969002549 47.95922275366981 0.37869724349227596
1.4146117133234466 13.081496936489739 511.0033130729034 50.16291790211494 0.3849196005246231
1.4413342000753206 13.078047497848463 457.04100795055524 52.4722949947899 0.3913143920091826
1.4679269044088328 13.07345412720912 409.1602652215605 54.893718839822654 0.39789305101353367
1.4943357568781035 13.067589663649557 366.6599793707552 57.433375975022294 0.40466463297622124
1.5205465620670686 13.060451033588246 328.9537507417228 60.09789074915611 0.41163890296456734
1.5465290062083201 13.051970806331017 295.39516563785145 62.89436473142946 0.41882639409597777
1.5722461456078236 13.04209401672782 265.5633954010705 65.830419893713 0.42623847072779847
1.5976684545988178 13.030775964028255 239.00763903940734 68.91424594845205 0.4338873969738724
1.622755680153658 13.01796233267917 215.309626556676 72.15465227279388 0.4417864111742969
1.6475071323739425 13.003629582728756 194.17041834798434 75.56112490344083 0.44994980702059867
1.671856307590523 12.987702338729111 175.30037649964103 79.14366028935795 0.458392066383285
1.6957939946903229 12.970162777345644 158.42465456213125 82.91231760723888 0.467125918579484
1.719258761916328 12.950923034113954 143.33705258686507 86.8798889455082 0.4761731650170017
1.742261470565632 12.930029572539887 129.8296295594276 91.05802459386528 0.4855484530033653
1.7647415420605252 12.90738919553547 117.72249104646762 95.46064932590458 0.49527306477774896
1.7866696439119083 12.882964145836551 106.8616405900332 100.10158655258776 0.5053651536252993
1.8080092021413738 12.85671834363255 97.12163386060442 104.9972716600426 0.515850087331059
1.8287214113743597 12.828595308127257 88.36357444833396 110.16423541852254 0.5267503883972255
1.8488021829767791 12.798639836141692 80.49499536553373 115.62000779993154 0.5380890850140314
1.868191014594456 12.766745631129735 73.41117211665423 121.3849632401048 0.5498961496645542
1.8868634527265753 12.732905085366825 67.03420516214632 127.48042296123505 0.5622010345316135
1.9047882181065485 12.697101844471574 61.27989640334379 133.92891036570106 0.5750333610912147
1.9219334700376542 12.659299622890469 56.097115847221275 140.75589074133475 0.5884286889267103
1.9382514523111123 12.619421532230833 51.412460129095166 147.98912770851732 0.6024256318246343
1.9537505461571392 12.57759669194773 47.1806822811981 155.6572254548621 0.6170603552540225
1.968370106884302 12.533681779272989 43.355077770431485 163.7936886335516 0.6323800117608414
1.9820906511091854 12.487697027204984 39.89589335853935 172.4321424208219 0.6484257155372647
1.9948848363724974 12.439634334207641 36.75925359724193 181.61209583735362 0.6652514297287593
2.00671804464084 12.389477178206798 33.917214141231575 191.3753998623634 0.6829111215469156
2.017577627370983 12.337232258974604 31.340398322695133 201.76805433164702 0.7014639795391633
2.027418928857557 12.282862859696774 29.00243607315696 212.84010775389783 0.7209730792165282
2.036234503913018 12.226413286654616 26.880291249292473 224.64673228030588 0.7415078032510168
2.0439851370445514 12.167836019344033 24.951088949287147 237.24932249484485 0.7631461354017754
2.050651304547715 12.10714935959521 23.19653362387107 250.71449419636923 0.7859699598392695
2.0562249299837685 12.044397831692308 21.60126771265435 265.11533905528813 0.8100675282357038
2.060684217924226 11.979587839284148 20.14881163285118 280.5337585500767 0.8355391920477608
2.0639975983024503 11.912709088507128 18.827990619601135 297.05905387237635 0.8624906736053605
2.0661646957755297 11.843827018125078 17.6248339780004 314.79167395199397 0.8910428620172139
2.0671659266568376 11.772952211749333 16.52877916994444 333.8410827659902 0.9213220063295814
