M[M_sun], R[km], Lambda[1], P_c[MeV/fm^3], rho_c[fm^-3]
0.24162668629717493 15.618656898711224 2160425.4255784233 3.5677272577965504 0.1711233750220791
0.2536474869526761 15.277191862552488 1723080.4880025107 3.7848713109759324 0.17388881753066923
0.26604595939341685 14.98112621396599 1382749.2958437328 4.011510181632152 0.1766679746630257
0.2788240776844734 14.723367425856244 1116315.7510507044 4.247898355133934 0.17945948759225663
0.2919815352323211 14.498234265430101 905825.3046835866 4.494661748569849 0.18226993588144302
0.30552120715403447 14.300989480201778 738504.8364805355 4.751958951102102 0.18509508421039128
0.31944161492769546 14.127906414631003 604907.428236771 5.020467451565028 0.18794144583876088
0.3337430989339335 13.975735404299071 497525.4559244436 5.3004178506063715 0.19080577161119827
0.3484277263747597 13.841802012876197 410866.87273456476 5.592531350146558 0.19369420771544635
0.36349494067109783 13.723779979237896 340507.86132589227 5.89698464216501 0.19660199068576364
0.378952427908289 13.619778172375417 283186.1665644371 6.214638038292491 0.19953672151185406
0.3947892021331232 13.528229638284953 236310.18279362397 6.545741253091288 0.20249444101987152
0.41101881937171814 13.447688178037444 197774.94557944953 6.891012228672307 0.20547912235829324
0.4276323064523579 13.376875411999045 165999.46816196176 7.25114950092691 0.20849371622709656
0.44463199169642414 13.314746229885184 139722.40986830907 7.626401170305645 0.21153359430273805
0.46201608670291344 13.260401302342347 117911.18985066068 8.017738134914397 0.21460525531306232
0.4797888535528999 13.21299822668756 99752.62009374944 8.4258558934912 0.2177101866274162
0.4979501028191183 13.171846365130966 84593.3219997826 8.851180766823656 0.22084564393211678
0.516495125297379 13.136267636021225 71890.54481292918 9.294615350575366 0.2240154466318349
0.5354202389678042 13.105714090081548 61237.95805121035 9.757031539642137 0.2272223174307023
0.5547316007078082 13.079731792814782 52267.86280858702 10.239224681272178 0.23046741566765488
0.5744212687229362 13.057767870705108 44697.36873079595 10.741689973861403 0.23374774646480234
0.5944813172297575 13.039451139756363 38298.3022256048 11.265669402017464 0.23706944706925964
0.6149277365543142 13.024427253122207 32874.19332452742 11.812096632620243 0.2404340719382238
0.6357378950326547 13.012385746415777 28269.00012094719 12.381951650890889 0.24384325578107352
0.6569151202455975 13.00297553845047 24350.400515602483 12.975895087815754 0.24729462494683135
0.6784539753844885 12.995938491371422 21012.604882059703 13.595311084624566 0.2507936019156035
0.7003486163498907 12.991043712773417 18157.030731587172 14.241371444122631 0.254342516602999
0.7225909340418172 12.987994401405428 15715.274071857282 14.915267133238277 0.25794335607450614
0.7451855491676537 12.98664643560831 13621.653601356362 15.61798928279736 0.26159562469786485
0.7681121785313545 12.986771579061918 11825.16680481705 16.350882188213955 0.26530199165769
0.7913647758364736 12.988151428794358 10279.701945887015 17.115526443029626 0.26906677378568716
0.8149471527324502 12.990682131594612 8947.433483857438 17.91337877822396 0.2728924069800276
0.8388353594699713 12.9941693820979 7799.7263152394635 18.74575182138593 0.2767794932428021
0.8630246747219259 12.998436576106903 6807.40224672526 19.614097077683805 0.2807294626158559
0.8875128085717284 13.00339406038378 5949.0872854573045 20.52045158576554 0.2847482166085491
0.9122769609001464 13.008893913887706 5205.508065756402 21.466611707751106 0.28883877300733907
0.937305162582983 13.01479059103926 4560.8325473979 22.45399439454215 0.29300050511588294
0.9625946675433082 13.02100406485496 4000.0784644520104 23.484762062103467 0.2972383020525901
0.9881240791318883 13.027383437092448 3512.673994446736 24.561274673312063 0.3015577376723259
1.0138736015239294 13.03384413806218 3088.52667692591 25.685394890968357 0.30595984257496367
1.0398444827984785 13.04030962781076 2718.4394771085385 26.859246975319465 0.31044707339974076
1.0660033909501643 13.046632115695417 2395.5610337937296 28.085853663541855 0.31502758784178864
1.0923428327258604 13.052756076817966 2113.217904602548 29.367175281808137 0.319701169540536
1.1188484052027285 13.058594524658712 1866.1373701509685 30.70616204191719 0.32447382429045185
1.1454868583017912 13.064046684435613 1649.9825252055487 32.106017359365225 0.32935227304566583
1.1722568663888129 13.069052237589016 1460.282861715051 33.56889573550707 0.33433559011539327
1.199118814020285 13.07350288163411 1293.8310717103377 35.099240894294475 0.3394366659439213
1.2260723364558295 13.07736766414391 1147.5899801778871 36.69896178538748 0.3446515535687515
1.253073385416291 13.080523634835776 1018.8730629430122 38.37322420424067 0.3499953848922673
1.2801226884604104 13.082955048666483 905.5441475118251 40.12441095317906 0.35546553917859247
1.307178426457497 13.084561953931265 805.659757940336 41.957734498437134 0.36107505246203114
1.3342223833732108 13.085262202269869 717.5548008085688 43.876960492699475 0.36682742376061267
1.3612211836116441 13.0850234702956 639.7761224588749 46.024976851279206 0.3732259610842658
1.364348267083252 13.071694776973787 625.4171981352839 49.433245492669265 2.516664234126404
