M[M_sun], R[km], Lambda[1], P_c[MeV/fm^3], rho_c[fm^-3]
0.24162668629717493 15.618656898711224 2160425.4255784233 3.5677272577965504 0.1711233750220791
0.25363096661020773 15.277615526322377 1723640.599228539 3.78458686249689 0.17388527201760046
0.2660139109164945 14.981812991032346 1383691.0885065985 4.010912233787565 0.17666074881620852
0.2787742442702176 14.72426253268164 1117190.907857299 4.246966698620073 0.17944868178067228
0.2919135727868834 14.49931383551855 906696.9613254955 4.493371956908026 0.18225557375194362
0.3054327877885294 14.302183493518275 739411.1448234821 4.750267254133329 0.18507681065447634
0.3193314543352634 14.129182564418958 605804.9234446621 5.018361409841393 0.18791959484302073
0.333610498924056 13.977049117150624 498402.5173137025 5.297842046488855 0.1907798375377668
0.3482747848610538 13.843091643706051 411659.37832711614 5.5894793751280245 0.19366467901757262
0.3633178795320419 13.72504760133514 341260.66430289723 5.893387963590589 0.19656820991945434
0.37875131535767054 13.621065935181026 283853.99041929987 6.210453164393437 0.19949856050081088
0.394563064081135 13.529451328685893 236894.77072041304 6.54097255135691 0.20245262594786148
0.4107648346117678 13.448843421131674 198314.2562984305 6.885567684950424 0.20543275433924357
0.4273507403639693 13.377966409388069 166478.1988453861 7.244978064391646 0.208442661514244
0.44432176093330833 13.31579808942373 140157.20546089884 7.619519918890522 0.21147881511684355
0.4616789032458454 13.261389155687288 118295.62322841516 8.010027103317851 0.21454560424956173
0.47941847488104655 13.21390145217003 100097.91737449671 8.417255000577086 0.21764551993652986
0.49755053535202937 13.172665912863998 84895.71709254218 8.841721742414851 0.22077715655386684
0.5160595502159404 13.137024725320176 72167.90625574584 9.284145197629291 0.2239417361023566
0.5349519468296418 13.106416273993094 61473.665476220434 9.745479325956254 0.22714322486086572
0.5542305283589171 13.080335172442247 51989.231379844474 10.226530162696502 0.23038296806951433
0.5738819742185809 13.058277333684595 44884.464454193054 10.727878390450462 0.233659071821011
0.5939136878554524 13.039925744553821 38128.04992419702 11.250548157756796 0.23697496926148043
0.6143168662606039 13.024833113068125 33023.186232237495 11.795576473371707 0.2403336018067156
0.6350876468401974 13.012723361466287 28402.437723522777 12.363937757365445 0.243736594180825
0.6562234091105735 13.003226615896464 24468.055997635776 12.956470177688006 0.24718360012610044
0.6777278807349816 12.99615572884403 21114.745206343036 13.574199483080182 0.2506760581743409
0.6995824701056427 12.99117559933833 18248.08804064139 14.218460051299818 0.2542182211787444
0.7217827050293206 12.988065471791487 15797.810768946028 14.890435586441361 0.2578120623262685
0.7443361795970227 12.98667076523442 13693.799396183926 15.59135163479555 0.2614594707107298
0.7672214246861777 12.986736691307302 11889.470772515688 16.32207793959339 0.2651584097026715
0.7904366247409849 12.988080276251827 10336.779516374774 17.08441115815344 0.26891547069185373
0.813964931826822 12.990559764795146 8999.093137256086 17.87979845082705 0.2727330707276377
0.8378170316353774 12.994001462972543 7845.354941011459 18.70976453436445 0.27661376231004015
0.8619650560849026 12.998253804186984 6847.958695095845 19.57541802918328 0.2805559341188334
0.8863995184607962 13.003152314924098 5985.151942915343 20.478803973137964 0.28456571031245065
0.9111241926763183 13.008622893833456 5237.91560562649 21.42179680829522 0.28864688858568077
0.9361110737816578 13.0145097833085 4589.087544400439 22.406198808353512 0.2928019894615354
0.9613488282219963 13.020688395815675 4025.4973440348394 23.433386433527033 0.2970296503597546
0.9868374619343979 13.027064337214014 3535.5466033091125 24.506077407338097 0.30133846513798385
1.012544513652334 13.033518328370628 3108.851883355875 25.626491708593626 0.3057321820631737
1.0384665054956719 13.039960263954613 2736.6175911126743 26.796115194034257 0.3102085728981564
1.064589443981899 13.046301597481653 2411.8499898286204 28.01810021823187 0.31477693838613097
1.090880552240473 13.052427296548252 2127.6986666579974 29.295040162421977 0.3194415274019349
1.1173447869651671 13.058275698276086 1879.265871861482 30.628784743357155 0.3242008708558574
1.1439430116803448 13.063743035333793 1661.737379885811 32.0232494366235 0.32906667398104655
1.1706707344701828 13.068773951222022 1470.7865012277039 33.48057352412556 0.3340379351566365
1.1974923186701787 13.073253060893443 1303.254398846614 35.004549490922656 0.3391235538858736
1.2244072506284758 13.077149478934047 1156.0238881220857 36.59817105804623 0.3443264182844179
1.2513698666515858 13.080342826451348 1026.5379522479266 38.26531819766808 0.3496539407310022
1.2783829344125666 13.082826616460817 912.3591402956882 40.00939057038489 0.3551097045400545
1.305399762537721 13.084457393864657 811.9117689836829 41.83515617104843 0.3607041989095271
1.3324149638264313 13.085249480991829 723.161627280982 43.74567011347721 0.36643716085517997
1.3593901791070804 13.085073529586579 644.8199478859725 45.746662282427735 0.37232221406604193
1.3862974845069131 13.083877496380328 575.5325628389044 47.842688504842904 0.37836516260749264
1.4131213824584048 13.081633287355258 514.1924776548744 50.038130924858926 0.38456993366254255
1.4398392090370837 13.07828791873221 459.8807890313062 52.33929098349187 0.39094921282645484
1.4664037956548757 13.073738621612726 411.756113171534 54.75190966023382 0.39751132620590535
1.4927998595291005 13.067970280599274 369.013046343443 57.28212589220307 0.40426524942611003
1.5189987452005917 13.060920420413291 331.0736328279363 59.936512169542894 0.4112206611936502
1.5449687958492542 13.052520685310716 297.3083690497355 62.72211352042723 0.41838800106939855
1.570675880811839 13.042743553577367 267.2956568040368 65.64649022158883 0.42577853194050547
1.5960920237305702 13.031520783177683 240.55572894332715 68.71776461155568 0.4334044077414105
1.6211861296454184 13.018825031399635 216.72191187985024 71.94467243063345 0.4412787470411502
1.645926784480333 13.004594843758213 195.46106832952216 75.33661916476913 0.4494157131887065
1.6702750423398876 12.988780445011413 176.4611358013804 78.90374193061318 0.45783060179098306
1.6942157359390195 12.971377951466357 159.4944956176347 82.65654156236582 0.4665381459733064
1.7177092437608434 12.952310634500511 144.30769806969212 86.60599919855203 0.4755529394964653
1.7407137661170422 12.931534950855035 130.70679786738 90.7658016353655 0.4848981808064406
1.763195016360961 12.909003016597005 118.52296156174269 95.14749459466472 0.49458593337335505
1.7851447341605398 12.884744374955412 107.59062094385786 99.7671220930859 0.5046433938320242
1.8064987735312739 12.85862626020008 97.78245689033601 104.6391557714618 0.5150886164532728
1.8272523863473116 12.830714220596937 88.96499036128655 109.78030452952254 0.5259452486343457
1.847342142766292 12.800874495645676 81.05169536813555 115.20902065412139 0.5372401273915486
1.8667723361093722 12.769183167954141 73.91187508492337 120.94467809736736 0.5489998904604455
1.885470628021225 12.735494759101613 67.48916567233212 127.0083720214567 0.5612536320620388
1.9034459701601432 12.699903842911128 61.70078759492617 133.42309348578289 0.5740331145744538
1.9206272508154554 12.662272753933767 56.481392946989466 140.213745793416 0.5873723844008605
1.937017427917541 12.622679484345628 51.767746683231415 147.40638229916232 0.601304692036348
1.9525619570558108 12.581027246636664 47.50271332834328 155.03194326191723 0.6158749377220224
1.9672290517026052 12.53729194447887 43.64923906282006 163.1207590503212 0.6311200649125143
1.9810111041308778 12.491531289048915 40.16584157873402 171.70893520233534 0.6470903924821707
1.9938781262049647 12.443717590673717 37.00330123310588 180.83407918912016 0.6638342616161903
2.005770906844107 12.393746555607157 34.14312032150906 190.53753079275603 0.6814048742717542
2.0166943984252623 12.34171032233357 31.550714967507755 200.86477042691058 0.699860739709866
2.0266186715412 12.287597012029297 29.194052056429555 211.86587802649746 0.7192661811998571
2.035507727324789 12.231361883300497 27.055497693864098 223.59589537506875 0.7396914066434358
2.043351080882701 12.173046189617308 25.112672611271694 236.11357963485364 0.761207212761457
2.0501122051149454 12.112621957384794 23.345235072380838 249.4862653199828 0.7838994435811881
2.0557703560767577 12.050095190581285 21.737513809702595 263.78642057984206 0.8078561306840255
2.0603213679212966 11.985523237482129 20.275013353197274 279.0942342157487 0.8331741023946193
2.0637474040611736 11.918924549876563 18.944039987150905 295.4987078936967 0.8599604453243274
2.0660130158048324 11.850281615389148 17.731106914501325 313.0982375310782 0.8883320033806371
2.0671303209311747 11.779682152885277 16.626439889442153 332.0012441040837 0.9184146592018703
