M[M_sun], R[km], Lambda[1], P_c[MeV/fm^3], rho_c[fm^-3]
0.24162668629717493 15.618656898711224 2160425.4255784233 3.5677272577965504 0.1711233750220791
0.25363996455050525 15.277426339668153 1723189.3338023543 3.784762796475176 0.17388746494976642
0.2660330326318027 14.981420190920137 1383133.1616425181 4.011282062459799 0.17666521797745452
0.2788049230672154 14.723730920251283 1094176.8872206104 4.247542913627882 0.17945536500642537
0.2919562009419004 14.498620721753134 906095.8003392075 4.494169657638542 0.18226445633471458
0.30548693950467815 14.301465747243482 738821.981716379 4.751313501946505 0.1850881121276526
0.3193989294581069 14.128390268835755 605235.6397867207 5.019663889620423 0.18793310857343917
0.33369271341506973 13.976206589702064 497853.9567182219 5.2994350202810105 0.19079587614063231
0.34836981223074 13.842283738222124 411168.59265238186 5.591366797536064 0.1936829403485824
0.3634287820315368 13.724247023688124 340779.2779654742 5.895612204000604 0.19658910045608466
0.3788743226220015 13.620288407137084 283436.9520132122 6.213041106168106 0.19952215941371113
0.3947016560570707 13.528720052149593 236525.11979375102 6.5439214850107 0.202478484112191
0.4109218132423977 13.448110379959147 197973.59974471308 6.888934494219108 0.20546142749980237
0.4275238394453244 13.377293522390149 166196.899542359 7.248794302997538 0.20847423227821238
0.4445140138635574 13.315135364654745 139897.25240225674 7.623775018401817 0.21151268844497345
0.461888322018766 13.260773224881085 118056.94870581437 8.014795222857487 0.2145824895090599
0.47964710578942127 13.213350142510036 99880.80977792843 8.422573273054049 0.21768550591074803
0.49779800688459996 13.17215582327044 84702.9276388414 8.847570541516097 0.22081950435835945
0.5163285541621827 13.13656861361146 71994.31093972022 9.29061909598159 0.2239873127503573
0.5352414744753817 13.105995349151113 61325.690461553095 9.752622160327547 0.22719212848589415
0.5545400399788133 13.079960773968043 52348.10428909175 10.234388430986973 0.23043530107080848
0.5742161188065819 13.05796425158271 44768.705106864436 10.73641794002888 0.23371389837452586
0.594265310482086 13.039612547199969 38362.32872905172 11.259897296941986 0.23703338285229433
0.6146943052237738 13.024596127339654 32931.35509515611 11.80579035775525 0.24039571926525735
0.6354880654281443 13.012496643666633 28320.762887542962 12.375074980380495 0.24380253850471212
0.6566528872769777 13.00307053060183 24395.259712660598 12.96847960039911 0.24725224106162155
0.6781762141530954 12.9960221992431 21049.02856003498 13.587251479437985 0.2507487281932221
0.7000561851975411 12.991091423095673 18191.211751107316 14.23262450726072 0.2542950640436287
0.7222824180071287 12.988019139620194 15746.288817017166 14.905786874236487 0.25789323037155304
0.7448612387014517 12.986645819231756 13649.15889492588 15.607819254187019 0.26154364225765536
0.7677722575454674 12.986760572273418 11848.796892439139 16.33988466771317 0.265247171776267
0.7910083382412011 12.988125708184835 10301.389182070207 17.10364623686396 0.26900900436607883
0.8145744188651569 12.990640739004503 8967.694282297458 17.900557033360453 0.27283156871744896
0.8384479269602637 12.994093345883988 7816.518588927234 18.732045407064795 0.2767165193608857
0.8626201917490899 12.998355237289084 6822.84578859473 19.59932777908848 0.28066320208756784
0.8870856248243386 13.003295819096001 5962.800589585324 20.504548319362723 0.2846785260293315
0.9118351722373338 13.008794518706305 5217.621036079324 21.449498522406916 0.2887654993034511
0.9368478697323214 13.01467365151393 4571.233720972148 22.435742576983476 0.29292469745675326
0.9621162751088669 13.02087443353345 4009.672181808892 23.465142568000495 0.2971586214575182
0.9876321680971755 13.027270426656528 3521.2707080845726 24.540195156732068 0.30147399875986997
1.013370600416452 13.033734952340025 3096.3770566382136 25.662936947082642 0.30587317304435285
1.0393202700990192 13.040180298728934 2725.2217880247026 26.835136055404032 0.3103559866859426
1.0654652133150357 13.04651657799578 2401.4868724764674 28.059976906967737 0.31493185846714483
1.0917850788763723 13.052635475954293 2118.8377553024557 29.339624399288844 0.31960200327979466
1.1182748817861996 13.058469524702687 1871.294036797455 30.676608109743825 0.3243695708796633
1.144897964424747 13.063932957623582 1654.4893553982229 32.07453595346963 0.3292440427072466
1.1716521704029266 13.068947622656486 1464.3286775438137 33.53515959635053 0.3342218958480942
1.1984984990880059 13.073416803061235 1297.3615965573235 35.063072284979015 0.33931707290025265
1.2254371129669615 13.077284563181744 1150.7705304762023 36.66046093459952 0.34452735578391314
1.252424126347633 13.080458430560482 1021.8144660777881 38.33209078915978 0.34986546166284044
1.279459979685956 13.08290574115437 908.1470616179806 40.08047201993909 0.3553296067981972
1.3064956453947207 13.084510266159466 808.0218672083141 41.91094869788461 0.36093361189894313
1.3335249606327144 13.085224057480389 719.7387268830256 43.826803291684264 0.36667833061980126
1.3605240142070998 13.085045625646984 641.6920176617614 45.83307516006316 0.3725734909759036
1.3874511984705709 13.083800469581567 572.7328761745035 47.93491177955513 0.3786280466121924
1.414301017909025 13.081527915162235 511.658057012295 50.13684809909586 0.3848465500636119
1.4410276894550553 13.078113612183916 457.6266930766745 52.444507734562876 0.39123809860358594
1.4676103802533271 13.073514832205616 409.7040859010081 54.86409112928956 0.39781329854520614
1.4940155166295217 13.067668019420543 367.17017492053566 57.40177486073507 0.40458118862381987
1.5202236199559687 13.060549845607577 329.3910660425821 60.06417242576432 0.41155151583226307
1.546203487753502 13.052085763754414 295.7961904406388 62.85837356118926 0.4187347937062915
1.5719179632463076 13.042230712706234 265.9518662370637 65.79198732715682 0.4261423653639914
1.5973350177098877 13.030925610815055 239.32461630321046 68.87318933511233 0.43378647185560076
1.6224272918189424 13.018139273510812 215.60851364064771 72.11077354950945 0.4416803264483033
1.6471778179415326 13.003830712667018 194.440709653936 75.51420914622851 0.44983819554601495
1.671532616104096 12.987931526864145 175.54403574721917 79.09370297162715 0.45827548702811505
1.6954667407456028 12.970420062799857 158.6560300311269 82.85886369184644 0.46700308163759524
1.7189313127248205 12.951208061403273 143.5412421768234 86.82264738465005 0.47604354104504176
1.7419451327570468 12.930362406042127 130.0180502909608 90.9969715565946 0.4854126324682532
1.764425007361051 12.907741731848752 117.89485974485035 95.39519693805683 0.49512944762400296
1.7863513101136066 12.883336481213428 107.01398529206014 100.03167783128893 0.5052142936376405
1.807695004578904 12.857115531596207 97.25879399953021 104.92254424903376 0.5156914035171469
1.8284236033087986 12.829058224363468 88.49580035990545 110.08399292378624 0.52658213131094
1.8485008624420989 12.79910947603181 80.61185334689753 115.53409466588343 0.5379116181254314
1.8678960885353122 12.767254697646472 73.51433285690138 121.29292204574747 0.5497087875221776
1.886575149167081 12.733456201042424 67.12796580469934 127.38173719297623 0.5620029729821456
1.9045087941859487 12.697686293716476 61.36802523994236 133.82337739048353 0.5748250062304374
1.9216634342282077 12.659926657286306 56.176382493032804 140.6425423159667 0.5882078430898656
1.937996096975868 12.620119751793593 51.485243816702194 147.8672853866079 0.602191262056408
1.9534932842789783 12.578278500906679 47.24900349368664 155.52654515581574 0.6168127030060473
1.9681326069028642 12.534432636717844 43.41705248369479 163.65301421842935 0.6321166776017917
1.9818672705987728 12.488496344106801 39.95054467365476 172.28091190671137 0.648146484928162
1.9946710803378718 12.440477729454505 36.80965861631436 181.44939662977396 0.6649550708662006
2.0065220085763835 12.390366423424654 33.964011113868985 191.2001759642326 0.6825961194437513
2.0173951703012905 12.338170763548161 31.38409486992116 201.57914089002136 0.7011286768150521
2.027252236954835 12.2838504701759 29.04359610566072 212.63669448918134 0.7206172198797357
2.0360844036631094 12.227452356240248 26.916177790599594 224.4269375231575 0.7411278827807148
2.043853540677273 12.168927474554517 24.984727576519496 237.01207596772116 0.7627416082791924
2.050538731633058 12.108291549355194 23.22707407119497 250.45756808402206 0.7855368404891484
2.0561312844455735 12.045585940687477 21.62971658005959 264.8373349029003 0.8096049131744297
2.0606103035313517 11.980829710858501 20.176002851937206 280.232732324075 0.8350448327133226
2.063951015211527 11.914018425232147 18.852481048208965 296.7328750052085 0.8619622053954554
2.066134914292869 11.84517632724101 17.64705678968249 314.437351789089 0.8904756619242089
2.067158442929894 11.774357222280436 16.55007454171915 333.4562816658873 0.9207142437296638
