M[M_sun], R[km], Lambda[1], P_c[MeV/fm^3], rho_c[fm^-3]
0.24162668629717493 15.618656898711224 2160425.4255784233 3.5677272577965504 0.1711233750220791
0.2536450436386577 15.277268286770395 1723280.4290501191 3.784839436404225 0.1738884202295097
0.26604186951434106 14.981240875551197 1383028.7960340967 4.011443173948202 0.17666716491471038
0.27881805086694905 14.72349091829046 1116419.514026033 4.247793946362254 0.17945827660784583
0.29197376583283574 14.498337986541706 905825.4077945657 4.494517197909334 0.18226832627628975
0.3055110385216777 14.301145939921316 738616.2475619022 4.751769349190788 0.1850930361478884
0.3194281563190303 14.128075408625882 605019.9369047757 5.0202314006622055 0.18793899671953682
0.33372628910316443 13.975932535150088 497642.1456417197 5.300129134735234 0.19080286472144217
0.3484105976842568 13.841946486558818 410956.7503676424 5.592189247340677 0.1936908977766902
0.36347513644324486 13.723896997588676 340599.8567498303 5.896581464948731 0.19659820396002695
0.3789299583864144 13.619916059445622 283257.72746750724 6.214168906048343 0.19953244359065941
0.3947637451364353 13.528362606122212 236362.71316395365 6.545206651789636 0.202489753288667
0.41099040167855166 13.447814358035004 197834.8485517121 6.890401835692464 0.20547392399553543
0.42760039177550574 13.376979362425695 164047.256539185 7.250457586499238 0.2084879921963589
0.44459655091690664 13.314872685714446 139769.80592148317 7.6256296457879476 0.21152745247148855
0.46198042910542503 13.260532406614436 117960.5059900263 8.016873540213757 0.21459856697405807
0.47974727508948445 13.213095957730046 99791.09813209798 8.42489148433293 0.2177029356187653
0.49790596945873083 13.171955963397176 84623.79825810269 8.850120098293758 0.22083796423877153
0.5164461690446001 13.13635995118199 71924.30325696578 9.293441253986686 0.2240071809186542
0.5353669904624593 13.105801223275208 61263.25742297317 9.755736051560286 0.22721344783355216
0.5546762830894608 13.079774389585975 52292.4681558809 10.237813216854347 0.2304581017857875
0.5743606202724306 13.057818690277628 44718.39155400503 10.740141000518303 0.23373780157612775
0.5944195011583637 13.039494239649782 38318.896929341674 11.263973482627005 0.2370588509342182
0.6148586612586294 13.024475598135075 32891.80486822518 11.810243744959257 0.2404228032897702
0.6356653541894064 13.012412211339658 28283.6597346201 12.379931147324323 0.24383129222952854
0.6568380572882727 13.002997603951613 24363.727932754944 12.97371624704884 0.24728217158648338
0.6783718489494387 12.995971153036301 21021.808525856737 13.592942958950287 0.250780416826308
0.7002626536841351 12.991053913336371 18166.322017116203 14.238801331449254 0.25432857361631156
0.7224999520245686 12.988002128415214 15724.34825332206 14.912481515149345 0.2579286274616233
0.7450894142856693 12.986653894895216 13629.502804055974 15.61500095765563 0.26158035036197474
0.7680132757232689 12.98676074331607 11832.512114931627 16.34765067709114 0.26528588338523373
0.7912605154317155 12.988147981969869 10286.404997079679 17.112035521643126 0.26904979861710976
0.8148378566878561 12.99066661893842 8953.266556417202 17.909611146391395 0.27287452983638066
0.8387224799904053 12.994139514754387 7805.051823049893 18.741724192367084 0.2767609883714117
0.8629061651260109 12.99841678752267 6811.744582604231 19.60975706759945 0.2807099917277085
0.8873883931777846 13.003379992788707 5953.181077499636 20.515778298346707 0.28472773753847513
0.9121487658709679 13.008854345547816 5209.257120773471 21.461582815468805 0.288817240746888
0.9371704953540086 13.014758173168621 4563.556339259075 22.44863084971887 0.29297822800422635
0.9624555755993489 13.020969112373491 4002.951366292331 23.47899653555844 0.2972148865361859
0.9879793325857208 13.027358310242471 3515.213597079483 24.55508001672612 0.3015331292424515
1.0137241097778837 13.033807768998184 3090.5065492656195 25.678795088061147 0.30593437266449447
1.0396897932849212 13.040270036065918 2720.3365355327282 26.85216131630851 0.3104203050559088
1.0658450199851865 13.046598318634341 2397.2630283320636 28.078248967596117 0.3149994547647101
1.0921792862037913 13.052726648590872 2114.7659146862743 29.35907850771229 0.3196720261252356
1.1186797099932446 13.058556246483558 1867.602585276665 30.697476489880017 0.32444318544283096
1.145313466414919 13.064019587789389 1651.353927114892 32.096771384451245 0.3293205047865533
1.1720785478263562 13.06902159020098 1454.5883629667273 33.55898084585437 0.3343021759149957
1.1989370167867428 13.07347871534337 1294.833594322484 35.08861264218059 0.33940152793751177
1.2258847574072094 13.07734687517059 1148.4940694536097 36.68764629367118 0.3446150515440752
1.2528829892390887 13.080501844945518 1015.2339708916588 38.36117790286258 0.349957452244065
1.2799278578972664 13.082942400390264 906.2999195859292 40.111496872471896 0.35542558732720014
1.306972308214466 13.084525275658843 806.3459865843613 41.943983537877635 0.36103348122499834
1.334013165852085 13.085242540875589 718.2617465369306 43.86221842213913 0.36678360270286986
1.3610222101306677 13.085030720580361 640.3095307971103 45.87079638659447 0.3726831791786153
1.3879552812232492 13.08376502107948 571.5385548994244 47.975100189171854 0.37874243579906247
1.4148063793599683 13.08145970983401 510.5725124499803 50.179944279477354 0.38496731031033815
1.4415384080507523 13.078015498138386 456.65897779095866 52.490443283841245 0.3913642204113413
1.4681342737019185 13.073413288433988 408.8179491358594 54.91306940340742 0.3979451392505809
1.494544792820989 13.067538964669493 366.35339125009665 57.454015685689235 0.4047191331838627
1.5207571271589597 13.060388962544536 328.68838091978967 60.11991357201134 0.4116959790923511
1.5467413329641841 13.05189530204073 295.1399019213205 62.91787236514932 0.4188862228927345
1.5724583229790259 13.042007297148833 265.32418595113626 65.85552247619373 0.42630124282547455
1.5978725057109813 13.030666030326994 238.7865562928287 68.9410628343621 0.43395331808041265
1.6229707249438112 13.01784439930892 215.12807229869145 72.1833128911854 0.44185570338749924
1.6477230807148067 13.003497256773274 193.98444140558166 75.59176970459305 0.45002271027630963
1.672071526268712 12.987554915877947 175.14396542313403 79.17628176486487 0.45846817191242867
1.6960083633766652 12.969992362539337 158.2831303244766 82.94723404891315 0.46720615646075825
1.719486744815334 12.950776162150257 143.20138592766006 86.91728010409841 0.4762578375944085
1.742469175846442 12.929821428732875 129.7125149135389 91.09790603277943 0.48563717452511934
1.764949285066829 12.907168953277079 117.60692972347778 95.50340526017564 0.4953668808444759
1.7868764650608744 12.882725331324703 106.76055087357409 100.14725421173047 0.5054637024524941
1.8082134314307303 12.856454466608305 97.035705364445 105.0460878669349 0.5159537486487175
1.8289275218620795 12.828318121521386 88.28915529700676 110.21645849037142 0.5268595729487191
1.8490005943493237 12.798327043831216 80.42131019066083 115.67613310941822 0.5382050205360756
1.8683735625546718 12.766379277647575 73.3469059319227 121.44509290790357 0.5500185516331276
1.8870486721230564 12.732549341456924 66.96796795153962 127.54477912400786 0.5623300160800179
1.9049703684024368 12.696720267857511 61.221217709876235 133.99785639272463 0.5751694819561107
1.9221092157105584 12.658890176272722 56.044226795911136 140.82994408721274 0.5885729730055448
1.9384198847586824 12.618988746158337 51.36291179546498 148.06873186673047 0.6025787543835112
1.953913177737675 12.577130154145227 47.139374407660725 155.74260531680812 0.6172221586390549
1.9685258313051153 12.533189037499417 43.318308744901124 163.88536162795188 0.6325512576762368
1.9822370300069074 12.48717443514039 39.85739119349523 172.530952684731 0.6486081578858821
1.995021238578385 12.439082278474247 36.72596707333486 181.71840158422472 0.6654450671206976
2.0068535008254127 12.388907814120756 33.88461363016095 191.48989146902827 0.6831169444813373
2.017695864902747 12.336618377701743 31.311342924352633 201.89149336691904 0.7016830716505142
2.0275284223526087 12.282223109943388 28.97654870496886 212.9730239244059 0.7212056081047102
2.036331964694092 12.225737760889524 26.856037830842126 224.79035592589992 0.7417560601416202
2.0440709003210014 12.167129294366203 24.929742614111642 237.40435335314842 0.7634104772565603
2.0507248245395537 12.106405218698484 23.176289156798727 250.88211225889103 0.7862520914092889
2.056291975469117 12.043642020627779 21.58309385011033 265.2969634743644 0.8103696840518541
2.0607321748707723 11.9787762836339 20.13250213613194 280.7302373272566 0.8358614629723706
2.0640311073110036 11.911865379970124 18.81208541960948 297.27221940891815 0.8628360399697967
2.066186350720646 11.842946909685137 17.610489352074172 315.02323809110106 0.8914135506587636
2.067170938765295 11.772041579645725 16.515448633044617 334.0925728885337 0.9217192148892496
