M[M_sun], R[km], Lambda[1], P_c[MeV/fm^3], rho_c[fm^-3]
0.24162668629717493 15.618656898711224 2160425.4255784233 3.5677272577965504 0.1711233750220791
0.2536421115832644 15.277340873416556 1723304.5706438897 3.7848054999407177 0.17388799722786358
0.26603823756379136 14.981285953855377 1383061.7163127712 4.011371832573302 0.17666630279629753
0.2788120030928094 14.723593634225578 1116430.5975250683 4.24768278632608 0.1794569873189408
0.2919652363934391 14.498522152480374 905978.0908176589 4.494363302122553 0.1822666126109866
0.30550008388886807 14.301294464986293 738679.8488958253 4.75156749198977 0.18509085570486716
0.31941560474495945 14.128199623420528 605125.1811201123 5.019980094946426 0.18793638932574053
0.3337119160718635 13.976019564137733 497726.02564303693 5.299821764100755 0.1907997700091731
0.3483926517225484 13.842089567821619 411032.4375510301 5.591825044186112 0.19368737401098093
0.3634541579128125 13.724045103577032 340701.2037907732 5.89615224670089 0.19659417265141096
0.3789057807142922 13.62006536946856 283341.0914666159 6.2136694783283035 0.19952788941120278
0.39473684893745453 13.528528769791333 236440.2481720762 6.544637532959018 0.20248476288536435
0.41096007825461495 13.447955656403487 197901.35690739474 6.889752038645668 0.20546839005120815
0.4275665222869578 13.377137654028648 166108.34574059164 7.249721013359737 0.20848189871554335
0.44456050628478494 13.314997077910277 139826.53196242728 7.624808332208349 0.21152091428729203
0.46193973637690644 13.26062717348802 118006.38681295404 8.015953160142542 0.21459144709011188
0.4797028990839753 13.213205349543648 98760.45130451524 8.423864860482453 0.21769521684260354
0.4978577182845716 13.172035109502902 84660.83021185981 8.848991015853677 0.22082978919948554
0.5163951143271056 13.136446383038473 71953.46415711481 9.292191440394166 0.22399838215304607
0.5353117034326684 13.105875437981055 61289.9810262741 9.754357032397078 0.22720400633840346
0.5546160844039338 13.079854515631519 52311.93614130303 10.236297135747106 0.23044801229992282
0.5742962326965214 13.057871929026074 44741.603035626555 10.738492183688273 0.23372721566133942
0.5943510594920388 13.03955025923381 38338.83931520512 11.262168266566977 0.2370475719116074
0.6147857887151571 13.024525671540136 32910.406777126394 11.808271464862017 0.2404108085361023
0.6355853883783686 13.012471169110585 28301.191677869178 12.377780473013054 0.24381855792734508
0.6567561737559474 13.003053273782614 24377.968765365324 12.971397054790216 0.24726891603456264
0.6782859040892787 12.995998929551915 21034.262101325166 13.590422314734479 0.25076638255463535
0.7001718280125185 12.99106797157079 18041.20640354693 14.236065719407293 0.2543137327874723
0.7224037163622943 12.98799854454169 15734.68807194023 14.909516550967625 0.25791295057834285
0.7449891884812698 12.986653893739426 13638.360114974455 15.6118202626247 0.261564092758815
0.7679066374013057 12.986751801834195 11839.151198527501 16.344211176649015 0.26526873833818626
0.7911486146900703 12.988130559051333 10293.337588347173 17.108319952884536 0.2690317310644339
0.814720119550543 12.990666101500418 8959.223626397608 17.905601101869934 0.27285550246185825
0.8386009719970278 12.994113867797427 7809.484998316568 18.737437458492934 0.2767412930472757
0.8627803052196227 12.998387653250035 6816.980201503391 19.60513790468085 0.28068926845684633
0.8872518291662055 13.003333979551899 5957.094325507049 20.510804473477993 0.2847059414666967
0.9120118003372227 13.008827682025878 5213.073676721883 21.456230573246096 0.2887943239956301
0.9370272954377923 13.01471738130033 4566.848938520993 22.44292248604998 0.2929545187113952
0.9623027885504958 13.020921999713089 4006.0992145487508 23.472860412267707 0.29718996591628233
0.9878261323394293 13.027313279528697 3517.782067818613 24.54848725039652 0.30150693931155714
1.0135659693446863 13.03377407506636 3093.3640944410863 25.67177119894553 0.30590726612367264
1.0395276551349057 13.04022410602067 2722.542714990989 26.84462043318623 0.3103918169573562
1.0656745299186983 13.046552357215882 2399.2087789502325 28.070155790359692 0.3149695145829294
1.0920055755792955 13.052680536345791 2116.548247467455 29.350461720681594 0.3196410109826593
1.1185007748099525 13.05852128418496 1869.338539899457 30.688233214060805 0.32441057918842936
1.1451291171503948 13.063974435641352 1652.7493864994033 32.08693178870575 0.32928669690473295
1.1718892077643919 13.06899377913319 1462.7488052801307 33.548429509232015 0.33426661682269004
1.198743918879406 13.07345024324446 1295.9754088919485 35.07729976273913 0.3393641193121274
1.2256863904141515 13.077316291534581 1149.5648690231026 36.67560470135403 0.3445762072312585
1.252680531101445 13.080487227125067 1020.6213790799095 38.34832502000545 0.3499168881472623
1.2797196812409906 13.082932649457872 907.0887124871576 40.09775440760652 0.35538307273196756
1.306761165892153 13.084517653943323 803.724554262364 41.92935065508996 0.3609892438034592
1.3337966843271503 13.085229398101918 718.8363792692879 43.84653105725359 0.36673697174152237
1.3608033468068634 13.085038985627452 640.8929203349661 45.854087410775946 0.37263459174667785
1.3877325346293772 13.083784653531312 572.0581547665307 47.95729823123987 0.378691765680191
1.4145877342662496 13.081497208846265 511.0464370648219 50.16085412880393 0.3849138176043731
1.4413090933334103 13.078050619645756 457.05210682886525 52.470095246397044 0.3913083523242703
1.4679017822621108 13.073458363500912 409.20040004658097 54.89137337742653 0.39788673745058556
1.4943102867394262 13.06759629010041 366.70916164275 57.430874270900944 0.4046580270990231
1.520520723355911 13.060459059505131 328.98813447596183 60.09522141617002 0.41163198490544234
1.5465032871881776 13.051979805058954 295.4277386917013 62.89151544535904 0.4188191424364002
1.5722186904902995 13.042106906993089 265.59014957257676 65.82737730776547 0.4262308623670877
1.5976423720312685 13.030788615463589 239.0392629727503 68.91099559905896 0.43387940698467853
1.622722522837666 13.017948912247752 215.33832193803514 72.15117847570957 0.44177801264343136
1.6474816417415599 13.00364547251517 194.1936067817114 75.55741063903241 0.44994097087359286
1.6718306959854954 12.98772043835701 175.31614554400377 79.13970646701233 0.4583828421609873
1.6957685642097788 12.970181709793676 158.4431466884557 82.90808565746661 0.46711619357123274
1.719233078132305 12.950948981853355 143.35454933197232 86.8753570869307 0.4761629025870405
1.742235446101434 12.930055832156782 129.838556930938 91.05319093999611 0.4855376999027104
1.7647168124145698 12.907417351754447 117.73830659280539 95.45546732040742 0.4952616943006026
1.7866447326909036 12.88299399812717 106.87491833191362 100.09605168358979 0.5053532096181252
1.8079839361129826 12.856750839592035 97.13302337182436 104.99135523103773 0.5158375237816658
1.8286976922623095 12.82862892370678 88.37606682671584 110.15789595793778 0.5267371176821282
1.8487782402468296 12.798676178420676 80.50289895608692 115.61320562665865 0.5380750340712992
1.8681670731281275 12.766784757892099 73.41717684737053 121.37767580868389 0.549881315124727
1.886840748966937 12.732949462893842 67.04243295667959 127.47260936432654 0.562185352704964
1.9047663182337278 12.697147935111337 61.289371906271654 133.92055455684024 0.5750168641300679
1.9219120624950607 12.659349613635312 56.10204728721928 140.7469160331637 0.5884112027822841
1.938229489335307 12.619477271751204 51.41823145954109 147.97948036625598 0.6024070746818094
1.9523242371095417 12.5788915705782 47.46150897406461 155.8869850340897 0.8798572302724633
1.9593682160001828 12.536895230961406 44.81339920639973 165.30163853465928 1.2855200226199714
1.9598458924347615 12.489261561180125 43.07029006171275 176.36979230835243 1.6830270157305147
