M[M_sun], R[km], Lambda[1], P_c[MeV/fm^3], rho_c[fm^-3]
0.24162668629717493 15.618656898711224 2160425.4255784233 3.5677272577965504 0.1711233750220791
0.2536419642502375 15.277380635292163 1723122.845368584 3.784802719360197 0.17388796256926878
0.2660379064677492 14.981277783719927 1383060.4803453868 4.011365987265578 0.17666623215920332
0.27881147233372117 14.72362686608291 1116515.7084133304 4.247673678563596 0.17945688168262108
0.29196544410737096 14.498472172685164 905993.406003619 4.494350692939965 0.18226647220481204
0.3054995710534727 14.301298829936393 738706.064479807 4.751550953281085 0.18509067705524876
0.3194148176670169 14.128213813960858 594948.6245957222 5.0199595049145405 0.18793617569621268
0.3337109502259832 13.976062351462295 497711.02271142625 5.29979658070764 0.19079951645419124
0.34839069969273334 13.842059145621695 411047.3014660971 5.591795204587221 0.1936870853046531
0.3634517460426208 13.724069445695159 340701.72217089945 5.896117080557909 0.19659384236355412
0.3789043278873297 13.620069861801012 283355.3265834563 6.213628560129697 0.19952751628650023
0.39473437712190784 13.528538323730148 236448.84421311025 6.544590905220341 0.20248435402308715
0.4109569678674858 13.4479550819304 197909.58531043737 6.889698801288644 0.20546793665953555
0.4275645877370215 13.377116607575259 166112.89623857956 7.249660666871515 0.20848139948451175
0.44455725156929193 13.315012278559651 139833.52447637866 7.624741043409751 0.21152037862518863
0.4619367402527684 13.260629922326146 118002.08104712654 8.015877755446889 0.21459086377382894
0.4796997693378231 13.213206795630356 99834.5305233948 8.423780751968348 0.217694584464159
0.4978540357057727 13.17204687793268 84664.50196405243 8.848898513666303 0.22082911944412578
0.5163897131118413 13.136464410344852 71955.65324462164 9.292089047680445 0.22399766130195803
0.5353067206274686 13.105886700863772 61292.88094859436 9.754244054996237 0.22720323283531488
0.5546111576778398 13.079845167824512 52312.90363434116 10.236172837322124 0.2304471845209014
0.5742914110754552 13.057875260115845 44743.941669096144 10.73835710432749 0.23372634841000084
0.5943452364302071 13.039558142980685 38337.69662784897 11.262020375047378 0.23704664788271668
0.614780002967794 13.024527063061544 32910.888850195384 11.808109887625639 0.24040982587691945
0.6355791287101353 13.012450082586367 28302.751024812686 12.377604282007697 0.24381751468732848
0.656749379312202 13.003033849725838 24378.342697901175 12.97120705910528 0.24726783009713896
0.6782790374881735 12.995986095428051 21035.070899561048 13.590215816639773 0.2507652328285682
0.7001643208573254 12.99105800550867 18042.395083143885 14.235841611842112 0.2543125169929936
0.7223959271989869 12.98799926205693 15735.478661977588 14.909273655746723 0.2579116662997499
0.7449809558003625 12.98665444107561 13639.12406491406 15.611559695580013 0.2615627609129235
0.7678972307548682 12.986749914693053 11758.622866459998 16.343929409515177 0.2652673337996937
0.7911400536528608 12.988125443496312 10293.066569833032 17.108015571724753 0.26903025096192595
0.8147131880344196 12.990656299144048 8960.055968633033 17.905272599013244 0.27285394373929234
0.8385907127427763 12.994121410582208 7810.127433997421 18.737086290901754 0.2767396796138932
0.8627687057762635 12.998392363344122 6817.388321050041 19.604759506827293 0.2806875708243205
0.8872411510757467 13.003337039279762 5958.15740713222 20.51039702440092 0.284704155961665
0.9119991590039451 13.008823896646705 5213.335973407569 21.455792127300207 0.28879244669705806
0.9370148335433676 13.014720142911887 4567.1555086424305 22.44245486951016 0.29295257649850925
0.9622910281601393 13.020918722947378 4006.410972736964 23.472357757586526 0.2971879244862688
0.9878130221939556 13.027315583300494 3518.126145702807 24.547947191976622 0.3015047939158327
1.0135527014112171 13.033766092767292 3093.5469298111857 25.671195827104462 0.3059050456529276
1.0395136829676064 13.040219684070259 2722.6473804627294 26.844002714792804 0.3103894833284981
1.0656614419726282 13.046554823512208 2399.3418294764806 28.069492834342004 0.3149670620203446
1.0919898059004671 13.052675950050665 2116.8105766952053 29.349755876447226 0.31963847037680615
1.118486097405716 13.058516439272948 1869.4548522222915 30.687476055706217 0.3244079082632709
1.1451138407849566 13.063969819370849 1652.8603773804803 32.08612578718021 0.32928392756287916
1.1718751151053146 13.068988029935838 1462.878971565385 33.54756521159837 0.3342637040505519
1.1987267579086518 13.07344264474813 1296.0621383108746 35.076373090383164 0.3393610550578677
1.2256678057659876 13.077320501844136 1149.544479665429 36.674618343095176 0.3445730253922004
1.2526641470691586 13.080480388273665 1020.705392445169 38.34726762901696 0.3499135385644139
1.2797029559465782 13.082926287613956 907.1742362794229 40.09662873995662 0.35537959029232
1.306744250056823 13.084521125326622 807.1726781892075 41.92815205845212 0.3609856202642364
1.3337793496923833 13.085232539673724 718.9220549926309 43.84524609556892 0.3667331521708623
1.3607850300071767 13.085040934404057 640.9531806024404 45.852718776099884 0.3726306119429548
1.387714445087521 13.083783595514294 572.1085279689717 47.95584007868705 0.37868761530732375
1.414569112419345 13.081497470213767 511.10210447070943 50.15929047203437 0.38490943606578626
1.4412907460992135 13.078053540127527 457.09786386846156 52.46842856730432 0.3913037762479324
1.467883955884266 13.073460035675318 409.2469549987525 54.88959629740489 0.39788195387076813
1.4942912000356776 13.067600853870506 366.73861107754743 57.42897881373007 0.4046530220477869
1.5205015122567755 13.060463817594837 329.0152274129068 60.09319895451535 0.41162674333034555
1.5464838327426094 13.051987195908337 295.4519409658798 62.88935664193338 0.41881364811004945
1.5721997151547766 13.042115250013907 265.6164187930461 65.82507205056082 0.4262250977876652
1.5976224073686764 13.03079812534049 239.05156612170128 68.90853292997674 0.4338733532664546
1.6227033382557667 13.017957448299343 215.35531591021615 72.14854651184652 0.4417716493961822
1.6474611766771932 13.003658463405035 194.2062202331803 75.5545964857753 0.4499342760696849
1.6718102869533258 12.987735971789538 175.3315281724693 79.13671081327318 0.4583758533350864
1.6957484167426442 12.970196562031674 158.45453029250382 82.9048792818956 0.46710882532950904
1.719213313031012 12.950962641348966 143.37337370871765 86.87192348735897 0.47615512717337366
1.742218311161981 12.930074328926972 129.86102929208838 91.04952868708604 0.48552955273801235
1.7646966334360823 12.907438751345108 117.74642592473573 95.45154114196038 0.49525307938841673
1.7866250705057374 12.883015899544972 106.88234853168602 100.0918581612058 0.5053441601787514
1.8079660050370767 12.856773965254304 97.14224560883346 104.9868726235462 0.5158280049552616
1.8286785657277544 12.828656015481691 88.38177905963691 110.15308158899661 0.5267270211877105
1.8487607690391612 12.798703939034898 80.5107489478363 115.6080519463458 0.5380643883461712
1.868149795447465 12.76681420443259 73.42522892273952 121.37215447944435 0.5498700757217367
1.886823406585015 12.732981893539609 67.04933924345359 127.46668939404809 0.5621734713718514
1.9047494163831917 12.697182917476844 61.2928186462591 133.91422378822904 0.5750043652271432
1.9218959840764485 12.659387728126516 56.10780682010075 140.740116366945 0.5883979544467076
1.938214679834433 12.619516583022142 51.423446164461694 147.97217109231468 0.6023930149297243
1.9537163628974268 12.577700662900176 47.19377384474852 155.63903870160578 0.6170258895360822
1.968337435578882 12.533786468371986 43.363289653482134 163.7741503005836 0.6323434969242483
1.9820599893717032 12.487812628586118 39.90023607670056 172.41109526124745 0.6483868542583593
1.9948550072954547 12.439752747023098 36.76701162319249 181.5894523131703 0.6652101842354892
2.0066912694742043 12.389600387859762 33.924664203080745 191.3510129616226 0.682867280922977
2.0175523153241244 12.337363112172529 31.346621578989076 201.74176188506436 0.701417313040015
2.0273955804294514 12.282999697253361 29.008201256252605 212.81179696050336 0.7209235511772655
2.0362145117002806 12.22655748167537 26.885435682562456 224.61614116284463 0.7414549257762139
2.043966843125556 12.16798708744042 24.956190003762735 237.21630205056368 0.7630898325109664
2.0506353836034843 12.107307213659725 23.200886811134623 250.67873424425773 0.7859096766431498
2.0562112655538347 12.044563344317943 21.60447519060433 265.07664489527014 0.8100031389053506
2.060675630290773 11.979759501176424 20.15308810370936 280.4919114562471 0.8354705530740545
2.0639963678592124 11.912902607270485 18.83190990054466 297.0136533134307 0.8624171165649458
2.0661611436569887 11.84401366295711 17.627627390591098 314.7423554530713 0.8909639128006409
2.0671652186808918 11.773149332228842 16.532368365340105 333.7875211219804 0.9212374099913418
