M[M_sun], R[km], Lambda[1], P_c[MeV/fm^3], rho_c[fm^-3]
0.24162668629717493 15.618656898711224 2160425.4255784233 3.5677272577965504 0.1711233750220791
0.25364153325032135 15.277363999421018 1723340.2328972695 3.7847952544815437 0.17388786952315755
0.2660381271614655 14.981251110856375 1383001.6608990498 4.011350294704732 0.1766660425238666
0.278810912345778 14.723580956052219 1116503.69907383 4.247649227523756 0.17945659808740588
0.2919631533293547 14.498542492490738 906046.597908437 4.494316841917964 0.18226609526582563
0.3054978844770478 14.3013082436914 738762.5156265447 4.751506553006849 0.18509019744754782
0.31941175462310833 14.128253966253688 605193.8547397904 5.019904228441895 0.18793560218147423
0.33370750506989166 13.976053861237421 497790.48669374065 5.299728972912729 0.19079883575587808
0.3483869285741394 13.842140455685897 411080.5980106193 5.591715096791106 0.19368631023968877
0.363447678069285 13.724095087049907 335788.5206636434 5.896022673213455 0.1965929556697963
0.378899283685486 13.620100728442146 283362.0233684898 6.213518710955222 0.19952651459429602
0.39472594170697217 13.528623145942053 236455.2943301936 6.544465728387781 0.2024832563913712
0.4109510029324425 13.447999897561276 197918.63247845724 6.8895558805167605 0.20546671948626782
0.42755715370122593 13.37714740703205 166120.93435634035 7.249498661231281 0.2084800592533686
0.4445492883676553 13.315017867702831 139836.03301203428 7.624560400778685 0.21151894059369253
0.46192745135197055 13.26066348056852 118013.43433404953 8.01567532532069 0.21458929781314506
0.47968957750393515 13.213241036737852 99841.07625334471 8.423554956096854 0.2176928867948622
0.497843214986833 13.17206506315552 84673.17791950474 8.848650184684578 0.2208273214361953
0.5163784570530794 13.136480653141419 71962.61036696522 9.291814167295872 0.22399572612691385
0.5352949491655633 13.105900312993978 61300.19316240707 9.753940759773785 0.22720115631567844
0.5545973174495074 13.079888874752948 52319.456914116774 10.23583915061116 0.230444962297578
0.5742757185319222 13.05792755962718 44747.47282168473 10.737994476041111 0.23372402022407412
0.5943303718039904 13.039585070056635 38344.63831294217 11.261623352424605 0.23704416727818495
0.6147640282557377 13.024552233272779 32915.288675599506 11.807676125667221 0.24040718788049642
0.6355618495532921 13.01246037119193 28306.72782679381 12.377131289433843 0.24381471406320124
0.6567305131641673 13.003045064327877 24381.177847950752 12.97069700794498 0.24726491485386298
0.6782598357372207 12.995992762664157 21037.487669892806 13.589661464973227 0.25076214634700855
0.7001441684958949 12.991073436358207 18181.270737013416 14.23523998787159 0.2543092531535913
0.7223734441211915 12.988013432652036 15736.925394312186 14.908621596753695 0.25790821861805824
0.7449575898784728 12.986646676643776 13640.620032099048 15.610860197009695 0.2615591855402278
0.7678749533534476 12.986757794267467 11841.618377234312 16.34317300000096 0.2652635632879794
0.7911154653015455 12.98812972644356 10294.100260059024 17.107198455717302 0.2690262776034804
0.8146856269685958 12.99065726891328 8961.130705647027 17.90439072935265 0.2728497593308095
0.838564137029229 12.99411828096741 7811.246667562323 18.736143578745043 0.27673534833930546
0.8627412131378054 12.998387737626778 6818.412538208651 19.603743696462868 0.2806830135238534
0.8872118716630346 13.003322537493027 5958.73817699482 20.509303227706482 0.2846993627749541
0.911969634464081 13.00881413874405 5214.174572066438 21.45461512146647 0.2887874070989236
0.936984018680116 13.014707327650614 4567.763372744061 22.4411995570386 0.29294736264516896
0.9622551270531343 13.02092831284271 4006.8613067116494 23.47100838776719 0.29718244429449564
0.987779693706177 13.027301748946305 3518.7148552076505 24.54649741473506 0.3014990346390935
1.0135188486996862 13.033763195316432 3094.0335117068985 25.669651253695918 0.30589908484667594
1.0394769643232489 13.040217105178955 2723.266307137217 26.84234446577432 0.3103832187623064
1.0656274455602794 13.046549696307325 2399.68688077703 28.06771314913252 0.31496047819088824
1.0919520940734209 13.052674268220404 2117.147873708666 29.347861061749203 0.31963165020731543
1.1184467344536928 13.058505302502432 1869.8103414598752 30.685443493541786 0.32440073826852917
1.1450732384529185 13.063965252987213 1653.0998001556707 32.08396211047813 0.3292764933828444
1.171832668097331 13.068982537770918 1463.114075092623 33.5452450455987 0.3342558848519139
1.1986838109577174 13.07343851072884 1296.2822525836357 35.073885486869514 0.33935282922743887
1.2256266425522933 13.077307355791724 1149.7830447716747 36.67197051977705 0.34456448392405037
1.2526183594333127 13.080478565127585 1020.8860134875513 38.344429127552424 0.34990454681403566
1.2796570786280919 13.082923281440515 907.3673130228995 40.09360695853156 0.35537024191010286
1.306697800620367 13.084516688891748 807.3573610954493 41.92493450885013 0.360975893124333
1.3337307725393692 13.08523590583716 719.1094072806892 43.8417967115916 0.36672289881779163
1.3607363301562554 13.08504057854598 641.0774647100441 45.84904478403813 0.37261992847311337
1.3876651535842195 13.083786923196282 572.2219498909938 47.951925789259036 0.37867647397605153
1.4145182310729423 13.081503750484563 511.1550073492502 50.15509297370802 0.38489767421290194
1.441239720525638 13.078061204963166 457.19547743692004 52.46395452217377 0.3912914921962838
1.4678328111849508 13.07347083865298 409.32360806934673 54.88482589941407 0.39786911281731424
1.4942389654111596 13.06761332466242 366.80286875822014 57.423890652728936 0.40463958649941373
1.5204496509956535 13.06048024882597 329.0937185067586 60.08776987266271 0.4116126728829916
1.5464319498257084 13.052005129113741 295.52218892054634 62.88356157577414 0.418798899205946
1.5721468021228817 13.0421368870044 265.66907404833654 65.81888385718155 0.4262096234483401
1.5975696261405734 13.030823081394004 239.09288596369277 68.90192219545177 0.4338571027988801
1.6226568578597123 13.018020457410042 215.4027724841766 72.14148133996339 0.44175456806912394
1.6474081716647564 13.003692202646759 194.2523303851781 75.54704226478343 0.4499163047569675
1.6717578724275173 12.987773099024439 175.36448109990963 79.12866939206049 0.45835709279139697
1.6956970061489964 12.970238792594579 158.49172234301582 82.89627222494616 0.46708904633770704
1.7191591921116285 12.95100529798234 143.40021097266575 86.86270649991071 0.4761342552316475
1.7421645288382641 12.930125369044491 129.88670451598202 91.03969793218292 0.4855076829269237
1.7646456770741084 12.907493530783071 117.76962663593096 95.44100194340939 0.49522995403350717
1.7865748251628895 12.883076285875019 106.91006518523913 100.08060134306045 0.5053198684535569
1.8079153430125332 12.856838504351925 97.16317427699529 104.9748398290073 0.5158024532908365
1.8286290196406068 12.828723852215091 88.40167361967241 110.14015826912872 0.526699918938486
1.8487117290583508 12.798780015722075 80.52762003262875 115.59421783565126 0.5380358118472609
1.868102348055547 12.766896628526853 73.44219710927761 121.35733351618967 0.5498399056718273
1.8867769513202397 12.733070526809282 67.06162905577023 127.45079839162395 0.5621415782567826
1.9047040794063317 12.697277460986042 61.308140628278736 133.89723011406687 0.574970814437858
1.9218513835776245 12.65948936582287 56.11922564202623 140.72186407721208 0.5883623920453129
1.938171682488405 12.619622197576236 51.43311547940469 147.95255091733395 0.6023552745469842
1.9536761915199228 12.57781482745098 47.20266196339408 155.6179952267696 0.616986010044786
1.968297315416182 12.533908721097719 43.36720516783043 163.75148992192302 0.6323010668601171
1.9820241217142076 12.48793954988849 39.91146195937737 172.3867422520691 0.6483418890896144
1.9948202527126377 12.439887354745284 36.772578852065855 181.56325229552164 0.6651624605400582
2.006660548158893 12.389743582272173 33.93150835811933 191.32279585113326 0.682816554685037
2.017522540457976 12.337514369615223 31.353203953945485 201.7113400623409 0.7013633173055462
2.0273691390468738 12.283162791191996 29.01459375443699 212.77903992005605 0.7208662446947944
2.0361895358624933 12.226724684943227 26.89080428961144 224.58074581944334 0.741393744082501
2.0439457209680842 12.168162707540509 24.961180085992478 237.17809601769534 0.7630246877152599
2.0506169147802824 12.107490311714212 23.205442041246673 250.63735867361916 0.7858399267835418
2.0561964778346318 12.04475494173293 21.609601730300263 265.0318745350936 0.8099286384249138
2.06066249870853 11.979960367228252 20.15688804002897 280.4434932592813 0.8353911359617939
2.063987766084324 11.913110179875769 18.836046385275026 296.96112391278257 0.8623320095236192
2.0661561507204693 11.844230728862225 17.631532117539543 314.68529319539715 0.8908725673493869
2.067163027977921 11.77337382597807 16.53503235351412 333.725549782183 0.9211395312103675
