M[M_sun], R[km], Lambda[1], P_c[MeV/fm^3], rho_c[fm^-3]
0.24162668629717493 15.618656898711224 2160425.4255784233 3.5677272577965504 0.1711233750220791
0.2536436732342517 15.27730235708541 1723252.5428992347 3.78481371243815 0.17388809959268223
0.2660380148179903 14.981296189340313 1382837.8572259697 4.011389096836355 0.17666651142472783
0.27881407199128816 14.723549796730325 1116482.7164402262 4.247709686384695 0.17945729931908322
0.2919674959516655 14.498457053860202 905944.1472711567 4.494400543806145 0.18226702730577674
0.3055038173507365 14.301237253101716 738676.3363932945 4.751616339768975 0.18509138335410996
0.3194189557908548 14.128156976797095 605095.2167095302 5.020040908594056 0.18793702029080658
0.33371669619536903 13.97595463090733 497706.6490309523 5.2998961446039035 0.19080051889742022
0.34839674217667455 13.84206260600733 411027.30175853526 5.59191317720051 0.1936882267221398
0.3634588015162287 13.724028408564177 340658.1016620815 5.89625611217181 0.1965951481778941
0.37891181592115497 13.620027849600017 283322.040486012 6.213790333091211 0.1995289914611219
0.3947426192248751 13.528496694520536 236425.52633395977 6.544775251482008 0.20248597049076236
0.4109669501230901 13.447927657700145 197880.6804412834 6.889909279458843 0.2054697291799567
0.42757406396280884 13.37709267700256 166091.1661714027 7.249899251886354 0.20848337323719543
0.44456960455038835 13.314953576680974 139816.68893461613 7.625007075766283 0.21152249641380488
0.46194975546062234 13.260594629707802 117990.22833462886 8.01617587513417 0.21459316997062947
0.47971340757121445 13.21317848375326 99828.37931297474 8.424113283476434 0.2176970846362293
0.4978697575639735 13.172002952392317 84652.17957137793 8.849264230835649 0.22083176739269078
0.5164067962471882 13.136431837589921 71944.43879089024 9.292493868619932 0.22400051126660966
0.5353248100332251 13.105860946486942 61282.740717506626 9.754690724251558 0.22720629096947262
0.554630467246668 13.079839741299628 52305.62319245788 10.236664266198215 0.23045045724550914
0.5743117912034569 13.057877024470324 44735.52353373783 10.738891157535168 0.23372977719702312
0.5943661312983434 13.039549036233563 38330.69548198787 11.262605083486525 0.2370503011516255
0.6148035955887378 13.024514815312314 32905.35249063497 11.80874870515587 0.24041371095334677
0.6356041772602681 13.012440962006117 28297.31747014324 12.378300877952666 0.24382163928360812
0.6567763504996861 13.00302247205631 24374.24266437566 12.971958234607209 0.24727212350827396
0.6783065436732013 12.995980658406673 21030.883897876585 13.59103223785795 0.25076977844317866
0.7001937312963403 12.9910683060429 18175.099908229564 14.236727655880875 0.2543173238251473
0.7224265775065567 12.987993918634723 15732.392226720774 14.910233980930373 0.2579167439009932
0.7450132842229752 12.986653521221832 13636.218050779187 15.612589890245122 0.2615680265846964
0.7679321655759023 12.98676027991655 11837.9929213498 16.345043423649138 0.2652728868807471
0.7911755289306972 12.988140340598765 10290.397393856616 17.10921899579338 0.26903610280565815
0.8147500312691419 12.990664355028958 8957.902130888859 17.906571394100894 0.2728601064291149
0.8386302063844375 12.994120102003802 7809.022677321359 18.738474696556942 0.2767460586194984
0.8628090409476986 12.998405453655742 6815.720929539636 19.606255574275636 0.28069428273544084
0.8872841758731235 13.00333842602001 5956.349523277661 20.51200795345653 0.28471121530256516
0.9120413725506069 13.00884176914534 5181.1883627897705 21.45752561077292 0.28879986897129395
0.9370624077675149 13.014731162984807 4566.073528528498 22.444303686711848 0.2929602554326082
0.9623384413022316 13.0209326733701 4005.2048670067734 23.474345107850883 0.29719599570619165
0.9878634367374035 13.027320033124472 3517.231291364528 24.550082428588478 0.30151327619724716
1.0136041422894884 13.03377859553395 3092.436461310444 25.673470685351123 0.3059138247690144
1.039567078603976 13.040237225447664 2721.883333831669 26.8464450026953 0.310398709852412
1.065716514338192 13.04656269885378 2398.816151834453 28.07211398290285 0.3149767587886339
1.0920465152467203 13.052685684407026 2116.059514560161 29.352546596497277 0.3196485152554755
1.118543759653696 13.058529532910885 1868.9453943071949 30.690469662288077 0.3244184684044693
1.1451734840394543 13.06398305802255 1652.448369906536 32.089312510523975 0.3292948768304087
1.171935167871718 13.069002940397548 1462.3726154953695 33.550982427665865 0.33427522042102903
1.198791104600909 13.073460352690878 1295.6753937575304 35.08003692573506 0.3393731703681084
1.2257352940454629 13.077327851560897 1149.2963056212018 36.678518166461615 0.34458560561870083
1.2527298367777429 13.080485859830965 1020.4047731602072 38.35144830488363 0.34992678202906424
1.2797700967211296 13.082935644845373 906.8939730251197 40.101079371109684 0.3553933590582478
1.3068121797812058 13.084519625755362 806.8694576544732 41.93289103989008 0.3609999469230759
1.3338496448597248 13.085237840990027 718.7881859142536 43.850326552771655 0.36674825391708776
1.3608562064670329 13.08503223148479 640.7598473665975 45.85813006487899 0.3726463472356565
1.3877855241309751 13.083779495983963 571.937142260158 47.961605309475715 0.37870402501520534
1.4146422349965118 13.081492356138227 510.9275999321578 50.16547285440055 0.3849267597824889
1.4413638635873696 13.078040122691403 456.96576765905616 52.47501828795329 0.3913218691518795
1.4679579596915202 13.073447308949827 409.1195556223336 54.89662253121842 0.39790086722855356
1.4943670068653072 13.067583541986352 366.6250220350606 57.43647309861324 0.40467281108886644
1.5205782294160375 13.060441086350872 328.91616149296846 60.10119540294643 0.41164746757244064
1.546560923159892 13.051959400543735 295.35713930252047 62.89789217362133 0.41883537171680013
1.572277306314908 13.042082450843068 265.5300958245621 65.83418664855847 0.42624788996198537
1.5977007477795377 13.030758975991974 238.98315968526364 68.91826992288995 0.43389728868346633
1.6227880806159733 13.017942835002424 215.28869452570225 72.15895288509458 0.441796808680044
1.647539743778719 13.00361058068941 194.14549434420974 75.56572322523427 0.44996074631917277
1.6718884569330532 12.98767942551151 175.27433320297732 79.1485551946096 0.4584034861412357
1.6958261018424736 12.970138573336504 158.40535743756675 82.9175568482218 0.4671379583400036
1.7192914644165995 12.950898434219951 143.320906040306 86.88549948945814 0.47618587013860814
1.7422927789426497 12.929997928185042 129.809565959313 91.06400877624108 0.4855617656064531
1.7647732818493063 12.9073565201873 117.71011483290297 95.46706478781631 0.4952871417336863
1.7867017947604868 12.882926782066694 106.84898893783965 100.10843887995459 0.5053799406504772
1.8080394555880979 12.856678326017576 97.10827313460803 105.00459638181115 0.5158656413930877
1.828752310486495 12.828551302383028 88.35325430522494 110.17207128795495 0.5267667711158066
1.8488322050710253 12.798593479420212 80.48517985048856 115.62842913181267 0.5381064805797195
1.8682202476604737 12.766692174156502 73.39722621377071 121.39398535520522 0.5499145153846624
1.8868916230804782 12.732850575623107 67.02434225263758 127.49009650724004 0.5622204492612589
1.9048174978869665 12.697043559723788 61.27195698258538 133.93925520941573 0.575053785024753
1.921959922077854 12.659237486844997 56.089234889325446 140.76700183078717 0.5884503375542974
1.9382749507574937 12.61935889664895 51.40489665146938 148.00107157374626 0.6024486064436465
1.9537758970143984 12.577524690970973 47.17466061138152 155.6700358341664 0.6170846322051412
1.9683934158487644 12.533606882200154 43.350189974779354 163.80744314769436 0.632405705307568
1.9821139849997942 12.487617172299187 39.88900234666161 172.44696769692067 0.6484530887886188
1.994905487568294 12.43955182834387 36.755449691934224 181.62804561236132 0.665280482465092
2.006743963114708 12.389402720373425 33.91115436761721 191.39257769802344 0.6829420023480988
2.017595750621704 12.337140117754602 31.334767122173723 201.78657446775176 0.7014968509538884
2.0274347254003913 12.282766242278383 28.99763435866218 212.86004965185492 0.7210079663739183
2.0362490115079765 12.22631207438981 26.875628395806523 224.6682804920776 0.7415450498480544
2.043998676764445 12.16772942432902 24.948418400387084 237.27258198511706 0.7631857949693427
2.050662373354535 12.10703716987167 23.192891401508195 250.73968347680642 0.7860124232723293
2.0562400088299513 12.044304277369125 21.598280056293888 265.14259528368484 0.8101128841833095
2.060692105526298 11.979469109932118 20.146758103196934 280.56323580957775 0.8355875416141145
2.064002413197018 11.912582892123307 18.825594581425786 297.0910343269387 0.862542487672045
2.0661686073022736 11.843695912978806 17.62247147436209 314.82641436500893 0.8910984745855376
2.0671664791847975 11.772816326076786 16.527402086670865 333.8788122352802 0.9213815970125162
