M[M_sun], R[km], Lambda[1], P_c[MeV/fm^3], rho_c[fm^-3]
0.24162668629717493 15.618656898711224 2160425.4255784233 3.5677272577965504 0.1711233750220791
0.25364194614302127 15.277337089684996 1723256.4062653822 3.7848032463975887 0.17388796913853563
0.26603799276035117 14.981276035387005 1383071.593187604 4.011367095197683 0.17666624554790897
0.27881151862808445 14.723609011991808 1116471.4611116704 4.2476754048676275 0.1794569017051464
0.2919654347833119 14.498466071018296 905965.6999944857 4.494353082909423 0.18226649881767662
0.3054996245121119 14.301306752150246 738705.6707954127 4.7515540880594465 0.18509071091683788
0.31941302237631813 14.128260642735345 605175.6120637951 5.019963407586936 0.18793621618794507
0.3337111934784948 13.976031488639457 497725.07027512166 5.299801354012263 0.19079956451344843
0.34839131278636837 13.84205303159684 404793.80225568824 5.591800860435197 0.1936871400265381
0.36345232464278676 13.724071608490691 340696.0801233573 5.896123746005505 0.1965939049668485
0.3789044146350345 13.620077706199162 283350.7557164804 6.213636315828257 0.19952758700913262
0.39473472936955356 13.528537176595 236441.3753806448 6.544599743110852 0.20248443151944753
0.4109581511726462 13.447943376029649 197908.10893022764 6.889708891972216 0.20546802259603125
0.4275645997615986 13.3771207834571 166104.8467602525 7.24967210502556 0.20848149410942882
0.4445577829884559 13.315011098161907 139834.86550183306 7.624753797414355 0.2115204801552661
0.46193761882964174 13.260640585097548 118007.24853906641 8.01589204774374 0.21459097433629992
0.47969946105398414 13.213224091044365 99834.3285446102 8.423796693991623 0.2176947043258875
0.49785478977579517 13.172045474423058 84664.04071914562 8.848916046630354 0.2208292463902768
0.516391073750433 13.13645206342569 71958.06915603686 9.292108455298518 0.2239977979327992
0.5353076152945738 13.105884694255854 61290.760385709254 9.754265468838906 0.22720337944581678
0.5546122190901598 13.07984551696981 52311.94119038596 10.236196396953916 0.2304473414188585
0.574292338064992 13.057873203217861 44742.99185844873 10.738382707379413 0.23372651278952503
0.5943476777592888 13.039564143142776 38336.900047419076 11.262048406516387 0.2370468230238423
0.6147812003569765 13.024527855215453 32911.16353621579 11.808140513084785 0.2404100121308085
0.635580397523932 13.012464499305922 28303.383692891515 12.377637677358784 0.2438177124236803
0.6567505633695326 13.003031584255066 24378.512925081726 12.971243070993104 0.24726803592632238
0.6782804540003806 12.995984913616335 21035.106505050553 13.590254956389765 0.25076545074821
0.7001657446262827 12.991063747645352 18042.227420531784 14.235884089284845 0.25431274743519355
0.7223972105546655 12.988004642568287 15735.302642744577 14.90931969419345 0.25791190972237205
0.7449819651554188 12.986649246380866 13638.667098850754 15.611609083536091 0.26156301335139465
0.7678996782015435 12.986759992717094 11840.02024488733 16.343982815723773 0.26526760001624883
0.7911415221395481 12.98812587224602 10292.94633242687 17.108073264180742 0.26903053150080314
0.8147134995696442 12.99065884395475 8959.662091094786 17.905334863477627 0.2728542391797237
0.8385927721033596 12.994121755752344 7810.06042071599 18.737152851222916 0.2767399854241297
0.8627738312306411 12.998381069252815 6817.41293067327 19.60483122834806 0.28068789259355176
0.8872431006132747 13.003342099524422 5957.419796262545 20.510474252262267 0.28470449438612777
0.9120009973751136 13.008824061047827 5213.218473719294 21.455875230275343 0.28879280251993206
0.9370176341178733 13.014716501693455 4567.093167031863 22.442543501449144 0.29295294462512445
0.96229338201755 13.020919826004336 4006.4073026293004 23.47245303061264 0.29718831141833624
0.9878153259158391 13.027311111258728 3518.010294813548 24.54804955445924 0.30150520055338237
1.0135548373262473 13.033771216328299 3093.5059274692985 25.671304882848126 0.30590546652004535
1.0395163278669834 13.04021943093892 2722.641741157516 26.844119796841138 0.3103899256433938
1.0656645143144732 13.046546421767022 2399.346452118808 28.0696184906607 0.314967526877707
1.091992001432836 13.052675943538155 2116.7644804912843 29.349889661734252 0.3196389519216949
1.1184887145323654 13.05852099234749 1869.4151572494056 30.687619566985518 0.32440841450860797
1.1451167537995657 13.063971838470989 1652.7951678203294 32.086278556113406 0.3292844524618865
1.1718769337820745 13.068988566618883 1462.8335228372252 33.547729029868876 0.33426425613501387
1.198729973809006 13.073446276257211 1296.0364952602729 35.07654873103841 0.3393616358538983
1.225673019278562 13.077318525918214 1149.605473776358 36.674805296503116 0.34457362847495465
1.252666574905262 13.080486419976225 1020.6685218590735 38.34746804581991 0.3499141734409099
1.2797048845034706 13.082931477095613 907.1451587537684 40.096842097777056 0.3553802503501382
1.3067468856593452 13.084516320569856 807.153253896194 41.928379239076776 0.36098630706568247
1.3337824717955447 13.085231142715084 718.9130188673666 43.84548964562246 0.3667338761275762
1.3607882164114242 13.085036783276502 640.950826553904 45.85297818533835 0.3726313662697822
1.3877180503704332 13.08378193393834 572.1116706135202 47.95611645492941 0.3786884019633257
1.4145719403902235 13.081496421196904 511.0884432651447 50.15958684527112 0.38491026653625665
1.44129388177969 13.078053377847105 457.09143752772536 52.46874446712614 0.39130464359048567
1.4678868762518382 13.073459969135135 409.235076804658 54.88993312232405 0.3978828605428739
1.4942937241749688 13.067601100333393 366.7384550974651 57.42933807552745 0.40465397069686787
1.5205049460807072 13.060463840482756 329.0105346905721 60.0935822883804 0.4116277368093745
1.5464874667154633 13.051985499877114 295.4457639928626 62.88976581761642 0.4188146894946937
1.5722023474476678 13.042114395398315 265.61084623797336 65.82550898464771 0.42622619039513704
1.5976258102917873 13.030796601426081 239.04969937319783 68.90899969941694 0.4338745006762657
1.6227064431428824 13.017957071440874 215.35181922164762 72.14904536887087 0.44177285547299516
1.6474654969986569 13.003656334027733 194.20817206768797 75.55512987436829 0.4499355449885072
1.6718142843478447 12.987731283603658 175.33095491803724 79.13727860286626 0.45837717798171107
1.695752147324791 12.970194355433847 158.45355963827768 82.90548701095811 0.4671102218891247
1.719217055682146 12.95095976319615 143.37482757885854 86.87257428362838 0.476156600906726
1.742219942506331 12.930071102952665 129.85543461001842 91.05022282147729 0.4855310969315312
1.7647031389522376 12.907431010396923 117.75032932157342 95.45228529977676 0.49525471223682827
1.7866289823905925 12.883011965421431 106.87867751430396 100.09265299035872 0.5053458753855807
1.8079695164835237 12.85676864695022 97.14155450322218 104.98772224474119 0.5158298091276501
1.8286832210923138 12.828648871221974 88.38394227905702 110.1539940908602 0.5267289348486875
1.8487637720372576 12.79869788850344 80.50658679287014 115.60902875985414 0.538066406105807
1.868152441663639 12.766808979275774 73.42295043488717 121.37320097553373 0.5498722060042767
1.8868266756871677 12.73297591769359 67.04627840400583 127.46781144677918 0.5621757233227296
1.9047525234125533 12.697176379759984 61.291429221581666 133.91542370183691 0.575006734229175
1.9218988818448752 12.6593812456896 56.10519510395618 140.74140515319417 0.5884004654924216
1.9382168643974924 12.619509904930357 51.42192136422688 147.97355646713925 0.602395679767126
1.9537196803995247 12.577692077424214 47.19319483729139 155.6405245779791 0.6170287054205479
1.9683393016333288 12.533778414904761 43.362794715984165 163.77575034971545 0.632346492910692
1.9820643641849756 12.487801912313598 39.90213861493246 172.4128148304518 0.6483900292548813
1.9948579366888852 12.439743548284097 36.76690735592256 181.59130230374132 0.6652135540189658
2.0066936715065613 12.389590959743803 33.9252210171687 191.35300538399179 0.6828708627245655
2.017553921645268 12.337352140247638 31.344963559898673 201.74390998793828 0.7014211257107233
2.0273976324771366 12.282988228209147 29.00684437433745 212.8141099594181 0.7209275976304845
2.0362160604167934 12.226545135910177 26.884271136978835 224.61864046032892 0.7414592458714152
2.043968399108418 12.16797551688638 24.955808737775147 237.21899981965908 0.7630944324550953
2.050637016201264 12.107293643053033 23.200124071443554 250.68165582541678 0.7859146017685931
2.056212064524594 12.044549642030734 21.604566790023156 265.07980619474927 0.8100083994913515
2.0606758418344593 11.979745549021358 20.152533972161674 280.4953303431111 0.8354761608442504
2.0639967754046156 11.91288785640025 18.831532055761112 297.0173625091321 0.8624231261265999
2.06616158781657 11.843998515882301 17.627804236563616 314.74638473340997 0.8909703628859647
2.067166244285863 11.773133290194767 16.53219036847077 333.79189705467616 0.9212443214274878
