M[M_sun], R[km], Lambda[1], P_c[MeV/fm^3], rho_c[fm^-3]
0.24162668629717493 15.618656898711224 2160425.4255784233 3.5677272577965504 0.1711233750220791
0.25364186942963074 15.277358901138312 1723186.113039279 3.78480364053446 0.17388797405126158
0.2660380109558407 14.981286845494207 1383065.6330438822 4.011367923747924 0.17666625556044965
0.2788116484609003 14.72359974477447 1116452.3601963434 4.247676695858178 0.1794569166786913
0.2919653960379849 14.498482334185141 905942.5113189286 4.494354870212476 0.18226651871971095
0.3054993700999516 14.301310148252142 738707.1474266218 4.751556432357126 0.185090736239727
0.319415187770082 14.128194114599314 605146.2875493194 5.019966326143272 0.18793624646909352
0.33371120605720245 13.976035429756317 497725.3592056593 5.299804923658732 0.19079960045386526
0.3483915583123863 13.842100551487864 411059.13798046263 5.591805090079539 0.19368718094951068
0.36345234404895976 13.724078091110153 340690.01239718724 5.896128730665107 0.19659395178382635
0.37890485843475363 13.620077733186264 283353.90449009446 6.213642115817342 0.19952763989804942
0.3947346121575982 13.528540179152724 236434.8752815527 6.544606352402805 0.20248448947400924
0.41095825199686004 13.447963832793882 197894.92176009621 6.8897164381489535 0.20546808686243898
0.4275635731746625 13.377141103901366 166105.25183761862 7.2496806588905836 0.208481564873362
0.4445584974726435 13.314983633405575 139826.73953807488 7.624763335321271 0.211520556083138
0.46193794969471524 13.260652940479432 118007.07811739646 8.01590273604293 0.21459105701893527
0.47969993029912744 13.213217137507296 99832.51693542428 8.42380861601801 0.21769479396285923
0.49785533162553214 13.172044307893076 84663.64284675522 8.84892915842196 0.22082934132525026
0.5163911832438521 13.136455693579476 71957.34735340315 9.292122969027115 0.22399790011035334
0.5353086257279916 13.105880800779758 61292.290398349374 9.754281482898152 0.22720348908654311
0.5546126685419708 13.079858719040645 52313.19386518771 10.236214015715808 0.2304474587529396
0.5742931732219041 13.057877662016555 44340.14813875293 10.738401854288643 0.23372663571861327
0.59434797336569 13.03954820436673 38337.05122832494 11.262069369488774 0.23704695400087314
0.6147822674085406 13.024541724723331 32911.368412709395 11.808163415942573 0.24041015141839644
0.6355803169173075 13.012454368303608 28302.15709557837 12.377662651648361 0.24381786029830205
0.6567515939706025 13.003041498706745 24378.474575165103 12.971270002029767 0.24726818985308435
0.6782795770161727 12.996000828808041 21034.17834897211 13.590284226562943 0.25076561371669226
0.7001668879418917 12.99107539196781 18042.160586415568 14.235915855514403 0.25431291976853926
0.7223979784548202 12.98800984644305 15735.08678846975 14.909354123480737 0.2579120917629922
0.7449832020715575 12.986657963448565 13639.16258762472 15.611646017717291 0.2615632021344295
0.7679009785474966 12.986751674354117 11839.631774217522 16.34402275491179 0.265267799103084
0.7911434548310678 12.988128778755044 10224.874105722409 17.108116408793382 0.2690307412984444
0.8147148090535187 12.990658475416229 8959.699802783389 17.90538142721876 0.2728544601213459
0.8385940420672505 12.994116019501044 7809.796322382546 18.737202627575428 0.27674021412071453
0.8627727114545034 12.998387559302085 6817.025560328825 19.60488486445078 0.28068813322491815
0.8872443412379736 13.003331401255638 5957.447880932036 20.510532006226036 0.2847047474729519
0.9120027508413379 13.008828334351923 5213.130044484962 21.455937377884183 0.288793068617996
0.9370191686472414 13.01472783719103 4566.972034005378 22.44260978383824 0.2929532199244333
0.9622950948660136 13.020914214744836 4006.2997592958013 23.472524279474 0.2971886007811323
0.987817170401387 13.027316325168664 3518.0189905520388 24.548126105102355 0.30150550465274717
1.0135570860604353 13.033770245951846 3093.5052006080336 25.671386438981937 0.30590578126087253
1.0395165220137583 13.040224417027273 2722.592282334713 26.844207355371548 0.31039025642375506
1.0656662495686988 13.046548125990979 2399.3107544696604 28.069712461380043 0.31496787451625946
1.0919948680971876 13.052678806166949 2116.6940765663344 29.349989711627046 0.319639312039878
1.1184912395004827 13.058517187961648 1869.4288966422498 30.68772689037418 0.3244087930988159
1.1451189848777594 13.063973355860169 1652.7886323802068 32.086392802754816 0.32928484500209354
1.1718793721472633 13.068988316740874 1462.8395451108315 33.547851539660655 0.33426466900564344
1.1987325148321069 13.073442398634631 1296.026229527619 35.076680082099 0.3393620701962463
1.2256760863153504 13.077314114045585 1149.6256648955682 36.67494510770812 0.34457407948425967
1.252668967326969 13.080480643522957 1020.6346386476279 38.34761792551275 0.3499146482269199
1.279707407052804 13.082925993106862 907.1121379812544 40.09700165530147 0.355380743967814
1.30675001368839 13.084515905465782 807.1649001840398 41.92854913387137 0.3609868206833855
1.3337852001278705 13.085226804559204 718.8970147889531 43.845671782164565 0.36673441753157343
1.360790991100408 13.085034058122567 640.9472608164881 45.853172182045796 0.372631930385855
1.387720656804569 13.08378154698651 572.1048801434222 47.95632314027769 0.3786889902565464
1.4145748589923335 13.08149598551379 511.0839555819779 50.15980848522167 0.3849108875958233
1.4412968658846683 13.078053730514274 457.0965579445682 52.468980709886296 0.39130529222459254
1.4678897192621687 13.07345835511671 409.22591577545563 54.89018501376346 0.39788353858932707
1.4942964519208624 13.067599772861794 366.7280993958015 57.42960674622361 0.4046546801355303
1.5205078791747435 13.060464861591855 329.0045357395536 60.09386896120159 0.41162847977382927
1.5464902308571244 13.051984528488711 295.44248306300227 62.89007181606128 0.41881546828506383
1.5722056330703886 13.042113497088648 265.6039047713205 65.82583574202637 0.4262270074921869
1.5976293646206166 13.030794421454981 239.04498585359565 68.90934876896638 0.4338753587569182
1.6227106960636448 13.017954272385406 215.3536583080639 72.1494184349124 0.4417737574274239
1.6474679866809954 13.003653815152804 194.20410338294528 75.55552876462558 0.4499364939389762
1.6718168225935934 12.987731677048226 175.3286047035222 79.13770321969278 0.4583781686079094
1.695754986296715 12.970191898214297 158.4502255478606 82.90594149627779 0.46711126629506566
1.7192198462666841 12.950958955866211 143.36300442005293 86.87306097650874 0.47615770302664256
1.7422226427894785 12.93006918059379 129.84890894145164 91.05074192451936 0.4855322517447248
1.7647053524103835 12.90742867768459 117.74259436035351 95.45284181256412 0.49525593335014695
1.7866312651927692 12.88300933546931 106.87751625281012 100.09324739742812 0.5053471580902489
1.8079722596044312 12.856765528000718 97.13891859483564 104.98835762774924 0.5158311583647994
1.8286850872438039 12.828646540205742 88.38068016556726 110.15467649886745 0.5267303659663938
1.8487660843039653 12.798695446603501 80.50677314467768 115.60975926301063 0.538067915073251
1.8681555521541728 12.766805104465048 73.4222612215893 121.37398359048116 0.5498737991215132
1.8868291539793278 12.732971442078844 67.04591640937026 127.46865056642133 0.562177407429156
1.9047549543971294 12.697171484137412 61.29279338664561 133.91632104938708 0.5750085058718629
1.921901113339324 12.659374886673316 56.104616448588324 140.74236896378517 0.5884023433619716
1.9382192061899044 12.61950337827883 51.42134346916486 147.97459251112187 0.602397672649273
1.9537207627519086 12.577686658421392 47.19183672141096 155.64163578166063 0.6170308112627574
1.9683418584393575 12.533771601852102 43.362561516116536 163.77694693710217 0.6323487334416344
1.9820657400701807 12.48779609682703 39.90051142920959 172.41410080052356 0.6483924036580138
1.9948596768663882 12.439735819337331 36.76697566970251 181.59268580902366 0.665216074093021
2.006694826487576 12.389586971026311 33.921961574529576 191.35449540648312 0.6828735413558684
2.017556947290891 12.337343879314595 31.347145196075584 201.74551643568435 0.7014239769970096
2.027398994107458 12.282980306015547 29.006912621579456 212.8158397242504 0.72093062375057
2.0362164848720434 12.226537174178453 26.8842602084485 224.62050954814885 0.7414624766342087
2.043969468419784 12.167965546270908 24.955313328424992 237.2210173340755 0.7630978725025074
2.050637892583453 12.107284456898734 23.19937772466624 250.683840717327 0.7859182850024831
2.05621298783955 12.044540006944322 21.603758117594023 265.08217035966106 0.8100123335991198
2.0606767763753333 11.97973495771046 20.1526160038073 280.4978871444202 0.8354803545934876
2.0639974598321245 11.91287742555507 18.83134146766451 297.02013641765427 0.8624276203554379
2.066161508469348 11.843987350126968 17.626688837640728 314.74939801705034 0.8909751865604056
2.0671645455029406 11.773121853385849 16.53148464193193 333.79516958216095 0.9212494901232423
