M[M_sun], R[km], Lambda[1], P_c[MeV/fm^3], rho_c[fm^-3]
0.24162668629717493 15.618656898711224 2160425.4255784233 3.5677272577965504 0.1711233750220791
0.25364440172426195 15.277262687446779 1723159.971532889 3.7848285969480666 0.1738882851209178
0.2660402561939436 14.981259983162492 1383004.128449985 4.011420387099682 0.1766668895490939
0.2788168073503169 14.723468007607087 1116423.874370001 4.247758441054126 0.17945786479977688
0.29197114281115094 14.498377040835054 905829.2131812988 4.494468042297428 0.18226777891714274
0.30550809980109345 14.301161465906768 738621.263341171 4.751704874032335 0.18509233969312444
0.31942380419770683 14.12810858437062 605095.2307502828 5.02015113085228 0.18793816388927756
0.3337219817784403 13.975989699721833 497682.31588205573 5.300030956778053 0.19080187623232006
0.348404749521425 13.841996019003714 410987.2321530606 5.592072915941326 0.1936897722383998
0.3634676884731086 13.723957803223653 340653.3231309087 5.896444366312062 0.19659691630061818
0.37892264936416636 13.619992063586832 279380.53369825694 6.214009380847776 0.1995309889129111
0.39475529022316636 13.5284480675406 236393.71320238843 6.545024865485107 0.20248815926835756
0.4109805672228274 13.447846882088275 197853.07205377673 6.890194278588439 0.20547215635213958
0.4275901310492454 13.377018504670229 166069.89449570334 7.2502223106225046 0.20848604581932673
0.44458512474815803 13.314919758184883 139789.00065293047 7.625367301261721 0.2115253640403728
0.46196733301079856 13.260548924493802 117975.05742392267 8.016579550702309 0.21459629272750672
0.47973295460632864 13.213137151161769 99800.8265694006 8.424563557013704 0.2177004700637587
0.49789054112642933 13.171964092313237 84635.51168980866 8.84975944215813 0.22083535293425305
0.5164295119741567 13.13639300003395 71931.73630540207 9.293042031943514 0.22400437037058168
0.5353485869289348 13.105832492088956 61268.35140747508 9.755295556377641 0.22721043197036409
0.5546569583391867 13.079806866435954 52299.63530337919 10.237329709781639 0.23045488884018436
0.5743402884604454 13.05782561869694 44727.10184492591 10.739614321247576 0.23373442013206486
0.5943978129610457 13.039509218895532 38321.177226079686 11.26339684287753 0.23705524807862843
0.6148363221521044 13.024485925063622 32620.11356662681 11.80961373770241 0.24041897179450467
0.635640688846322 13.012425964304573 28287.915390386846 12.379244152953516 0.24382722448488198
0.6568121032057351 13.003023482306359 24367.612350483818 12.972975420385021 0.24727793732506329
0.6783445992141518 12.995972098892732 21025.447181324413 13.592137778973385 0.2507759337999172
0.7002336696019781 12.991049671310744 18170.09447426102 14.23792748024674 0.25432383293088956
0.7224690428222812 12.98800690032603 15727.906353653045 14.911534397346676 0.2579236196927818
0.7450599632732844 12.986631734933477 13632.435085746714 15.613984924510028 0.2615751570744958
0.7679791477864973 12.986761372194305 11835.198401180933 16.346551967836167 0.2652804065951635
0.7912234493494896 12.988145075835831 10287.290257755545 17.110848621210472 0.26904402712222397
0.8147991092953268 12.990676487766876 8955.012412319695 17.908330174034138 0.27286845171413937
0.8386836480726547 12.994126214151628 7806.5703811033 18.740354830038786 0.2767546968600403
0.8628643876790962 12.998414316681563 6813.1167124489975 19.608281508123167 0.2807033718229251
0.8873467956136812 13.00335661840526 5954.41823104679 20.51418943874279 0.2847207749093342
0.9121033744089921 13.008850043874588 5210.40446277889 21.45987306631404 0.28880992009612844
0.9371245556073012 13.014748131417514 4564.52552698607 22.446807333743887 0.29297065415701884
0.9624093051376875 13.0209516471424 4003.928982072447 23.47703636601705 0.2972069257052552
0.987930533063493 13.02734325153485 3515.8952795051714 24.552973965767137 0.3015247629017808
1.0136738100132978 13.033798054153385 3091.617457152413 25.67655130863781 0.3059257134875723
1.0396394136717122 13.04025163786689 2721.0197997988384 26.84975237410753 0.3104112045060506
1.065791012565249 13.046580504194662 2397.814414826289 28.07566358456899 0.314989890308682
1.0921234087024434 13.052713077279984 2115.344386634865 29.35632584781561 0.3196621182397494
1.1186224875256057 13.058541782120688 1868.302834076822 30.694523684583544 0.32443276923081066
1.1452538518956528 13.064001203845784 1651.8296669992815 32.09362807211162 0.3293097046749582
1.17201839054774 13.069012765344043 1461.8297495809354 33.55561015053802 0.3342908163242464
1.1988757501340226 13.073466240768404 1295.2009083110152 35.084998652260246 0.33938957745260007
1.225821649416335 13.077334085353868 1148.8701386497985 36.683799497870034 0.3446026423762919
1.2528183724298552 13.080497811381887 1020.0034961788361 38.35708268763008 0.34994455680389197
1.2798618474786212 13.08293511719042 906.5388521487945 40.107106684357106 0.35541200555184005
1.3069050222538234 13.084526786115926 806.5147036394592 41.93930887936739 0.36101934902411426
1.3339434782042874 13.085238575876653 718.4785723055725 43.857206874415084 0.36676870579125237
1.360951944240733 13.085031778794596 640.4690795663056 45.86545845189316 0.37266765718960754
1.3878844234288985 13.083769204509947 571.6903349621922 47.96941306409823 0.37872624840525904
1.4147403516877093 13.08148074662823 510.7136354814883 50.17384559272872 0.3849502211179793
1.4414649239793689 13.078028184249174 456.79231834973064 52.48394271827739 0.3913463722938544
1.4680599894055906 13.073428265120556 408.9435998029796 54.906138170627116 0.39792648161849137
1.4944695315086904 13.067559862142817 366.45784277154496 57.446622665165755 0.40469961153648454
1.5206821745933843 13.060411562796299 328.77252768869613 60.112025102268 0.41167553469655094
1.5466655853149842 13.051921389482176 295.2349015975502 62.909452014095685 0.41886479242985547
1.5723818033481658 13.042039507190314 265.40918630204146 65.84653078830227 0.42627875800300546
1.597806145806764 13.030708390002447 238.87286359299517 68.93145705208141 0.4339297052045831
1.6228948517994373 13.017883760788726 215.19057232872802 72.1730466476669 0.4418308828925276
1.6476459627910873 13.00354387153476 194.05854267699837 75.58079268444426 0.4499965962055125
1.6719933877029602 12.98760964539685 175.18687335401356 79.16459665872509 0.45844091069349086
1.695931761727331 12.970054637066914 158.33308899675652 82.93472682944967 0.46717741490685816
1.7194109905590356 12.950840547305551 143.24200591993053 86.90388637568536 0.4762275073893927
1.7423906459293703 12.929885767949628 129.7649185931303 91.08362022081909 0.4856053938519259
1.7648759050624347 12.907247627241116 117.65464503386845 95.48808971795306 0.4953332751250451
1.7868028286490112 12.882809157002852 106.80346308201183 100.13089560275112 0.5054284012840148
1.8081407980826156 12.856548677743913 97.06701137164477 105.02860134846958 0.5159166159901032
1.8288500532427618 12.828410531987378 88.31379177453833 110.19775151865923 0.5268204616470686
1.848928849055758 12.79844066492427 80.44837430373614 115.65602821046204 0.5381634907524994
1.8683049829003795 12.766499202019517 73.37371321505725 121.4235534970938 0.5499747052860324
1.8869829074777331 12.73267607695829 66.99473080452677 127.52176615590125 0.5622839574463754
1.9049063683655902 12.696856385150078 61.244479916023636 133.97315861161312 0.5751207208676036
1.922046385633672 12.659036940430193 56.063165644210805 140.80341664122048 0.588521287452874
1.9383598915099833 12.619145406728085 51.381227645448206 148.04021586479772 0.602523902435034
1.953855566078956 12.577296981154568 47.15445381043614 155.71202018953696 0.6171641967612617
1.9684702782060506 12.533362763473798 43.33230647993738 163.85252199437707 0.6324899129678025
1.9821838235137152 12.48735907625428 39.87236384996036 172.4955561058143 0.6485428019730942
1.994973224618022 12.439279321104795 36.73925299831803 181.68031972244148 0.6653757004814246
2.0068080006204796 12.389116866646281 33.89763044703697 191.4488769745818 0.683043212232776
2.01765381171461 12.336837959547093 31.321833998257095 201.84727338086742 0.7016045855372146
2.0274889779101786 12.282450093176639 28.985764221955666 212.9254086647819 0.7211223080567285
2.0362973675492704 12.225980489202627 26.864382084334636 224.73890456872567 0.7416671252458614
2.044040746948502 12.167380998266378 24.93712785222466 237.34881519257306 0.763315779590957
2.0506982852864444 12.10667139485679 23.18272057549623 250.82208595755253 0.7861510900075833
2.0562704039127 12.04392054403532 21.589714578071487 265.2319289505275 0.8102615405951124
2.0607152099545076 11.979067552503198 20.137895692235766 280.65984959441863 0.8357460107079151
2.064019646496992 11.912168996299389 18.817826891559292 297.1958532047985 0.8627123130357413
2.0661784710904487 11.843262577454798 17.615964039264995 314.9402800456579 0.8912807511446008
2.0671692250209084 11.772366591236809 16.520883389629766 334.0024757306413 0.9215769136252688
