M[M_sun], R[km], Lambda[1], P_c[MeV/fm^3], rho_c[fm^-3]
0.24162668629717493 15.618656898711224 2160425.4255784233 3.5677272577965504 0.1711233750220791
0.2536443045148018 15.277262707058707 1723188.2504706322 3.7848251499764185 0.1738882421560791
0.2660405200259662 14.981264664360395 1383028.285376506 4.011413140849568 0.1766668019824377
0.2788158156109879 14.723496204879222 1116446.2137445998 4.247747150345032 0.17945773384456615
0.29197092291406873 14.498386646691515 905849.9619933984 4.49445241082301 0.18226760485704724
0.30550610676134493 14.301214188290379 738640.5575395499 4.751684370997701 0.18509211822121976
0.3194241432384646 14.128088623661323 605086.3135998966 5.02012560519629 0.18793789905074465
0.33372082014932947 13.975960618237382 497668.45478023036 5.299999736441048 0.19080156189533032
0.3484028963745099 13.842011655296051 410996.9720281199 5.592035922942519 0.19368941432095993
0.3634663273668342 13.723947114971107 340640.83414078783 5.896400769506902 0.19659650683019805
0.37891934969793245 13.619987902932994 283295.1556544079 6.213958652609724 0.19953052633246085
0.3947515783938999 13.528450157819906 236407.39207411913 6.5449670584518485 0.20248765237876934
0.4109772944739963 13.447862440243265 197863.42262283835 6.890128276740748 0.20547159425270806
0.42758653228507565 13.377035605343451 166080.18911775423 7.250147494556463 0.2084854268851861
0.44458162182878497 13.314908297179727 139791.57314893595 7.625283877732354 0.21152469993543788
0.46196322828218694 13.260556268244347 117976.31098104338 8.016486064529081 0.21459556953637646
0.47972826567350996 13.213141671665431 99804.66687010943 8.424459279145678 0.21769968603996892
0.49788576962280273 13.172004717627994 84641.06821635479 8.84964475706022 0.22083452256514302
0.5164244951671398 13.136391168297694 71935.79373583678 9.29291508355584 0.22400347664601816
0.5353439180630327 13.105833031169706 61273.49134987869 9.75515548388586 0.22720947295994065
0.5546502724162095 13.079813468067774 52297.02229821297 10.237175600061484 0.23045386252956654
0.5743332823395237 13.057847526356614 44727.77984026151 10.739446843893536 0.23373334487557393
0.5943910876669166 13.039515692138636 38324.622968823685 11.26321347913352 0.23705410241863767
0.6148281578383992 13.02451392230378 32899.8209090393 11.809413404251924 0.24041775343287675
0.6356328580361496 13.012442010381216 28290.129886260333 12.379025698890802 0.2438259310021667
0.656803798547966 13.003010940972827 24369.305903021526 12.972739848891669 0.24727659089500792
0.6783360587074588 12.995985904110436 21026.646438201486 13.591881744685846 0.2507745082695999
0.7002250626011988 12.991058698805714 18171.57101311491 14.23764961023301 0.25432232547250366
0.7224594237052036 12.988003035669657 15728.736964240405 14.911233230456308 0.2579220273099067
0.7450468463096414 12.986655504901371 13632.896112090652 15.613661844343152 0.2615735057029903
0.767968762847432 12.986764498481788 11835.663866213752 16.346202598941684 0.26527866507884923
0.791213766191768 12.988134990117464 10287.938639336158 17.110471210024194 0.26904219189942724
0.8147874806979579 12.990668207177384 8955.57000435585 17.90792285072634 0.27286651899416886
0.8386711421876689 12.994131628585526 7806.779881450786 18.739919401307397 0.2767526962903164
0.8628523119236622 12.998407329612311 6814.145093991904 19.607812311968146 0.280701266835684
0.8873336317044503 13.003362746227568 5954.928741875009 20.51368421673326 0.2847185609481525
0.9120901998681208 13.008852038055315 5210.750963598519 21.459329405358645 0.2888075922973546
0.9371098282885757 13.014738140243658 4564.875266323824 22.44622749862764 0.292968245852054
0.9623942680367307 13.02095061711611 4004.312046368991 23.476413079725056 0.29720439435442697
0.9879154477103129 13.027332730841035 3516.3278347391265 24.55230429428613 0.30152210261489476
1.0136568213295258 13.033795591778881 3091.672199210974 25.675837844296545 0.30592296009127384
1.039621889020784 13.040246134786923 2721.2260606261043 26.848986394043564 0.3104083107712986
1.065773471994213 13.04657628123045 2397.9921412627436 28.07484150293513 0.3149868490712499
1.0921047978580387 13.05270324855612 2115.516878488575 29.35545057836595 0.31965896780714875
1.1186041298568454 13.05853839648821 1868.4492332629095 30.693584776728073 0.32442945717251076
1.1452359191900838 13.063995409428154 1651.9503459183145 32.09262859041936 0.32930627055430856
1.171998555050607 13.069011560545793 1461.9628769380615 33.554538370340346 0.33428720431447506
1.1988563470607128 13.073462388754116 1295.421509677741 35.083849514541754 0.339385777565697
1.2258024157239402 13.07733399827021 1148.9798212875385 36.68257633753856 0.3445986966504037
1.2527973456936776 13.080499792415376 1020.0986591606095 38.35578054041805 0.34994045646715366
1.2798418558692972 13.0829334810965 906.6512709035618 40.10571074884788 0.35540768699372643
1.3068848717174486 13.084525310396812 806.7140683895587 41.937822494804536 0.36101485545839446
1.333922056446851 13.08523477312943 718.5489935624714 43.85561337464251 0.36676396908583087
1.3609312780727587 13.085030668500742 640.5748886757297 45.863761176047504 0.3726627217420059
1.3878614729393697 13.083772187350093 571.7584221794759 47.96760476204994 0.378721101393897
1.4147182711120945 13.081481619225057 510.77217834386664 50.1719064342295 0.38494478738216475
1.4414414649813991 13.07802889789708 456.8240636937832 52.48187578190874 0.39134069726100024
1.4680369811534368 13.073431719303626 408.9860924644968 54.903934303481144 0.39792054920449127
1.4944457766975303 13.067566077947902 366.4907383319172 57.4442719729003 0.4046934044137862
1.5206575643098803 13.060417014808632 328.80364992119485 60.1095168827205 0.411669034192036
1.5466414117844385 13.051930801720854 295.2652217113677 62.906774684272435 0.41885797841259814
1.5723590282468112 13.042048573605818 265.4388205102133 65.84367180400508 0.4262716087608231
1.5977819441899985 13.030720480815345 238.89396926710958 68.92840281934485 0.43392219730816667
1.6228690363481997 13.017897537321627 215.2137622191504 72.16978242507669 0.44182299104579315
1.6476207135105676 13.00355946801631 194.08052384338944 75.57730247529169 0.44998829308065064
1.6719695013463636 12.987623477044894 175.21724244247363 79.16088131825438 0.458432242846679
1.6959067990967525 12.970071743235469 158.35380972959328 82.93075010541753 0.4671682764066144
1.719386761501095 12.950861868288648 143.2640530620632 86.89962779512952 0.47621786379969516
1.7423678572926227 12.929910914902392 129.77251455088054 91.07907801120635 0.4855952891074648
1.7648522863969482 12.907273917337715 117.66915449343296 95.48322011841992 0.49532259013634067
1.7867790037228415 12.882834008490063 106.81471565640352 100.12569437307127 0.5054171772560145
1.8081186295924796 12.856577734038638 97.07628145975379 105.02304151528304 0.5159048096726777
1.8288271315764184 12.828443535655042 88.32058389691532 110.1918036604208 0.5268080262576685
1.8489062630324544 12.798476979962686 80.45435763158625 115.64963590542365 0.538150286456105
1.868283111706229 12.766537841028603 73.37751869556011 121.41670511408537 0.5499607644878796
1.8869618142069307 12.732716562489802 67.00182265792286 127.5144492811453 0.5622693133008558
1.9048856436454036 12.696899737855336 61.250995408946224 133.96530608432693 0.5751052175405525
1.9220266476639547 12.659082037196837 56.069057373710685 140.79498241122772 0.5885048543654725
1.9383404782510836 12.619194374750297 51.38593841707741 148.0311494189723 0.6025064626754049
1.9538357384459735 12.577350635547658 47.15757199750523 155.7022959133779 0.6171457682845265
1.968452439132975 12.533419573802709 43.33728951646407 163.84208095357928 0.6324704090168213
1.9821678368060982 12.487419369003941 39.874880736657104 172.4843021539129 0.6485220227813899
1.9949583100499084 12.439342834421053 36.74223647119792 181.66821205956688 0.6653536462056162
2.0067933075353324 12.389183110535491 33.899925973356176 191.43583696740092 0.6830197700554755
2.017640866357101 12.33690782114677 31.325068352090355 201.8332142871458 0.701579632032674
2.0274757637705267 12.282523729561678 28.988794568300186 212.91027015159963 0.7210958241336246
2.0362866130258928 12.226057223557929 26.867340141125684 224.72254650016123 0.7416388499349174
2.0440305345735075 12.167462558537588 24.939995230948767 237.3311578689181 0.7632856722320959
2.0506846920741433 12.106757444787442 23.180633831946555 250.80300179577094 0.7861189786322805
2.0562639073055293 12.044008906668187 21.59197011354325 265.21123711465 0.8102271081780418
2.0607090861906165 11.979160044387879 20.139986344448513 280.6374714287247 0.8357093053077046
2.064015435615749 11.9122632394253 18.820128469909545 297.1715744397628 0.8626729770860873
2.0661754961174785 11.843363320291575 17.616852607995153 314.9139056998542 0.8912385310044036
2.067168060592865 11.772470034281163 16.522032057732645 333.9738318335299 0.9215316728778397
