M[M_sun], R[km], Lambda[1], P_c[MeV/fm^3], rho_c[fm^-3]
0.24162668629717493 15.618656898711224 2160425.4255784233 3.5677272577965504 0.1711233750220791
0.2536440054382711 15.277276637193191 1723209.6582537536 3.784819919093328 0.17388817695564482
0.2660399659762417 14.981270331732143 1382999.1021178172 4.011402144465075 0.17666666909762072
0.2788149410015536 14.723517169553563 1116349.9150179168 4.247730016409382 0.1794575351167329
0.29196931896977263 14.498422316986847 905960.3252812799 4.494428689702909 0.1822673407168695
0.30550448863337293 14.301251931789858 738689.9492203975 4.751653257221791 0.18509178213305838
0.3194208179441165 14.128153159481398 605111.6206570931 5.020086869546227 0.18793749715342467
0.3337189293801594 13.975950182060345 497692.1097242291 5.299952359080082 0.19080108488391867
0.34840008022254815 13.842034377045415 411010.15437207435 5.591979785554135 0.19368887117628444
0.36346271515834805 13.723988063092559 340647.2548909831 5.896334610848672 0.1965958854540793
0.3789157905332004 13.620042402190489 283300.3736525009 6.213881672032232 0.19952982436228475
0.3947483008610644 13.528457025107869 236417.72460796923 6.544879335853829 0.20248688317009214
0.41097252138645823 13.447882318277406 197877.53063820748 6.890028118595703 0.20547074126391512
0.4275809292923188 13.37706247771936 166085.32043198295 7.250033960951922 0.20848448765077188
0.4445757448773856 13.314926596108432 139804.31578522775 7.625157282438599 0.2115236921554991
0.46195698429217885 13.260575122399171 117980.71360732995 8.016344199362273 0.21459447209461813
0.47972209082890976 13.213150103940816 99814.60787554769 8.424301037815356 0.21769849628638224
0.4978790629444508 13.17198336600216 83768.79718632447 8.849470723006153 0.22083326248423255
0.5164169234514683 13.13640125978994 71941.56276654515 9.292722440288022 0.2240021204254028
0.5353342877375712 13.105852355402009 61278.03237069896 9.754942925177001 0.2272080176705059
0.5546410568112186 13.0798304349424 52300.32928470518 10.23694174030998 0.2304523051148505
0.5743239276755241 13.057842092497859 44732.59393798319 10.739192699209095 0.23373171318797567
0.5943801291173213 13.039526644407147 38330.48485905309 11.26293522743995 0.2370523638970209
0.6148172246029616 13.024503964872336 32903.68665044818 11.80910940170028 0.2404159045901457
0.6356210248261512 13.012435000394484 28292.961482809584 12.378694199073552 0.2438239681671505
0.6567910780451307 13.003022862057495 24371.859077416906 12.972382374113124 0.24727454771576318
0.678323342941674 12.995971556128064 21028.384117818336 13.591493218573824 0.25077234506030055
0.7002099819214306 12.99106883147806 18172.862155593302 14.23722794948228 0.2543200379423518
0.7224437380752743 12.988001096010828 15729.953074027184 14.91077621790148 0.2579196109122572
0.7450321557506945 12.986642522907097 13634.518864165635 15.613171579538019 0.2615709997945119
0.7679520552127134 12.986746338317577 11836.932772955404 16.345672442472107 0.26527602238181625
0.7911960142886031 12.988147306894021 10289.190857208123 17.10989850102501 0.2690394070094998
0.8147691402081276 12.990671806405834 8956.681340311714 17.907304751915383 0.27286358615950707
0.838653420194185 12.994125081150756 7807.893963822605 18.739258654240633 0.27674966049942434
0.8628316366957667 12.998398633173933 6814.797162830424 19.607100325056482 0.2806980725994381
0.8873123121716648 13.00335355529709 5955.666061666058 20.512917563046596 0.284715201352826
0.9120682310086999 13.008841852370912 5211.369951233713 21.458504423292414 0.28880405996305103
0.9370883478982327 13.014736774440914 4565.456681603429 22.445347624821864 0.292964591357189
0.9623668689228936 13.020939136197565 4004.5480224115367 23.475467272033253 0.29720055314836374
0.9878909749446253 13.027333976584282 3516.7419851831974 24.55128810068287 0.30151806576011875
1.0136336621730229 13.033789993999553 3092.0128312167003 25.674755198415454 0.3059187819523129
1.0395973762561272 13.04023747118818 2721.5867894328835 26.847824059887568 0.31040391968215825
1.0657476065654032 13.046571655317457 2398.448228973878 28.073594039424115 0.31498223416128396
1.0920791839481514 13.052695722276829 2115.783935447295 29.35412240683611 0.3196541872051428
1.1185762636336494 13.058538851760506 1868.7153743902954 30.692160039640793 0.3244244313201147
1.1452073465078687 13.063996965624225 1652.195845360781 32.09111193793522 0.3293010594857573
1.171969551271593 13.069002501744913 1462.1369407104407 33.55291201173042 0.33428172331827505
1.198825203135895 13.073465384579814 1295.5441819709868 35.082105773444546 0.3393800114866178
1.2257709775167023 13.077330918420989 1149.0871934862867 36.68072027428804 0.34459270927766994
1.252766344439431 13.080497650549493 1020.2104274402291 38.35380462239757 0.3499342344907316
1.2798081269468713 13.082938441882273 906.7394883746576 40.1035925169385 0.3554011338918544
1.3068527530865521 13.084519996178715 806.7819484209542 41.93556701588205 0.3610080368039082
1.33388944678736 13.085236726124714 718.6262054617513 43.85319536021451 0.36675678149644586
1.3608962028453833 13.085031986560868 640.6542430001786 45.86118569280291 0.37265523258658356
1.3878269282204365 13.08377414842289 571.8271061866724 47.96486080899122 0.37871329121772457
1.4146837625351252 13.081486126485757 510.8661848903207 50.16896392201528 0.384936542138669
1.4414069292283818 13.078037053470286 456.90507735925195 52.47873938183497 0.3913320858815052
1.4680011569604687 13.073437226820326 409.04072475172825 54.90059012745737 0.3979115472840722
1.4944095567677398 13.067572561964672 366.5531887927546 57.44070500785987 0.4046839856608545
1.5206216444678327 13.060429009081018 328.85659088312036 60.10571088989599 0.4116591702733992
1.5466047934212854 13.051942805088986 295.3076526148487 62.902712088420515 0.4188476387831643
1.5723204701383382 13.042065484682809 265.4790733042844 65.83933357146134 0.4262607604763015
1.5977447999738505 13.030738908298515 238.93629660509296 68.92376832365352 0.43391080481892486
1.622831624246357 13.017918877966139 215.2494070808208 72.16482929878468 0.44181101596980715
1.6475836026106698 13.003583310842172 194.11175201877955 75.57200644632277 0.44997569395324055
1.6719327828504962 12.9876491453721 175.24417987230214 79.15524368411187 0.4584190903107232
1.6958704342365096 12.97010420569994 158.37166234276205 82.92471586025755 0.46715440972881134
1.7193503353544735 12.950893373728476 143.28607128560876 86.89316587521684 0.47620323073041804
1.7423360076860768 12.929953659286056 129.78139368439233 91.07218572685454 0.4855799563117407
1.7648153617934386 12.907310163763862 117.68597551876145 95.47583107143615 0.4953063769173643
1.7867429885123003 12.882875840421324 106.8282789617265 100.11780212952958 0.5054001461368469
1.8080818769306517 12.856624117898074 97.08738596332643 105.01460514858486 0.5158868950303108
1.8287923690338863 12.828492176547226 88.33542784462804 110.18277852947314 0.5267891571096118
1.8488727926228268 12.798529881274828 80.47069221244831 115.63993640270611 0.5381302506305315
1.86826045583166 12.766624298016405 73.3878553238929 121.4063135915446 0.5499396111560548
1.8869287225909699 12.732778572536482 67.01145587472831 127.5033149214763 0.5622469785131595
1.9048525789433366 12.69696687817032 61.25918129381556 133.95339094968264 0.5750816933651482
1.9219961527728036 12.65915306788267 56.07838423896904 140.78218464953665 0.5884799194589555
1.9383110358710596 12.619281447487468 51.39625769750231 148.01739238849294 0.6024800003428229
1.953808025620859 12.577429385866065 47.163486389662395 155.68754074955643 0.6171178057720721
1.9684256738826018 12.533505739963841 43.340696188355366 163.82623823774225 0.6324408146919756
1.982142440332227 12.487509522368342 39.883146010966776 172.46722600840363 0.6484904935457743
1.9949339911046062 12.43943810726019 36.74751810648885 181.6498405801881 0.6653201823011928
2.0067701875438817 12.38928311400535 33.90444171730086 191.416050848248 0.6829842003117756
2.0176199746726162 12.337014332213615 31.331475109164177 201.8118819196387 0.7015417691846134
2.027459077889431 12.282632864274413 28.99335090599712 212.8872999954662 0.7210556392197299
2.036269211955194 12.226174116648393 26.871831436659452 224.69772593833446 0.741595947002906
2.0440159748528606 12.167584863978346 24.943751696918298 237.30436597802753 0.7632399895969824
2.050677532830576 12.10688469327137 23.188806072879903 250.774045004489 0.7860702553819194
2.0562533342467577 12.044143492222082 21.59467041160057 265.17984105824365 0.8101748633161092
2.060701706457483 11.979299926703622 20.142871644388403 280.6035167673469 0.8356536117601667
2.0640089587197092 11.912414020442153 18.82287483166097 297.13473608524 0.8626132923510229
2.0661726369855393 11.843515441775462 17.619461509005703 314.87388782802213 0.8911744702625102
2.0671679010841326 11.772630985755569 16.525159901984342 333.93037049684307 0.9214630291682099
