M[M_sun], R[km], Lambda[1], P_c[MeV/fm^3], rho_c[fm^-3]
0.24162668629717493 15.618656898711224 2160425.4255784233 3.5677272577965504 0.1711233750220791
0.25364504370308605 15.277269322593693 1723208.4596613375 3.784840748175411 0.17388843658010472
0.2660419257023882 14.981233505194893 1383014.0906979153 4.011445931577271 0.17666719823903024
0.27881825214743783 14.723448212500106 1116411.965209426 4.2477982431690275 0.17945832644432924
0.29197407379202694 14.498334889352979 905786.9079784057 4.494523146671093 0.18226839251713256
0.3055108969761695 14.301156729322555 738597.9671211326 4.751777151925332 0.18509312043231324
0.31942879598034635 14.128070297224955 605032.2780769897 5.020241114873407 0.18793909750822738
0.3337281544740437 13.975910624027232 497634.3465735298 5.300141016206413 0.19080298434814202
0.3484112953932334 13.841940482600226 410954.00961577514 5.592203325764576 0.19369103398931425
0.36347530004166373 13.723910261905825 340610.33094776544 5.896598056657698 0.19659835979286874
0.37892956899305763 13.619937886148495 283246.9015692517 6.214188211864992 0.19953261963646154
0.3947649175383398 13.528360635913902 236373.15806419472 6.545228651697107 0.2024899461981351
0.4109915536745265 13.447789984260886 197833.40504674875 6.890426954451005 0.20547413791742383
0.427601612232935 13.376980793310997 166046.94956537228 7.250486059867098 0.20848822774923412
0.4445981702321616 13.314878936483456 139779.3204649732 7.62566139509308 0.21152770521637212
0.4619801296960051 13.260491020624176 117946.70286522032 8.016909119309815 0.21459884220713055
0.47974887447221337 13.213103016123224 99786.29719965906 8.424931170716343 0.21770323400488803
0.49790715368202987 13.171935329126791 84621.77465575201 8.850163745655584 0.22083828026432023
0.5164482014608779 13.136352458534827 71921.55036762047 9.293489568769006 0.2240075210577338
0.5353689459042138 13.105797452430183 60669.63951796038 9.755789361417028 0.22721381282104997
0.5546785528546313 13.079758315857413 52289.7244064801 10.237871298940643 0.23045848505417424
0.574363247104073 13.057814583965166 44718.03438525204 10.740204740822355 0.23373821080862406
0.5944223634313947 13.039509188970476 38318.84960407582 11.264043269430996 0.23705928696343243
0.6148617048439413 13.024477376587171 32892.56942265759 11.810319990616502 0.24042326699057934
0.6356685246591907 13.012410967349958 28283.617996230936 12.380014289917435 0.24383178452299178
0.6568411392622994 13.002997044899386 24362.88848970342 12.973805904768204 0.24728268403324138
0.6783751768284314 12.99596575399871 21020.84788983841 13.593040405142071 0.25078095938059647
0.700266362552241 12.991043234474251 18166.292301503712 14.238907088715681 0.2543291473546434
0.7225030760697245 12.987991117440856 15724.054489290054 14.91259613967544 0.2579292335247008
0.745093448869212 12.986640569137405 13629.416807733222 15.615123922824765 0.2615809788783533
0.7680172857830856 12.986752688137024 11831.976758237533 16.347783648369248 0.26528654621370473
0.7912653432388931 12.988147226398674 10286.628925499166 17.112179166531384 0.2690504971135591
0.8148424815534162 12.990672882697467 8953.055204406284 17.909766176651626 0.27287526544388024
0.8387271886068767 12.99414263854468 7804.94870193904 18.741889920322578 0.27676174980561724
0.8629103680851502 12.998411269154003 6811.115903164011 19.60993564847616 0.28071079290747725
0.8873944634665344 13.003377312550453 5952.961259822102 20.515970591841963 0.2847285801983869
0.912153599431987 13.0088657136671 5209.115241023217 21.461789740158117 0.28881812673848495
0.9371755076240159 13.014756402662401 4563.363756464171 22.448851543538375 0.29297914464070857
0.9624633226356429 13.020964073235703 4002.883972644766 23.47923376855122 0.29721585000985834
0.987983538737971 13.02735845644417 3514.9773973163315 24.55533490578031 0.3015341417956623
1.013731068083324 13.033815183440012 3090.5662650111276 25.679066646414732 0.30593542066048013
1.0396958628309307 13.04026954561474 2720.168830180493 26.852452864436486 0.3104214064722373
1.065851094693578 13.046592324632583 2397.095251325863 28.078561870540813 0.31500061232876314
1.0921867431128174 13.052727391293892 2114.6835856696534 29.359411656337357 0.31967322525573155
1.1186870207728679 13.058557866590327 1867.5086880474028 30.69783386241801 0.3244444460976159
1.1453208319790507 13.064015492371556 1651.3429165327655 32.097151814339945 0.32932181190618004
1.1720872092785641 13.069022562550403 1461.394746402799 33.559388796387196 0.33430355075035284
1.198944374262965 13.07348549507198 1294.782641156776 35.08905003925065 0.3394029742910439
1.2258934146971598 13.07734413556738 1148.478886356935 36.68811186778095 0.344616553414084
1.2528908917633395 13.080510794625239 1019.6725651110313 38.3616735438192 0.349959012969922
1.2799359481560573 13.082945168371474 906.2634961119622 40.11202821495879 0.3554272311233445
1.3069482733505948 13.084519764306416 806.4628357895497 41.857240943799624 0.36212087990285613
1.3252021126118578 13.07833670335133 742.2217293786485 44.139608715244286 0.7368819548082773
1.3329370211314366 13.057173229077979 707.2208984305054 46.8554479031669 1.0465671404196026
1.3339312574908404 13.022518618299678 687.1043594374094 50.084255513370785 1.331168859631454
