M[M_sun], R[km], Lambda[1], P_c[MeV/fm^3], rho_c[fm^-3]
0.24162668629717493 15.618656898711224 2160425.4255784233 3.5677272577965504 0.1711233750220791
0.25364062768016254 15.277370823710676 1723275.708217578 3.7847749511707054 0.1738876164521826
0.26603436009116205 14.98140633777482 1383190.0176928455 4.011307613597982 0.17666552674788022
0.278807027583606 14.723674187880258 1116711.0013187127 4.2475827251724345 0.17945582676034746
0.2919587296989259 14.498572439710737 906059.0639853489 4.4942247737873515 0.18226507006582338
0.30549050095220665 14.301420987782649 738791.3108379439 4.751385793582255 0.18508889301528939
0.3194042334282685 14.1283378995301 605240.1408870076 5.019753888747244 0.18793404234911643
0.33369852840872904 13.976185777702382 497828.26443634875 5.299545095658459 0.19079698441703513
0.3483750444108749 13.842254931874809 411143.1020678407 5.591497223466088 0.19368420225533434
0.3634352574096668 13.7241875015936 340768.01219799987 5.895765909880815 0.19659054409423923
0.3788841918983389 13.620205493091543 283409.72267322097 6.2132199512793775 0.19952379026578237
0.3947121965334161 13.528650628315408 236498.10640577687 6.544125283139637 0.202480271146464
0.41093291235306406 13.448083137453137 197956.84166627773 6.889167178609433 0.20546340913771258
0.4275365013284368 13.377245526778955 164151.95933013153 7.249058056186572 0.2084764142407511
0.4445265951237209 13.31509828591916 139869.18335964368 7.6240691109186205 0.21151502961050808
0.46190331572790916 13.260754994096068 118042.85925421538 8.015124782959646 0.214585038922888
0.4796629413435181 13.213341648735009 99864.28446540292 8.422940869461549 0.2176882697218421
0.4978148893228687 13.17212626723746 84693.49484994 8.847974818446616 0.22082243149607067
0.516347917544627 13.136532229981475 71981.61336798017 9.291066594020345 0.22399046316444837
0.535261086924229 13.10597500842066 61315.07064254151 9.75311591225437 0.2271955089729433
0.5545625721207623 13.079925661764669 52336.352371161825 10.23493165380504 0.23043891872286487
0.5742321622373961 13.057988369979654 44758.36703836046 10.737008273238365 0.23371768849659308
0.5942892517460288 13.03962925830643 38355.0416507089 11.260543615591738 0.23703742106291395
0.6147209828864975 13.024562410918485 32926.69837229048 11.806496478215893 0.24040001365579405
0.6355155709504483 13.012499680425872 28316.207491613524 12.375844957040911 0.24380709759365302
0.6566820983819007 13.003083277323634 24390.581069698303 12.969309897521589 0.24725698669949428
0.6782074548615965 12.996019484636284 21044.90441677019 13.588153883565433 0.2507537525376352
0.7000896068542327 12.99108680071356 18187.973733115217 14.233603854641453 0.2543003770509663
0.7223117362300628 12.988043128610009 15742.222552218662 14.906848311761234 0.25789884259185825
0.7448976002767219 12.98664427115464 13645.965378641013 15.60895790614711 0.26154946229117765
0.7678101953322509 12.986748330312519 11845.920198853271 16.34111594838612 0.26525330940160574
0.791048961900959 12.988114762190316 10298.317216318721 17.104976322791433 0.26901547212353927
0.8146170917034448 12.990641931037523 8964.847581456685 17.90199251045634 0.27283837995362736
0.8384925677057774 12.994094145639416 7814.47571868002 18.73357990960183 0.2767235696060705
0.8626654364183121 12.998368443557348 6821.167741761 19.600981251707424 0.2806706201764185
0.8871325461927567 13.003322269260645 5961.413793045757 20.506328716211634 0.2846863280043784
0.9118861109249308 13.008799471693168 5216.431948828306 21.45141434214768 0.2887737022887845
0.9368998970342598 13.014687307998521 4569.983178608966 22.437785840968914 0.2929331840120907
0.9621697447033528 13.020883198854666 4008.670081077459 23.467338907156044 0.2971675414434249
0.9876885924507928 13.027278950943499 3520.3676823337964 24.542554903677242 0.3014833729142587
1.013428307501657 13.033755839765243 3095.424538960397 25.66545097017135 0.3058828751436257
1.0393793689457163 13.040192663709142 2724.505685752825 26.83783507563126 0.31036618309834973
1.0655264668446818 13.046519942230013 2401.0058621217004 28.06287355163185 0.314942574415315
1.0918473056141704 13.052645250043929 2118.09691465928 29.342708405509867 0.31961310380860086
1.1183404303342033 13.058480130593855 1870.7438480658998 30.67991628036008 0.3243812406658762
1.1449636838341821 13.0639482833713 1653.878487996683 32.078078375738556 0.3292562774498038
1.1717189360473537 13.068956377544081 1463.8602786332096 33.538935796334314 0.33423462203138204
1.1985686135481703 13.073418916116657 1296.9881712803638 35.06712095613146 0.3393304607581566
1.2255077419116263 13.077292867501598 1150.4079721548055 36.66477033255088 0.34454125723462375
1.2524971508198113 13.080466025917504 1021.436558066154 38.33671047053306 0.3498800958006962
1.2795328692512506 13.08291141112434 907.8453319800199 40.085389947107025 0.3553448212218815
1.306570821116569 13.084511519653057 807.8290571407955 41.91618518910167 0.3609494426052172
1.3336021067431938 13.085231859803018 719.4595310256012 43.83241702504973 0.36669501753857253
1.360605646220151 13.08503883568349 641.4513331465992 45.83905437824787 0.37259087773016936
1.3875318572729238 13.08379435144279 572.5378154612977 47.94128200783893 0.3786461783382425
1.4143822908606007 13.081518686467716 511.48569111333984 50.14367914932361 0.3848656914191474
1.4411097781512674 13.078099760925687 457.46843261231777 52.45178876793651 0.39125808959326247
1.4676918825926633 13.073500281755953 409.55543368812795 54.8718543672972 0.3978341957857348
1.4940988668659836 13.067649944720076 367.0484577266328 57.41005513395667 0.40460305310715433
1.5203080522333445 13.060521045505142 329.28279500645874 60.07300740738181 0.4115744132847414
1.5462894356363892 13.052057277612171 295.69723996055467 62.867804023788054 0.4187587949833605
1.5720036004552018 13.042194096859042 265.8277883796805 65.80205742541074 0.4261675468843265
1.597425496148212 13.030891302595808 239.2413664483696 68.88394691726096 0.4338129160788903
1.6225125466012598 13.018093289258383 215.5260419138795 72.12227050089213 0.4417081224014646
1.6472645406287147 13.00377977308319 194.3698615121308 75.52650176854753 0.44986743940319746
1.6716138157401061 12.987872553774396 175.47601685657057 79.10680426293766 0.45830608169530673
1.6955514219801118 12.970353089963956 158.59241679800238 82.87286923006029 0.4670352663236199
1.7190245335280148 12.951159975632356 143.48468151545723 86.83764522145675 0.47607750376633284
1.7420233257130708 12.930263506118107 129.97329173125226 91.01296793653657 0.4854482185255683
1.7645093489502743 12.90764958930833 117.85019707674287 95.41234585296083 0.49516707617246897
1.7864357213923012 12.88324061360161 106.97239540807189 100.04999420990298 0.505253819588056
1.8077775140362236 12.857014976257341 97.22286589335656 104.9421230096706 0.5157329790563979
1.8285039257465265 12.828942140072193 88.45989799832019 110.10502037041488 0.5266262291979312
1.8485798917483545 12.798987794986855 80.58043436334556 115.55660376347316 0.5379581141537594
1.867972512407131 12.767119552484512 73.48750863048335 121.31703650211892 0.5497578757183875
1.8866508370127826 12.733312137355878 67.10385122280569 127.40759230101682 0.5620548639776816
1.9045815170323122 12.697533646084837 61.3449541876747 133.8510262317866 0.5748795936280586
1.9217339602908508 12.659762428242889 56.15290265818156 140.67223849783193 0.5882657025450263
1.9380667384335946 12.619943073608548 51.46725110927543 147.89920661104688 0.6022526641197964
1.953558938094674 12.578093915330149 47.230781841574476 155.56078155158792 0.6168775844031471
1.968194737444317 12.5342338347173 43.4004916417396 163.68988061680258 0.6321857075006602
1.9819267041059987 12.488286983134262 39.93733259209751 172.32053146425287 0.6482196381092494
1.9947261681120194 12.440256164591474 36.796540012903584 181.4920203896797 0.6650327106358809
2.006572527368211 12.390135372188947 33.951044345925986 191.24608050371575 0.6826786425849223
2.017442692654073 12.337925706897815 31.372427432616277 201.62863129227003 0.7012165173972179
2.027296143255063 12.283592605363705 29.033262300732794 212.68998298033384 0.7207104449068579
2.0361243486528875 12.227179745848723 26.906943498421953 224.48451690348566 0.7412274101103826
2.0438881765211216 12.168641701253064 24.97547904815728 237.07422655024374 0.762847580731643
2.0505683014770844 12.107994576785638 23.21943720052103 250.52487330482478 0.7856503018778236
2.0561549984081093 12.045274999951186 21.62234220779104 264.91016101255286 0.8097261000519994
2.0606315041011234 11.980503167161954 20.169146526203377 280.31163265664566 0.8351744782904353
2.063964457613593 11.91367866730333 18.84587875765334 296.818319091514 0.8621006401252371
2.0661426539336825 11.844820495664793 17.641096340220873 314.53016701643355 0.8906242408478373
2.067160199406811 11.773990683456281 16.544977761203352 333.5570796903613 0.9208734461576312
