M[M_sun], R[km], Lambda[1], P_c[MeV/fm^3], rho_c[fm^-3]
0.24162668629717493 15.618656898711224 2160425.4255784233 3.5677272577965504 0.1711233750220791
0.2536443063844567 15.27728153508253 1723231.0268409634 3.784825388017596 0.17388824512314754
0.2660405821600897 14.981252982899738 1382919.6070432547 4.011413641261241 0.17666680802961746
0.2788166189789887 14.72345319658628 1116419.608073062 4.247747930058587 0.17945774288806837
0.29197103612690684 14.498379743372665 905852.9135225035 4.494453490300443 0.18226761687727897
0.305506198659644 14.30122285318471 738684.9161034274 4.751685786894227 0.18509213351560452
0.3194235875342945 14.128117894693858 605085.8549170954 5.02012736794355 0.18793791733992782
0.3337215059397517 13.975921010481251 497649.80824514356 5.300001892449605 0.19080158360275903
0.34840302434615616 13.842010575564807 410996.2992120179 5.592038477597203 0.19368943903794678
0.36346657450507636 13.723955242409557 340637.44310311304 5.896403780204203 0.19659653510730424
0.3789194871953139 13.61999411508376 283287.3909166889 6.21396215578582 0.19953055827720872
0.3947519259728122 13.528457207797645 236401.41648339352 6.544971050471386 0.20248768738338774
0.4109781355589297 13.447870038935479 197863.10025843474 6.890132834672729 0.20547163306996946
0.4275860456122258 13.377043848850604 166069.32204488045 7.250152661174833 0.20848546962729578
0.4445820609860315 13.314923115142317 139798.9866564355 7.625289638758802 0.21152474579691274
0.46196351135569325 13.2605555092208 117977.24026378493 8.016492520453943 0.21459561947817465
0.47972903745958134 13.213134380090295 99806.30676728886 8.424466480314681 0.21769974018269278
0.4978860964254405 13.171998950624365 84640.43523051144 8.849652676922911 0.2208345799083328
0.516425418943697 13.136388207187947 71936.07369594935 9.292923850285792 0.22400353836434356
0.535344425246843 13.105833425706235 61274.48841977425 9.755165156927852 0.22720953918670636
0.5546492264672364 13.079829607378116 51814.95374999795 10.23718624247255 0.2304539334038726
0.5743337708484818 13.057833277228296 44325.65113702174 10.739458409433103 0.23373341912992052
0.594392548578731 13.039519988608093 38324.547247786824 11.263226141738466 0.2370541815348225
0.6148285637516069 13.024497855331633 32898.5009366814 11.809427238732018 0.24041783756959803
0.6356336553566933 13.012427116059001 28058.96635594163 12.379040784723205 0.24382602032649978
0.6568044619284936 13.003032682920844 24370.006473120917 12.972756116799548 0.24727668387569837
0.6783366452293793 12.995973282573816 21026.5893876343 13.591899425688167 0.2507746067126838
0.7002248712709108 12.991062691800126 18171.008534809476 14.237668799139096 0.2543224295732557
0.7224602186681538 12.988000883472083 15728.922157663214 14.911254028167443 0.25792213727524527
0.7450474407268077 12.986645099090087 13632.546242398423 15.613684155312281 0.26157361974186505
0.7679690164040471 12.98674869922877 11835.370452349942 16.34622672532117 0.26527878534279986
0.7912139186003397 12.988139996807455 10287.784383123919 17.110497272908066 0.2690423186344059
0.814790538830691 12.990667847168218 8955.745796450003 17.907950979237334 0.27286665246194225
0.8386739034102535 12.99412852457175 7807.243564517279 18.73994947068115 0.2767528344435305
0.8628522278819343 12.998402060519444 6814.3339426298635 19.60784471320028 0.2807014121995782
0.8873339517613023 13.003364710728937 5955.0035268573465 20.513719105781465 0.2847187138373714
0.9120914694792609 13.008843632943284 5210.712051201771 21.459366948860684 0.2888077530477582
0.9371108347352481 13.014737268840053 4564.738235242062 22.44626754018592 0.2929684121618909
0.9623953060473611 13.02095086661653 4004.283079207384 23.47645612186015 0.29720456916132665
0.9879165164319857 13.027333056761673 3516.312237542799 24.552350539608216 0.30152228632560574
1.0136576739261287 13.033799070399132 3091.678036386736 25.67588711378948 0.3059231502317359
1.039624968495666 13.040240942895858 2721.255199617183 26.849039290070934 0.31040851060296504
1.0657750431471413 13.046578764841412 2398.0449203241524 28.074898273119413 0.3149870590888471
1.0921071161769427 13.052700484179889 2115.590553937272 29.355511021495154 0.31965918536530163
1.118605777900642 13.058539978838363 1868.4468011776537 30.693649614473667 0.3244296858918597
1.1452368875005574 13.063995818486069 1651.9731813553021 32.09269761115513 0.3293065077027584
1.1720013089484431 13.069011565198148 1461.975725624067 33.554612383718776 0.3342874537471915
1.1988570303332604 13.073468849581609 1295.3794895773601 35.083928869914374 0.3393860399724009
1.2258028219083237 13.07733149110585 1148.950980606106 36.68266080461134 0.3445989691281052
1.2527992611436438 13.080498837046736 1020.0779203203467 38.35587046200015 0.3499407396215952
1.2798432442810255 13.082934610316345 906.643577045533 40.10580714705464 0.3554079852175736
1.3068862224344666 13.084526197001896 806.6841341002638 41.937925139043145 0.3610151657674783
1.3339235355930856 13.085238213737233 718.5171269376127 43.8557234157966 0.3667642961850499
1.3609319444310155 13.085032363264919 640.5619603203564 45.86387838353203 0.37266306256544945
1.3878630643970653 13.08377164342465 571.7561864566125 47.96772963652313 0.37872145682695807
1.4147197398356608 13.081481396762143 510.7521570107565 50.172040345068325 0.38494516261509243
1.4414431181928535 13.078029484074406 456.8234369983947 52.482018516521435 0.39134108915676863
1.4680384401552076 13.073430602448203 408.9865169172694 54.90408649392077 0.39792095887378387
1.4944473728580372 13.067563469716132 366.49404764932063 57.444434302419 0.40469383305315126
1.5206598365047277 13.060418435101242 328.8016954142353 60.10969009035379 0.41166948309093854
1.5466432327182875 13.05192901233491 295.25892631673565 62.90695956988077 0.41885844896117036
1.5723609578586144 13.042047043445175 265.4378285143678 65.84386923382387 0.426272102458389
1.5977836419076326 13.030720244516436 238.8940972033008 68.92861373209995 0.4339227157726239
1.622871082259391 13.017896328613123 215.2126872894135 72.1700078387296 0.4418235360239469
1.6476223289364242 13.003558085111976 194.07918600768588 75.57754349448679 0.44998886645960406
1.6719714990734018 12.987624295767226 175.2039128272048 79.161137883936 0.4584328414114789
1.6959084197814223 12.970070295521491 158.34931998761814 82.93102472096031 0.46716890747233186
1.7193890114282626 12.95086032572796 143.26303203977466 86.89992187427924 0.47621852974427964
1.742369500870219 12.929910749419513 129.77043455824233 91.07939167636746 0.4855959868969923
1.7648540723723771 12.907272379543025 117.66626810125777 95.4835563914605 0.4953233279944778
1.786781010084306 12.882832352282076 106.81686864803277 100.1260535468006 0.5054179523373402
1.8081182461359302 12.856576399086036 97.07440254824314 105.02342545232337 0.5159056249637877
1.8288286632975106 12.82844071594416 88.322030602849 110.19221439244957 0.5268088849890827
1.8489087396303976 12.798473035929655 80.45774143792092 115.6500773285786 0.5381511982840196
1.8682838201250023 12.766535143945504 73.37803100236762 121.4171780315489 0.5499617271745304
1.8869630127237897 12.732713392041985 67.00049706551651 127.51495455014583 0.5622703245567563
1.904887032050273 12.69689698285061 61.25218831203107 133.96584834256316 0.5751062881266806
1.922028113141997 12.659079715713139 56.06885957658693 140.79556483863325 0.5885059891555445
1.9383414311955116 12.619191805938287 51.38581200135211 148.03177550365916 0.6025076669804498
1.9538375420458638 12.577346905192986 47.15627070552171 155.7029674241295 0.6171470408646199
1.9684559531037034 12.533413834514597 43.33514128852768 163.84280196001646 0.6324717558628379
1.9821688443853498 12.48741453992041 39.87475326506914 172.48507929526158 0.6485234576879194
1.9949594303664635 12.439339114771528 36.74262054313484 181.6690481532045 0.6653551691617702
2.0067938062520536 12.389178850585003 33.899286629193966 191.43673744321362 0.6830213888516437
2.0176406944526155 12.33690340721888 31.32347402254891 201.8341851349573 0.7015813551917731
2.027476840574472 12.282517736419274 28.988257705304143 212.9113155376024 0.7210976529738929
2.0362868129460656 12.226052641746291 26.867028599004787 224.72367610113992 0.7416408024771011
2.044031542153729 12.167456447161271 24.93992471240195 237.332377188387 0.7632877512837989
2.050685878799155 12.106751796010615 23.18081895623716 250.8043196436985 0.7861211960683869
2.0562637858854065 12.044003408567816 21.592041510745602 265.21266597821943 0.8102294858900366
2.060709799517338 11.979153485733727 20.140027543354254 280.6390167393682 0.8357118399768277
2.0640155592443192 11.912257367608664 18.819921747381834 297.1732509933015 0.8626756934032267
2.0661761255447115 11.843356499025727 17.61716643301759 314.9157269602165 0.8912414464840294
2.067168613724756 11.772462309125482 16.521760847209237 333.9758098138081 0.9215347969396891
