M[M_sun], R[km], Lambda[1], P_c[MeV/fm^3], rho_c[fm^-3]
0.24162668629717493 15.618656898711224 2160425.4255784233 3.5677272577965504 0.1711233750220791
0.2536439350969865 15.277269662568461 1723238.2569221712 3.7848197275694884 0.17388817456839256
0.26603990365655217 14.981272331043465 1383067.9068244614 4.011401741843254 0.17666666423217364
0.2788149119489923 14.723506367404442 1116455.9674233866 4.247729389067755 0.1794575278405154
0.291969382447648 14.498414987453371 905856.7795190208 4.494427821179059 0.18226733104565487
0.30550447434788275 14.301245200688118 738661.4350965365 4.751652118024727 0.1850917698275559
0.31942063107965546 14.128142695104145 605102.5854325781 5.020085451283835 0.18793748243840494
0.333720091665606 13.975975709287109 489716.8775760814 5.299950624412773 0.19080106741869718
0.3483999771997946 13.842035249876124 411010.6796049008 5.59197773015036 0.1936888512896875
0.36346265310080955 13.723985292985331 340636.30058125715 5.896332188530253 0.19659586270315207
0.3789159087096137 13.620036244964018 283311.6843661173 6.213878853485055 0.19952979866052825
0.3947482775062733 13.528449865089572 236417.10032676175 6.544876124003746 0.20248685500650593
0.41097249437510525 13.447876213039978 197865.6351367635 6.890024451437358 0.20547071003285577
0.4275804856131589 13.377061015840917 166087.3392084654 7.2500298040725 0.20848445326197373
0.44457554695549995 13.314950563130672 139800.9937225635 7.6251526473267806 0.21152365525702865
0.46195677749246616 13.260583049619594 117979.35736469965 8.016339005169721 0.21459443191333943
0.47972208130207167 13.213157894944393 99815.739202328 8.424295244037792 0.2176984527252745
0.4978780013665601 13.171991434690732 84647.29041669349 8.84946435100575 0.22083321634822708
0.5164161325018644 13.136408449514065 71937.71585911879 9.292715386944767 0.22400207076942658
0.5353349800130042 13.105849609368024 61278.163440602795 9.754935142666536 0.22720796438731974
0.5546413491147788 13.079803482352721 52301.32021576987 10.236933177901966 0.23045224809255332
0.5743235289934387 13.057841631268545 44731.69940577568 10.739183394106917 0.2337316534463373
0.5943792204912697 13.039532231136901 38329.76927149432 11.262925039706758 0.23705230024387955
0.6148166176769753 13.02450453292341 32902.85612078415 11.80909827115074 0.24041583689783358
0.6356200675614575 13.012440410615552 28293.54023589112 12.378682061767517 0.24382389630126083
0.656790571520974 13.00302777281839 24371.899209741798 12.97236928578709 0.24727447290825869
0.6783225494761547 12.995973934323178 21028.92566736592 13.591478993368499 0.2507722658581684
0.7002094211263025 12.991066992987927 18172.701590847173 14.237212511123037 0.2543199541884994
0.7224443209808264 12.987994401355774 15730.50868984858 14.910759485212948 0.2579195224402255
0.7450306468179118 12.986643167241802 13634.445838251499 15.613153629391036 0.2615709080452674
0.767951580794306 12.986759338341338 11837.059517362799 16.345653031781396 0.2652759256243914
0.7911952927257413 12.988133792389107 10289.351241935632 17.109877532370618 0.269039305046034
0.814768614642277 12.99067330347876 8956.695361732245 17.90728212141838 0.27286347877941697
0.8386524541533323 12.994132455251195 7807.871312092235 18.739234462276798 0.2767495493498678
0.8628320872216095 12.99839718052103 6814.755662807298 19.60707425706812 0.2806979556488145
0.8873115940648783 13.003351115936137 5955.638945645858 20.512889493566917 0.28471507834801385
0.9120674782630397 13.008847576961875 5211.291486038601 21.458474218262864 0.2888039306338615
0.9370856723808328 13.014735956360589 4565.266349616588 22.445315410066296 0.29296445755543465
0.9623659459052311 13.02093765385518 4004.63086492182 23.475432643275433 0.297200412510689
0.9878900755691609 13.027331156460372 3516.7252676791145 24.55125089492589 0.30151791795930866
1.0136310676035283 13.033791397450777 3091.920381234941 25.674715559678685 0.30591862897879374
1.0395967988547055 13.04024451691695 2721.637707900265 26.84778150357512 0.3104037589120729
1.0657465594090838 13.04656594851547 2398.427934519247 28.07354836632852 0.3149820651966432
1.0920774189316633 13.052699946443154 2115.9056413110575 29.354073778831935 0.31965401217418554
1.11857571926857 13.058536611324639 1868.7060757947643 30.6921078761546 0.3244242473100371
1.1452065752463085 13.063996314259505 1652.1639094984553 32.09105640921875 0.3293008686945569
1.1719692062328015 13.069007108282094 1462.1239228794877 33.552852466434324 0.33428152264448785
1.1988243432002033 13.073466565777204 1295.5435946321795 35.08204193052532 0.3393798003753918
1.2257704384996762 13.07733315096503 1149.139920184043 36.68065231901395 0.34459249006447495
1.2527648644301783 13.080493649380989 1020.2187803381269 38.3537322789875 0.34993400668826863
1.2798058541696165 13.082935891536874 906.735743668785 40.10351496312957 0.3554008939662786
1.3068505713194658 13.0845197367816 806.7957580211431 41.935484437181174 0.36100778715598486
1.3338874308271877 13.085234299344329 718.6397878730878 43.85310683077375 0.3667565183411639
1.3608950190017404 13.085032799892357 640.6587418818717 45.861091398121744 0.3726549583904597
1.3878257023933314 13.083775749037718 571.8411804886305 47.96476034630782 0.37871300526849755
1.4146824395640876 13.081485558507174 510.8555187281422 50.16885618972061 0.38493624026090695
1.4414051032338093 13.078033362010451 456.9087545792788 52.478624550951814 0.3913317705989235
1.4680002821284832 13.073439236205026 409.05296161426566 54.900467689525726 0.3979112177031802
1.4944082198235682 13.067573047095683 366.5444016655136 57.44057441323364 0.40468364081909
1.5206207262978917 13.060428414419738 328.85764685599474 60.10557154405587 0.4116588091334568
1.5466035195868844 13.051944967791288 295.30805671680287 62.90256334791816 0.4188472602267604
1.5723194871994992 13.042066255575524 265.4748462223984 65.83917473945516 0.4262603632973175
1.5977434221064741 13.030738385233214 238.93582072919966 68.92359864498913 0.43391038771585966
1.6228312879268072 13.01791898337507 215.24995105001244 72.16464795456943 0.4418105775374658
1.6475822222353338 13.003583041439272 194.1110424914296 75.57181254793561 0.44997523267357253
1.6719314591555845 12.98765035606003 175.2466287304468 79.15503727905148 0.4584186087700788
1.6958690894151172 12.970105357731615 158.37388567396908 82.92449493472058 0.4671539020425708
1.7193489882504074 12.95089453685752 143.28690108811924 86.89292929193883 0.47620269498569456
1.7423347099756386 12.92995581098771 129.7841807986859 91.07193338735986 0.4855793949492479
1.764813540088575 12.907313112910908 117.68423110081835 95.47556054485159 0.4953057833216321
1.786741595546886 12.88287883794582 106.82651533985536 100.1175131803001 0.5053995225969454
1.8080798479885503 12.856626600781299 97.09182275663751 105.01429627836511 0.5158862391437518
1.8287910986735436 12.828493868467422 88.33616245010113 110.18244810393193 0.5267884662777009
1.8488733683836087 12.798531535610767 80.46870660859278 115.63958128772917 0.5381295170855299
1.868258452140509 12.766627123960959 73.38439570956484 121.40593314102442 0.5499388366982152
1.886927512624399 12.732780458987028 67.01148003607554 127.50290699942194 0.5622461598168513
1.9048514336122144 12.696969901895262 61.26087079782661 133.9529547182793 0.5750808321089095
1.921994982276294 12.659155033082602 56.07834543540748 140.78171610442072 0.588479006554891
1.9383095563384298 12.619283464354469 51.39654490555388 148.01688872380683 0.6024790315187403
1.9538073325000935 12.577431370388897 47.16610177448917 155.68700054245312 0.6171167820255358
1.968424650826801 12.53350877259432 43.34143280416872 163.82565821460625 0.6324397312039371
1.9821414045770742 12.487512903575436 39.881654097255236 172.46660082869062 0.6484893392197899
1.9949301480886266 12.43944411765073 36.746564583665005 181.64916797758198 0.6653189571462196
2.006769435767424 12.389286626567467 33.904878010932386 191.41532645499157 0.6829828980613307
2.0176190266059737 12.33701818410434 31.330047648769373 201.81110091758808 0.701540382983013
2.0274569338943835 12.282637513320088 28.99330242863762 212.88645903334427 0.7210541680068108
2.036268481379257 12.226178489924326 26.87157333077636 224.69681723236053 0.7415943762829968
2.0440168679989914 12.167588239441596 24.944355886968868 237.3033851012404 0.7632383171119554
2.050677190190426 12.106889208843134 23.18908091938477 250.7729848703667 0.7860684715799866
2.056252938280952 12.044148345589594 21.595523504502513 265.17869162253726 0.810172950588313
2.060701100525868 11.979305102275768 20.142461211865022 280.6022736610564 0.8356515727765199
2.0640084687098454 11.912416811898561 18.82267995542542 297.1333874072221 0.8626111072509762
2.066172536205108 11.843520981855324 17.619862459500272 314.8724227484645 0.8911721249582973
2.0671686749244627 11.772635987859324 16.524374248518555 333.92877935288186 0.9214605160834228
