M[M_sun], R[km], Lambda[1], P_c[MeV/fm^3], rho_c[fm^-3]
0.24162668629717493 15.618656898711224 2160425.4255784233 3.5677272577965504 0.1711233750220791
0.2536437732533912 15.277276488631115 1723272.9258066795 3.784815386598943 0.17388812046028887
0.2660394556112163 14.981281032222673 1382942.9930825024 4.011392616253711 0.17666655395480957
0.2788141757956902 14.723532700236982 1116495.001573322 4.247715170123137 0.17945736292218534
0.2919675761291394 14.498480653210807 905962.2791412431 4.494408135760164 0.18226711184394673
0.3055046161425221 14.301190064244702 738680.7909289527 4.751626297716979 0.18509149091895344
0.3194198408286841 14.12814605097307 605116.6665603655 5.020053305885477 0.18793714891749
0.33371747238114446 13.976011764961521 497709.0104291011 5.299911307620775 0.19080067156384012
0.3483976424450053 13.84205500536088 411022.65165233525 5.5919311437976 0.1936884005539091
0.36345945485744574 13.724013914547085 335733.598669525 5.896277285987611 0.19659534704685297
0.37891289998848976 13.620022496218771 283324.31149116176 6.21381497035271 0.19952921612328156
0.3947449875159651 13.528473343216977 236407.83835151434 6.544803326605967 0.20248621667167185
0.4109687635221694 13.447921127275992 197880.3082228402 6.889941334424745 0.20547000217349767
0.427576725483331 13.377073740071513 166093.28356566257 7.249935587485811 0.2084836738322977
0.44457091604355764 13.314947750991111 139813.98056564268 7.625047591568303 0.21152281894564054
0.4619516309622799 13.26059213458364 117986.1549422421 8.016221277818236 0.2145935211970972
0.47971558207567877 13.213176908935829 99818.47206277157 8.424163927075334 0.21769746540529458
0.4978716627445666 13.172009661617402 84649.97726000896 8.849319928616039 0.22083217066841865
0.5164103454099691 13.136407458126616 71942.78806551706 9.292555521927929 0.2240009453097416
0.5353268565343705 13.105861158425776 61281.87348330477 9.754758751099644 0.22720675671728333
0.5546330086844089 13.07982077100756 51818.59120314939 10.236739109998538 0.23045095567602264
0.574314877736057 13.057874455423406 44734.28111680546 10.738972493090321 0.23373029939648182
0.5943700848744276 13.039540259875054 38332.61876826861 11.26269413393943 0.23705085754046676
0.6148070230399684 13.02451288874976 32904.82648733409 11.808845996557055 0.2404143026473931
0.6356107832934446 13.012438152699591 28295.058989731424 12.378406969170891 0.2438222674575835
0.6567788875410783 13.003043508459191 24373.214366934906 12.972072638455924 0.2472727773937597
0.6783129431367906 12.995968325564409 21029.80922406836 13.591156578859112 0.2507704707405602
0.7001980634327502 12.99106073144757 18174.35894241717 14.236862600708593 0.2543180559074237
0.7224314116089909 12.988007838672182 15731.873549457614 14.910380239092836 0.2579175172230305
0.7450182240337171 12.986654327222094 13635.834462760677 15.6127467898329 0.2615688285513135
0.7679367023219008 12.986756023410194 11837.282102781153 16.345213089354385 0.26527373262173415
0.7911810857175023 12.988129388428455 10289.956798710238 17.10940227910421 0.26903699405033377
0.8147538941584546 12.990671355962645 8957.299415789324 17.906769202956742 0.2728610450179919
0.8386355946853891 12.994131915805024 7808.366501738259 18.73868615360966 0.2767470301552448
0.8628168388180938 12.998400296746555 6815.449426808372 19.606483428898567 0.28069530497543355
0.8872904893588061 13.003341683018183 5956.258093996404 20.512253302268853 0.2847122904591027
0.9120313029992605 13.008821205374467 5212.4052739481895 21.38630580581865 0.28845200351358385
0.9352171874989021 13.012845691688002 4605.845422277595 22.476357680721968 0.3729163370412569
0.9555764445737993 13.01179237460555 4126.412616417272 23.587939361575035 0.445530704989122
0.9739117061115506 13.005538340417992 3729.267388005182 24.79441476832562 0.5151020797777678
0.9906418788591808 12.993890884290042 3390.1048415259847 26.09738231153099 0.5816293156784206
1.0061526892376107 12.977256870559325 3094.0830392743533 27.49752380078494 0.6449972890247475
1.0207103075560107 12.955802618049942 2830.7618635438816 28.996295937963303 0.7058396319662321
1.0345829094906835 12.930001548148395 2593.778135758826 30.59552310895471 0.7644797202104326
1.0479698777874684 12.900239835809405 2377.097787348934 32.29721132481172 0.8212301566784574
1.0610286779680338 12.86680088959888 2178.5846214280787 34.103738150239266 0.87643316839597
1.0739014045802124 12.83008090326469 1994.9641804630462 36.0178636658357 0.9304399678972445
1.0867061182828284 12.790416923344923 1824.668583420373 38.04084754996868 0.9834326955585517
1.0995403227072613 12.748128987689315 1666.7391945025036 40.17787805602046 1.035957188475886
1.112467553285885 12.703499020370087 1520.1786039766946 42.43339866497184 1.0881304199150248
1.1255562303044797 12.656822406401572 1384.4077270996797 44.80911736212911 1.1404740474176063
1.1388770405553021 12.608411936662705 1258.2826451880983 47.31182684638504 1.1943453974677936
1.1524252301151112 12.55846769980881 1142.0017009110604 49.94574819505497 1.2503996582680625
1.1662210318111204 12.507222122636346 1034.6316656388108 52.7191531182075 1.3095683018441322
1.1802685470549248 12.454902849282831 936.269019700184 55.635335478521625 1.373035836128933
1.1945899053316371 12.401802994718294 845.9019592801892 58.70436729019251 1.4425851402522096
1.2091244534852403 12.3478651969849 763.4992059550415 61.93468314408839 1.5208338796419725
1.2238524532854436 12.2933750131367 688.6203503217941 65.3359726878988 1.6120279409813123
1.23872368627187 12.238361805234574 620.6810565422086 68.91918260663365 1.706292399293403
1.25396329494143 12.182463997182674 558.4141751782931 72.67487428398174 1.729968929295088
1.2697835208224595 12.126164785065649 501.1811944163528 76.60040057603752 1.7537921900519629
1.286142905714944 12.069771658015005 448.9137132820704 80.70194824436487 1.7782711810063618
1.3030255654865857 12.013712100268792 401.4767648146707 84.99382611591244 1.8035516461425203
1.3203695162945743 11.958119971149598 358.626677688085 89.48439362486026 1.8297122200899918
1.338108660896265 11.903070289797604 320.0754995712611 94.187683195264 1.856864590416515
1.356208568145272 11.848687420372205 285.4826972020913 99.11445681251509 1.8850858414074763
1.374569548835729 11.79509872039868 254.59709747041722 104.27887085935338 1.9144701982805319
1.3931554976952656 11.742127480360608 227.04370384533718 109.69649770499454 1.945114231529384
1.4118450933263098 11.689773645647563 202.53225892550964 115.38226044928601 1.9771039237790229
1.430619851392615 11.638077079736465 180.7366252752351 121.35374017523407 2.0105376311425336
1.4493892144858636 11.586886862234318 161.41992586630144 127.63124057686106 2.045526185944027
1.4680640432293746 11.536084124521759 144.29486972962437 134.23163571846496 2.0821529758288557
1.4865943243651143 11.485652425741876 129.11219577844992 141.17934485133648 2.1205455063552057
1.5049081648392053 11.435445464598889 115.6734706288577 148.4972299943537 2.1608158890713622
1.5229369670143487 11.385358747180014 103.77231528025705 156.21078342217214 2.2030878554098616
1.5406080409900589 11.335270702026301 93.20808340454279 164.34827129334718 2.247497291141356
1.557880535235876 11.285047218355752 83.85512128323792 172.93892765705687 2.2941800389954494
1.574688961341742 11.234588880068978 75.55492103242216 182.01713196395326 2.3432984979383518
1.5909502584038284 11.183819300891155 68.1918065779688 191.6170140306057 2.3950057001474283
1.606640754394483 11.132656949783925 61.65782196916781 201.77898732321475 2.44948702147946
1.621679689421215 11.08086667161099 55.84656451655391 212.5445883488525 2.5069239765252886
1.6360322139939163 11.0284295654538 50.678085128650636 223.9618949777839 2.5675302393548107
1.6496462144532495 10.975296779463752 46.072934690074646 236.08097272925983 2.6315201834515647
1.66245851759003 10.921302398480254 41.96954768772165 248.9584990884225 2.6991385211171854
1.674453783872585 10.866446377093416 38.30857099668199 262.65602871901405 2.770646647884953
1.685564839371704 10.810551857920107 35.039108676983524 277.24032356270976 2.846322301445621
1.6957645544618793 10.753562335241522 32.110396921095045 292.7868141788883 2.926481609764563
1.705010851362449 10.69555215803393 29.492751953583056 309.3769242923888 3.011456779337447
1.7132608780218146 10.63625373219999 27.14874219193621 327.10160729681957 3.101618011955155
1.720498633214847 10.575801254519645 25.043279350023298 346.06055886259765 3.1973632727138526
1.7266934421906848 10.514045890324967 23.15594129929958 366.364988988542 3.2991340669819844
1.7318090587702524 10.450974913472024 21.45878751334905 388.13796128112097 3.407412043466143
1.7358348829616042 10.386644322883958 19.932943843834 411.5150857581586 3.5227164147365033
1.738738565752569 10.320943419272615 18.561865490266566 436.6490917295852 3.6456324461611462
1.7404936275559189 10.253920906151896 17.328685692293934 463.70815597277726 3.7767866521920186
1.7411199013729186 10.185477715025318 16.21409450972164 492.88185034201484 3.916884676244267
