M[M_sun], R[km], Lambda[1], P_c[MeV/fm^3], rho_c[fm^-3]
0.24162668629717493 15.618656898711224 2160425.4255784233 3.5677272577965504 0.1711233750220791
0.2536439400262741 15.277279017655097 1723211.3516496348 3.7848178095960576 0.173888150661779
0.2660396884687153 14.981272184814099 1383057.6596115846 4.011397709877116 0.17666661550824236
0.27881461657887224 14.723514318992212 1116340.5800315763 4.247723106697937 0.17945745497449284
0.2919690696301277 14.498435535385319 905917.7909238915 4.494419123547993 0.18226723419551433
0.30550455817700506 14.301227118426048 738661.007075299 4.751640709803791 0.1850916465969969
0.3194206256228564 14.128134640825154 605151.9333690754 5.020071248433886 0.18793733507835492
0.3337179317035282 13.975959213049387 497677.0148651776 5.299933253007774 0.19080089251747323
0.34839894549742956 13.842043994066133 411015.9395411762 5.5919571468148686 0.19368865214025435
0.3634612677548602 13.724006124803886 340652.26205344393 5.896307930826986 0.19659563486966952
0.3789145831804709 13.620015939382695 283315.8756114984 6.213850627857815 0.1995295412767937
0.39474695031173945 13.528462700791827 236413.4550716368 6.544843959754635 0.202486572969493
0.4109710582260561 13.447886180413994 197885.51294669195 6.889987727633275 0.20547039727752966
0.42757896631497183 13.377068105384895 166093.82820315057 7.249988176098333 0.2084841088844118
0.44457340182226796 13.314945840371948 139810.73881989528 7.62510623023488 0.21152328574713103
0.4619544776795019 13.260581333788988 117982.16767087135 8.016286989330526 0.21459402952877024
0.4797188908906087 13.213162546713756 99816.14566690991 8.42423722383613 0.21769801649446877
0.4978756984211801 13.171994161065083 83771.3973529196 8.849400540368508 0.22083275433194927
0.5164116576648049 13.136422742524779 71941.22377093538 9.292644753211615 0.22400157350354166
0.5353321883166955 13.105845487633403 61278.41004993563 9.754857206918581 0.22720743079793546
0.5546369800461105 13.07981995513394 52301.20588394371 10.236847432119001 0.2304516770590883
0.5743199133378208 13.057846621149386 44733.42621864563 10.739090210852854 0.23373105518098167
0.594376805878277 13.039520175597648 38330.860164422775 11.26282301763351 0.23705166280811968
0.6148120033640306 13.024509545999779 32904.290052285454 11.808986807556114 0.24041515901320534
0.6356162132245535 13.01244271095395 28293.936508992156 12.378560516348037 0.24382317662181305
0.6567851189819728 13.003023470590703 24372.409155221594 12.972238216698878 0.24727372377109788
0.6783155817342823 12.99599664947809 21029.491389465777 13.591336539392719 0.250771472712597
0.7002031712159686 12.99106507305071 18173.685368353614 14.237057908438912 0.25431911546139263
0.722437782878227 12.988009605442718 15730.750186996662 14.910591920922512 0.25791863646465807
0.7450250850101884 12.986641949545675 13635.143937558958 15.612973873291677 0.2615699892513244
0.7679451394712308 12.986753676805723 11837.331168621797 16.345458649590736 0.2652749566779237
0.7911890756909639 12.988142315604737 10289.577702934641 17.10966754851714 0.2690382839656611
0.8147616828538682 12.990667786972047 8957.042290263242 17.907055495651093 0.2728624034563557
0.8386447315377713 12.994124885128123 7808.163665196162 18.738992199772337 0.2767484362790098
0.8628243571521771 12.998405694253346 6815.185111408345 19.606813207817044 0.2806967844854601
0.8872960003175228 13.003356723079381 5955.487471398027 20.512608401136976 0.2847138465574018
0.9120612875101604 13.008842207468767 5211.679164756988 21.458171740183882 0.28880263551032104
0.9370796966925619 13.01474014297235 4565.594684769182 22.444992806352346 0.2929631176432696
0.9623515531879592 13.02095054573374 4004.7074700187527 23.475085865475243 0.2971990041430047
0.987881717547154 13.027325949507432 3516.9168725616305 24.5508783107809 0.30151643785937465
1.01362381427728 13.03378398162487 3092.0696939829963 25.674318611411913 0.30591709707898435
1.0395873297611236 13.040241855592551 2721.714747508424 26.84735533841536 0.3104021489368387
1.065737103945935 13.046569928739153 2398.577668149723 28.07309098940615 0.3149803731605246
1.0920681905416327 13.052699013843116 2115.8373116952853 29.353586811170413 0.31965225938960373
1.1185654761056598 13.058530899250961 1868.7980636783773 30.691585503866605 0.3244224046079423
1.1451950889353169 13.063990183445068 1652.2533311447592 32.090500337215964 0.3292989580859262
1.1719589808589226 13.06900436383359 1462.2323737610664 33.552256172082856 0.33427951307104287
1.1988138178460532 13.073456639575804 1295.548584487349 35.081402599453455 0.3393776862808601
1.2257591266155146 13.077328406801284 1149.1794540070557 36.679971806505684 0.34459029483646436
1.2527533847811838 13.080489944728468 1020.2777340203177 38.353006635545256 0.3499317184789802
1.2797944195838193 13.082938678634896 906.7617714557811 40.102738330243724 0.3553984913235861
1.3068383633667626 13.084524406341334 806.8286250751337 41.93465748470224 0.3610052871533583
1.3338750269244146 13.085236151003103 718.6836766558719 43.85222028726003 0.36675388307535456
1.3608821284800365 13.08503477336029 640.6943395117771 45.86014712116703 0.37265221256134573
1.3878130474661472 13.08377973637218 571.8588862445196 47.96375430265996 0.37871014174351775
1.414669263032718 13.081486212881288 510.8776424001001 50.167777347882726 0.38493321722718643
1.4413930343317245 13.07803690693984 456.9338707200218 52.47747462354401 0.3913286133291022
1.4679867612910644 13.073442885534574 409.06571037026816 54.899241584841626 0.3979079172498807
1.4943953330860629 13.067576123813987 366.57195790460383 57.43926662713396 0.40468018754326
1.5206068953902867 13.06043494615537 328.87319534836763 60.10417612304258 0.411655192647569
1.5465896465539457 13.051949886524268 295.3212239435641 62.9010738485238 0.4188434693323813
1.5723056658846517 13.042071276074509 265.49149304020494 65.83758418353759 0.42625638591644466
1.5977299446030993 13.030747097199063 238.94790459512518 68.92189947047129 0.43390621081535014
1.6228165647361221 13.017928019138406 215.26023179434353 72.16283196110666 0.4418061870457996
1.6475690828605023 13.003590723501908 194.12684802717322 75.56987083693095 0.44997061338910777
1.6719179386420218 12.98765904222111 175.2569672879443 79.15297032613861 0.45841378659258053
1.6958551365249623 12.970116545377794 158.38454369183492 82.92228257382297 0.46714881804367153
1.7193354862810035 12.95090604013356 143.2965988710112 86.89056013458551 0.47619733000993686
1.7423215044958855 12.929969141693524 129.79447193130665 91.0694064473999 0.48557377343797015
1.764800946371868 12.907325732469541 117.69030782066268 95.47285147975376 0.4952998390279026
1.7867279911033058 12.88289253433534 106.8336179695018 100.11461963121621 0.5053932784435554
1.8080677840560764 12.856642378442636 97.09638884995275 105.01120324100923 0.5158796710724433
1.8287796388106288 12.828511063422534 88.34272925430112 110.1791392122713 0.5267815482654294
1.848859720358604 12.798551723852636 80.47443275302032 115.63602515713039 0.5381221713468392
1.8682460274687003 12.766647969343076 73.38929503431677 121.4021233014185 0.549931081260928
1.8869160196424162 12.732802933599062 67.01648452465086 127.49882206126058 0.5622379613785558
1.9048404654298536 12.696992801753112 61.26380935403243 133.9485862917403 0.575072207478537
1.9219837968107585 12.65918145416563 56.081263635316866 140.77702409039077 0.5884698647272779
1.9382992312004934 12.61929927703623 51.398518613391005 148.01184502484264 0.6024693297128431
1.953796673571169 12.577462179972782 47.16732823553713 155.68159091032396 0.6171065302311393
1.9684147279321624 12.533540763931732 43.34432136870366 163.81984986781745 0.632428881163865
1.9821321697854477 12.487546403766734 39.88439936243648 172.46034028799204 0.6484777798159033
1.994921548413844 12.439478188314625 36.7476367973413 181.64243254841588 0.6653066884686015
2.00676074085885 12.389323638165742 33.90699056865042 191.40807239942114 0.6829698573586325
2.0176110983317814 12.337057217393372 31.331317777759423 201.8032799876338 0.7015265016038154
2.0274493288491033 12.282678937910898 28.995191531874774 212.8780376698676 0.7210394353352425
2.036262278523312 12.226220510111862 26.872476330318527 224.6877174902733 0.7415786471621649
2.0440102144154455 12.167634167737926 24.945058939282376 237.2935626497917 0.7632215689299297
2.0506728109359376 12.106936163041096 23.190946503021173 250.76236874668658 0.7860506086874134
2.0562484277405995 12.04419785649695 21.59617450474534 265.16718124598077 0.8101537966529843
2.0606986591226555 11.979356205826855 20.14460097926618 280.58982528125046 0.8356311545363031
2.064006865152632 11.912466368990795 18.823872223006358 297.11988184922495 0.86258922582708
2.066171208238859 11.843576903036913 17.62090472038297 314.8577515653824 0.8911486392797825
2.0671676762766715 11.772694462675094 16.525464846914105 333.9128457832552 0.9214353502829621
