M[M_sun], R[km], Lambda[1], P_c[MeV/fm^3], rho_c[fm^-3]
0.24162668629717493 15.618656898711224 2160425.4255784233 3.5677272577965504 0.1711233750220791
0.2536437623249526 15.277300967902475 1723255.2518963455 3.7848154566557244 0.17388812133351286
0.2660395182547994 14.981275603148395 1383038.6369146388 4.011392763526974 0.17666655573452003
0.27881417474853926 14.72353134041715 1116443.1639976387 4.247715399595299 0.1794573655837166
0.291967637720825 14.498488389507294 905966.1763254494 4.49440845345268 0.18226711538152662
0.305504599563763 14.301194497284309 738655.356469756 4.751626714416891 0.18509149542010778
0.31941986036799386 14.128136997382551 605148.6649159406 5.020053824662206 0.1879371542999988
0.3337171705305786 13.975965499978404 497688.484397137 5.299911942132159 0.19080067795231692
0.3483976801178192 13.842054687299418 411022.45710120146 5.591931895627784 0.19368840782807295
0.3634586585024037 13.724034979773649 340666.8296238573 5.8962781720273245 0.19659535536872547
0.37891294651929247 13.620021403728687 283314.1148202729 6.2138160013241155 0.19952922552449942
0.39474461091653196 13.528501488084322 236416.45477193609 6.544804501438557 0.20248622697336655
0.4109688167434127 13.447920925712761 197880.08963985593 6.889942675798334 0.20547001359719805
0.4275771791027751 13.37706590569529 166085.39941837295 7.249937107987431 0.20848368641101794
0.44457082389210034 13.314958967402047 139814.62999089688 7.625049286995343 0.21152283244232992
0.4619511306356021 13.260594749787563 117986.2927420856 8.016223177742633 0.21459353589454844
0.47971594640361026 13.213171401050603 99813.79310429019 8.42416604631207 0.2176974813389922
0.49787184367504855 13.17200821918194 84649.15764272271 8.849322259351096 0.2208321875439363
0.5164108016969939 13.136408470779033 71944.08019949208 9.292558101879315 0.2240009634727602
0.535327828390181 13.105875775946032 61282.57543785656 9.754761597759709 0.22720677620702495
0.5546331867279858 13.079839439394307 52304.158481886014 10.236742241922506 0.2304509765334145
0.5743149501572579 13.057851402456443 44733.828925509166 10.73897589666999 0.2337303212485176
0.5943705713903258 13.039539042188661 38331.59101098394 11.26269786035885 0.23705088082320272
0.6148073325117578 13.024511439525389 32626.98589604096 11.808850067829622 0.24041432740752308
0.6356111421206718 13.012438582594514 28295.402234692145 12.378411408683329 0.2438222937442661
0.656779479940871 13.003025489542742 24373.169192159003 12.972077425821267 0.24727280475637686
0.678311240782196 12.995979019386656 21029.9720202667 13.591161782057902 0.250770499710577
0.7001984339240009 12.99106912274255 18038.483815598658 14.236868247638784 0.25431808654229554
0.7224313404045196 12.987993802830985 15731.341378653662 14.910386359444919 0.2579175495836391
0.7450181091317033 12.986642853719733 13635.613783719868 15.612753355489952 0.2615688621105972
0.7679374594034654 12.98676268156989 11837.705476386684 16.34522018922732 0.26527376801282
0.79118131515649 12.988129429539706 10289.943650730658 17.109409948824922 0.2690370313455884
0.8147541504688092 12.990665915371972 8957.50152626918 17.90677748051944 0.27286108429443506
0.8386364850966928 12.994118798282635 7808.358804939845 18.73869500230049 0.27674707081040073
0.8628164799106931 12.998398964475921 6815.496248728279 19.606492963769306 0.2806953477523852
0.8872909502262016 13.003339713501392 5956.236143985947 20.51226356920937 0.28471233545042796
0.9120501160415745 13.008839576164679 5211.906648139729 21.457800673528688 0.28880104671035955
0.9370700714467967 13.014732653873494 4566.014798572243 22.444597050682468 0.29296147389952604
0.9623466556293645 13.020926925712443 4004.939014987994 23.47466045442145 0.2971972764223133
0.9878711808627141 13.02732264039269 3517.101228435774 24.550421242008085 0.301514622142121
1.013612064062604 13.033781543394083 3092.344925374328 25.673831654150085 0.30591521781712827
1.0395749455549355 13.040238070234158 2721.852517309077 26.846832539626977 0.3104001738971563
1.0657256742511918 13.046561954728727 2398.7362205507234 28.07252990193765 0.3149782974539991
1.092056081196238 13.052697546437809 2116.1027421936283 29.352989423585843 0.3196501091610971
1.1185531215025213 13.058527432753404 1868.9100550933601 30.690944684120595 0.32442014407476416
1.1451828833276083 13.063989311161743 1644.4559865814083 32.08981817677603 0.32929661424984463
1.1719447079736407 13.069004320188103 1462.2933734429466 33.55152466948211 0.3342770478318573
1.1988008716176808 13.073460454888242 1295.6172168032053 35.080618302251516 0.3393750928226368
1.2257456130746431 13.077328050083873 1149.2515546994025 36.67913699062798 0.34458760184966963
1.2527393607913688 13.08049422110221 1020.3440259106659 38.35211169625681 0.3499288835075046
1.2797808042239356 13.082929387952051 906.8476401506865 40.10178560042498 0.35539554389581335
1.3068233113988115 13.084525754300339 806.8687853208121 41.933643026268165 0.3610022202918223
1.3338599994242863 13.085240479879404 718.7247958163957 43.85113272678997 0.3667506502831927
1.360867716241089 13.08503286109198 640.741801816582 45.85898873740686 0.3726488441387257
1.3877975104956497 13.083777013442495 571.9094258328457 47.96252014796364 0.3787066289408582
1.4146540006339232 13.081488250302334 510.91726099498277 50.16645388978867 0.38492950875175874
1.4413761046263696 13.078039495282102 456.9497147847554 52.47606396294823 0.39132474018363506
1.4679706370348593 13.073442993049893 409.09696284579724 54.89773747569779 0.3979038684585736
1.4943797492455109 13.067581039718588 366.60905134943897 57.43766231746822 0.4046759512818455
1.520591297928546 13.060436547523244 328.9101868736385 60.10246430965639 0.411650756173634
1.5465731225405634 13.05195448865871 295.34465165699345 62.89924662717905 0.4188388189087884
1.5722898831199268 13.042077471416743 265.51350928329833 65.83563299411779 0.42625150672710477
1.5977131154434026 13.03075418803963 238.96971085202318 68.91981503655472 0.4339010868725198
1.6227994960609071 13.017936971887048 215.27316504288467 72.16060422331954 0.44180080108798125
1.6475523177205287 13.003600916654781 194.13687946186957 75.5674888793659 0.4499649467685089
1.671901234079473 12.987669896421432 175.2673425359093 79.15043473221752 0.4584078710809717
1.6958383499826248 12.970128874871978 158.39387148251888 82.91956860588867 0.46714258135326286
1.7193189770038932 12.95092110934179 143.30863413384355 86.88765382245506 0.4761907486428942
1.7423048903554983 12.929986093055692 129.80224399101925 91.06630658131992 0.48556687737696186
1.7647850827280633 12.907342749320913 117.7024227163016 95.4695281989453 0.4952925470077563
1.7867132753070822 12.882911482539065 106.84915638085502 100.11107004204594 0.5053856185841206
1.8080516413763101 12.856662675900235 97.10553129105712 105.00740893784055 0.5158716138617114
1.8287634675886566 12.82853396053432 88.34935722588213 110.1750801190534 0.526773061781261
1.8488448673216675 12.798575049859252 80.48236931859161 115.63166277481419 0.5381131601703163
1.8682306070912473 12.766674257254438 73.3964444081037 121.39744969319813 0.5499215675072777
1.886902098469948 12.73283105071181 67.02282472657579 127.4938109889086 0.5622279041963294
1.9048252577766318 12.697022875841713 61.267607641172496 133.94322746347245 0.5750616274876349
1.921969776138089 12.65921361692344 56.08595361913031 140.77126831747086 0.5884586502928201
1.9382856869154312 12.619333516986359 51.402601305882094 148.00565784073348 0.6024574283563775
1.953784498455445 12.577497713196989 47.17209134783036 155.67495483689243 0.6170939542077062
1.968402496016356 12.53357930658779 43.347345212069 163.81272469275075 0.632415571277626
1.9821203623571353 12.487587515033828 39.88738163940293 172.45266040985152 0.6484635997606173
1.9949129778098207 12.439519601738594 36.75206364402783 181.63417012826417 0.6652916383557302
2.006751359611647 12.389368980162793 33.909708919322824 191.39917378521804 0.6829538602131567
2.01760155381987 12.33710558082109 31.333049589563014 201.79368599511358 0.7015094732134612
2.027441647408108 12.28272896119126 28.997288252004402 212.86770713290065 0.7210213626788752
2.036253093867419 12.226273870582512 26.874200525419088 224.67655479662912 0.741559352180455
2.0440036404107116 12.16768869642999 24.94715119305659 237.2815134203499 0.7632010238868704
2.0506666160134572 12.106994434570487 23.192054589587475 250.74934593408824 0.7860286962540759
2.056243630320809 12.044258472415175 21.59748549822913 265.15306147255683 0.8101303005296653
2.060693234455778 11.979420577227554 20.145605302399193 280.57455487971066 0.8356061075236231
2.0640045697336418 11.912533700428856 18.823687505794712 297.10331463357517 0.8625623839691952
2.066169756356961 11.843645068210394 17.621681392857845 314.8397545092484 0.8911198295326604
2.067166321388937 11.7727648170202 16.526068553253044 333.89330019399387 0.9214044795860145
