M[M_sun], R[km], Lambda[1], P_c[MeV/fm^3], rho_c[fm^-3]
0.24162668629717493 15.618656898711224 2160425.4255784233 3.5677272577965504 0.1711233750220791
0.2536462710233902 15.277245527880485 1723124.4937824516 3.7848660963305125 0.1738887525326297
0.26604545065531676 14.981142669622857 1382909.2900041137 4.011499219192826 0.17666784218841602
0.27882315150596676 14.723406897986493 1116275.2648369113 4.247881273804119 0.17945928947457182
0.29198013189841465 14.498240614074279 905723.989378103 4.494638099894716 0.18226967254795684
0.3055195421743786 14.301065640274574 738509.2429082252 4.751927931836079 0.18509474914311708
0.31943842562099417 14.12793961492455 604975.7698529775 5.0204288329734545 0.1879410451559679
0.3337400715752809 13.975748396754527 497530.4753778462 5.300370615658213 0.19080529603364726
0.3484249206313721 13.841825706964816 410881.55736925564 5.592475380662429 0.19369366619529071
0.36349078375539623 13.723785097870861 340531.40369814524 5.896918680346068 0.19660137115840112
0.3789477756677946 13.619834091819687 283195.83455771446 6.214561285553317 0.1995360216192891
0.394785188453822 13.528266860720496 236317.35834846823 6.545653788876624 0.20249367407686727
0.41101405427720517 13.447693909515323 197783.79659332533 6.890912364009572 0.20547827186891882
0.4276266538362908 13.376873791983064 166007.40019651866 7.251036298273949 0.20849277973055996
0.44462548500638793 13.314790877090674 139737.99682506832 7.626274942317797 0.21153258944679046
0.4620104606984241 13.26040453724994 117919.44454927724 8.017596679239745 0.21460416103905688
0.47978199285632556 13.213009876185215 99755.90816279937 8.425698106570808 0.21770900029035695
0.4979424453270907 13.171885253113354 84596.10342835811 8.851007230257437 0.22084438745323087
0.5164877153445256 13.136280733779188 71899.35504380193 9.294423255165857 0.2240140942681762
0.5354109606403358 13.105734116081539 61242.23036712783 9.756819582321596 0.2272208662586903
0.5547210855903678 13.079721114057865 52271.304825969746 10.238993747993932 0.23046589179978713
0.5744106419956281 13.057774804703733 44700.81916966437 10.741436541336608 0.2337461193494896
0.5944727977302641 13.03944446757812 38303.671042010574 11.26539192601501 0.23706771339417504
0.6149152909797962 13.024445211563295 32878.247095988925 11.811793473158511 0.24043222822288607
0.6357260522975527 13.01239854938831 28271.815636198942 12.381621065640411 0.24384129836127505
0.6569025091132086 13.002973414590176 24352.444729735096 12.975538594928025 0.24729258737967189
0.67843996361267 12.995949605468846 21014.244356664516 13.594923620114875 0.2507914446170215
0.7003346710275772 12.991043865277678 18158.06074151241 14.240950929451166 0.2543402352903831
0.7225755541368137 12.987983589404799 15717.74261018401 14.914811356272562 0.257940946209882
0.7451682923014685 12.986647846740553 13622.660820664847 15.617500337645033 0.2615931255345763
0.7680965494588257 12.986762957886937 11826.385022939809 16.35035345114307 0.26529935603600346
0.7913486231669318 12.988146330026089 10281.023701187816 17.11495525908716 0.26906399631159406
0.8149278182227242 12.99069303100834 8948.095230622313 17.912762316381194 0.27288948191266277
0.8388180292959508 12.994161577446517 7751.012690868396 18.745092816411542 0.2767764654559231
0.8630050994482668 12.998437573537071 6765.804995225175 19.613386957590855 0.2807262767548481
0.8874922411096076 13.00338990701402 5949.7517836909965 20.51968693100702 0.2847448657728357
0.9122555770588836 13.008893085112852 5206.30446470289 21.465788864543594 0.28883524983100917
0.9372827624968667 13.014788418645816 4561.200736729608 22.4531167913959 0.2929968600520449
0.9625730485194567 13.020996603772023 4000.6250404039397 23.48381868114951 0.2972344707022303
0.9880999308569077 13.027379242011746 3513.0088139743884 24.56026107180311 0.3015537111147101
1.0138486418239991 13.033839737041905 3088.960557504768 25.68431499354386 0.30595567504282606
1.0398196596641467 13.04030704923477 2718.7812710633793 26.85808757424167 0.31044269339124164
1.0659788304923306 13.046626422179283 2395.881347325491 28.084609328774192 0.3150229845064048
1.08053604592234 13.043729373028139 2225.1027128063197 29.730972000998733 1.1284612222679211
