M[M_sun], R[km], Lambda[1], P_c[MeV/fm^3], rho_c[fm^-3]
0.24162668629717493 15.618656898711224 2160425.4255784233 3.5677272577965504 0.1711233750220791
0.25364459114354604 15.277261156752163 1723182.3982515568 3.7848302638882165 0.17388830589852264
0.26604039455795325 14.981276763068983 1382957.0603086518 4.011423891357351 0.17666693189597976
0.2788169990215324 14.723459687443125 1116365.9311522665 4.24776390120108 0.1794579281292533
0.2919716637169141 14.498399669387359 905891.1967486896 4.4944756016299525 0.18226786309206483
0.30550732938544395 14.301186328357415 738640.1173229767 4.751714789245336 0.18509244679634831
0.3194256516391476 14.1280869583984 605074.3324015583 5.020163475002294 0.18793829196459835
0.3337231971044574 13.975940333181038 497661.18702650734 5.300046054876498 0.19080202824511913
0.3484056457318114 13.841988456399784 410982.5232890651 5.592090805703448 0.19368994532676964
0.36346915445957156 13.723938079740751 340636.7579123424 5.8964654496840305 0.19659711432010943
0.37892330548773084 13.619963521537205 283278.92630255333 6.21403391299487 0.19953121261655396
0.3947564886078953 13.528405674697863 236397.46501418413 6.545052820955624 0.202488404400068
0.4109821719887647 13.447852025841758 197851.47904341074 6.890226197096764 0.20547242818355058
0.4275904369655884 13.377055241148188 166070.12255146776 7.250258491719335 0.2084863451362684
0.4445868956729149 13.314928048702956 139792.886369059 7.625407644963693 0.2115256852021814
0.4619693539445823 13.260548527697589 117970.68349780339 8.016624760746378 0.21459664246374832
0.479734925609997 13.213127816780306 99797.63397449849 8.424613985978088 0.21770084921907246
0.49789383068055926 13.171945987982467 84636.50472884413 8.849814904117785 0.22083575450253803
0.5164326519505944 13.136380083428463 71929.7871924513 9.293103424506475 0.2240048025780523
0.5353520562600953 13.105821263292752 61269.48417986154 9.755363295845715 0.2272108957506191
0.5546593420149287 13.079787820553548 52299.49701204094 10.237404237754872 0.23045538516741262
0.574343524515073 13.057833347158278 44322.00920495323 10.73969531390933 0.23373494013004173
0.5944014531590316 13.039502899550946 38323.08699157402 11.263485518326819 0.2370558021244403
0.6148392321270659 13.024487617648532 32619.31730475474 11.809710619848124 0.2404195609995949
0.6356445262934801 13.01242104389585 28287.984351851796 12.379349798392354 0.24382785001936452
0.6568161250322146 13.003010383834027 24367.599458897315 12.973089343972632 0.2472785884655735
0.6783486779677143 12.995971140119416 21024.755319163076 13.592261598572401 0.2507766231942713
0.7002379221732685 12.99106325209925 18170.003092257808 14.238061859831092 0.25432456194669306
0.7224733857721787 12.987999785927398 15726.134823177606 14.911680043554945 0.2579243897791867
0.7450624719307155 12.986639279837332 13631.932808999583 15.614141168220353 0.26157595568870246
0.7679839483921843 12.986761766888002 11834.221601909176 16.346720925084465 0.2652812488046703
0.7912297314297253 12.988136488323372 10287.005222168813 17.111031140054138 0.26904491464955466
0.8148052603492556 12.990675279187577 8955.011621300662 17.908527158759732 0.27286938639257724
0.8386900514585871 12.994138960328177 7806.56297994028 18.740565406904693 0.2767556643517837
0.8628703910941415 12.998412719729126 6812.903155451836 19.608508415372505 0.28070438981264995
0.8873537295332565 13.003358775732304 5954.227255323743 20.514433768600245 0.2847218456006535
0.9121103169810718 13.008851493802997 5210.2001842761465 21.46013598580264 0.28881104584124057
0.9371306035886049 13.01474668595832 4564.330761751228 22.44708774757873 0.29297181883644535
0.9624165457636117 13.020958087495652 4003.8369292219536 23.47733779350714 0.2972081498918553
0.9879384240776036 13.027348997779152 3515.8717749997077 24.553297825868572 0.30152604944422023
1.0136819502174441 13.033795139211104 3091.5526996843923 25.676896347655052 0.30592704505959056
1.0396473442179635 13.040258174466185 2720.9309836646926 26.850122810604958 0.3104126039484335
1.065798984595086 13.046585821255054 2397.70466538124 28.076061152749908 0.31499136108625914
1.0921321366226253 13.052710007991221 2115.2364550843417 29.35674913853145 0.31966364182642454
1.1186312807323453 13.058548537301936 1868.2465716780844 30.694977751983366 0.3244343709829864
1.1452636122083992 13.064008348259152 1651.7295058648835 32.09411143410553 0.32931136545915995
1.1720271198418208 13.06901227133222 1461.7613091659102 33.55612847746324 0.3342925631394261
1.198884604217662 13.073470707674886 1295.130165989755 35.08555439079298 0.3393914151292668
1.2258315005780474 13.077337391998674 1148.8241754065036 36.68439103517205 0.34460455058406014
1.2528285007718603 13.080502648637792 1019.9440472968089 38.35771242455078 0.34994653978508455
1.2798721457513542 13.082941668048074 906.4924807659519 40.1077817792607 0.3554140940699371
1.306916152175915 13.084520062107913 806.6108351614646 41.940027717311814 0.3610215221801237
1.3339550824459543 13.0852398958209 718.4427791384347 43.857977515623986 0.3667709965354715
1.3609631821355404 13.085031389422586 640.499281764978 45.86627928147114 0.372670044050519
1.38789524254403 13.083771853729322 571.6802362919387 47.970287588418465 0.378728737583777
1.4147456025910738 13.081464145959375 510.7198836639936 50.17478340229771 0.3849528489637404
1.4414769124250595 13.078023350538734 456.7813385177485 52.48494232420471 0.39134911683721085
1.4680718916769948 13.073424189730924 408.9182568986864 54.907203999541835 0.39792935063824464
1.494480857028318 13.067556200421024 366.4340277722413 57.447759502283546 0.4047026134128177
1.5206932413309335 13.060408843314748 328.75156982954803 60.11323812349882 0.41167867846041944
1.5466773255731237 13.051918989190884 295.21734716934907 62.91074682135537 0.4188680878172731
1.57239346906259 13.042035165041538 265.40202115680097 65.84791344838514 0.42628221551475115
1.5978073421517232 13.030696461970585 238.8561031495866 68.93293413949361 0.43393333617191454
1.622905446164339 13.017876868420322 215.18604166218122 72.17462529187031 0.44183469954955923
1.6476568605987203 13.003538044057725 194.0483917566858 75.58248062201643 0.4500006117689955
1.6720057628242562 12.987598080785284 175.18905213704838 79.16639347600723 0.4584451026476532
1.695943224812088 12.970044549909868 158.3305826218397 82.93665005937206 0.46718183448361844
1.7194235711149757 12.950829938288544 143.24417170400224 86.905945919746 0.4762321712433751
1.7424016513741258 12.929877421824843 129.75309469968548 91.08581693624205 0.4856102807351601
1.764887373354619 12.907235057805472 117.65064384026026 95.49044476921883 0.4953384426333796
1.7868139439093504 12.882794856241901 106.7991059942134 100.13341104055465 0.5054338294896655
1.8081517676488434 12.856534451575143 97.05888189238222 105.03129021818796 0.5159223258105863
1.8288610173953144 12.828393807922696 88.3070310035508 110.20062804973296 0.5268264757083642
1.8489402285380987 12.7984228278678 80.4443517572357 115.65911969086044 0.5381698766842146
1.8683160534031968 12.76648029754766 73.3698149187522 121.42686555208694 0.5499814474162656
1.8869939244835918 12.732655975065212 66.99457001810545 127.52530478921481 0.5622910397407856
1.9049157786752633 12.696836548692275 61.24215383519344 133.9769563051932 0.5751282186939041
1.9220561063353467 12.659013726632617 56.060835443508275 140.80749566698577 0.5885292349462399
1.9383687564865928 12.619120961646185 51.37908941626608 148.04460065319697 0.6025323367936767
1.9538645669762373 12.577272930446748 47.15292614699842 155.71672312879707 0.6171731093019304
1.9684782991393333 12.533337025865569 43.32922912740616 163.8575715878534 0.6324993456503815
1.9821917048700979 12.487328987130475 39.86927649530798 172.50099885467353 0.648552851413765
1.994980572649195 12.439249207174923 36.73546877485209 181.68617535935365 0.6653863666052531
2.0068149939641824 12.389084577724967 33.895851270334255 191.45518353051062 0.683054549604005
2.0176597632157374 12.3368049544442 31.32021431274057 201.8540728087364 0.7016166538509738
2.027494730114664 12.282415566601006 28.98432851645918 212.9327301444681 0.7211351165474092
2.036302691020079 12.225943396669923 26.863422906954625 224.74681587748975 0.7416808001314017
2.0440455377278397 12.167342284894739 24.936526761802305 237.35735487722167 0.7633303405377516
2.050702627223783 12.106630459029379 23.181840086315614 250.83131572414382 0.7861666201892262
2.0562738377927676 12.043877126047956 21.589115495710956 265.24193626166675 0.8102781933422606
2.06071788023014 11.97902296346038 20.137187420491067 280.6706724919023 0.8357637627787956
2.0640216576328414 11.912122729893435 18.817399502893487 297.2075953219912 0.8627313373695592
2.066180265336693 11.843214090421089 17.614954621265365 314.95303568710784 0.8913011704177206
2.0671697379439946 11.77231570392893 16.520088108031022 334.0163290386173 0.9215987938186224
