M[M_sun], R[km], Lambda[1], P_c[MeV/fm^3], rho_c[fm^-3]
0.24162668629717493 15.618656898711224 2160425.4255784233 3.5677272577965504 0.1711233750220791
0.25364497762951327 15.277248041912754 1723249.9125018273 3.784837248240328 0.17388839295510233
0.2660408547700664 14.981273894687213 1382924.92163525 4.0114385739535585 0.17666710932648985
0.27881755946303455 14.723482107220669 1116405.738100161 4.247786778873377 0.17945819347577602
0.2919734027309279 14.498374486162193 905865.3855907924 4.49450727480606 0.18226821578023175
0.30551009970690873 14.3011660708878 738630.7248718353 4.751756333491842 0.18509289555349895
0.3194297100272043 14.127995801081168 605042.2917679066 5.020215196449068 0.18793882859457126
0.3337251165517696 13.975980269447545 497663.75848643604 5.3001093153418015 0.19080266517303665
0.348409414895922 13.841956446106254 410964.71688024054 5.592165763240156 0.1936906705615574
0.3634731628474328 13.723921104559604 340632.6111929144 5.896553788475048 0.19659794401672914
0.3789283423505372 13.619964359170906 283271.45874870487 6.214136702216227 0.19953214993048646
0.3947621128565683 13.528386968423373 236375.83973834306 6.5451699539924535 0.202489431498562
0.4109883939150942 13.44782387402456 197839.5737082966 6.890359935399393 0.20547356715505685
0.4275974237814977 13.377008597160202 166051.02974994207 7.250410090450868 0.20848759927372293
0.4445940500071129 13.314897992935407 139781.46768569647 7.62557668521932 0.21152703087130872
0.4619777514078454 13.260511979955087 117962.50282300089 8.016814191258543 0.21459810786190792
0.47974368986926325 13.213112719470386 99793.9692345259 8.424825284110797 0.2177024378856411
0.49790310067750027 13.171934360800314 84625.78870436735 8.850047290863012 0.2208374370818647
0.5164429906974317 13.13636385717906 71924.46129115624 9.29336066095513 0.22400661353868767
0.535363154705181 13.105812476188794 61263.18596842388 9.755647126383137 0.22721283900471856
0.5546722010556987 13.079787345182657 52295.3367288308 10.237716331256623 0.23045746246325094
0.5743565863710399 13.057827787032606 44317.641166901914 10.740034676616144 0.23373711894374088
0.5944149360200411 13.039517209182703 38321.57399743003 11.263857072745415 0.23705812360317144
0.6148543007428601 13.024478569764925 32894.21079194686 11.810116561271919 0.2404220298007499
0.6356604206724344 13.012430082016861 28284.963944112682 12.37979245908748 0.2438304710461871
0.6568328430266939 13.003000068808019 24364.954509376992 12.973566691149564 0.24728131678629142
0.678366315095116 12.995973095866384 21022.3156819376 13.592780411374884 0.2507795118049572
0.7002568891646977 12.991058896681986 18167.584192107646 14.238624920472779 0.25432761657815445
0.7224932981488501 12.988003586060422 15724.60653334524 14.912290313029567 0.25792761650394186
0.7450834704416538 12.98665253892667 13630.337380020197 15.614795842824142 0.2615793019510142
0.7680055536343026 12.986752756331503 11832.900604560487 16.347428871464604 0.26528477773981624
0.7912538329336066 12.988140576305156 10287.182042250673 17.111795911801007 0.2690486334755862
0.8148316985846692 12.990667236146122 8953.522596272129 17.909352545085344 0.2728733027916743
0.8387146775053962 12.994139598220395 7805.109460442479 18.741447746682315 0.27675971824652706
0.8628977273275125 12.998418800549539 6769.818473928511 19.609459182518535 0.2807086553052167
0.8873809548170287 13.003367256536222 5953.341583749258 20.51545753986137 0.284726331925058
0.9121387617932655 13.008856971749099 5209.300307765153 21.461237651360836 0.28881576285413274
0.9371617158381608 13.014754129406418 4563.793133920675 22.448262717955537 0.29297669899446394
0.96244707884536 13.02096077393752 4003.1680149936506 23.478600815593143 0.29721327939982695
0.9879689434115538 13.027352323082681 3515.363382959118 24.554654845551624 0.30153144023921347
1.0137137634764577 13.033811719171124 3090.763732983462 25.678342111642692 0.3059326245412573
1.0396798392035826 13.040270085462645 2720.4325351257353 26.851674995969688 0.3104184678252402
1.0658343883973513 13.046593441762246 2397.3422740261585 28.077727026404514 0.3149975238772849
1.0921693128545678 13.052722060376977 2114.9059442263233 29.358522795753903 0.31967002590339433
1.1186691430099114 13.058555056594331 1867.6777901578246 30.696880371331176 0.32444108259602245
1.1453014286693657 13.0640093876899 1651.4665482382295 32.09613680518255 0.3293183244346896
1.1720660775916378 13.069020802845944 1461.4978264892723 33.558300360957084 0.33429988261073096
1.198924091086192 13.073475636572672 1294.8896985694723 35.087883039217296 0.33939911533830797
1.2258722943326092 13.077341331553622 1148.5849250993917 36.68686969020698 0.34461254634151534
1.2528698705306223 13.080499172090587 1019.7922905649176 38.360351146648604 0.34995484886800543
1.2799147119737542 13.08294524421246 906.3321735183857 40.110610564717874 0.3554228453871055
1.3069588756496442 13.084522982490043 806.4433723639804 41.943039798942934 0.36103062815922293
1.3339994916473545 13.085240386093837 718.3210360929016 43.8612066690131 0.3667805952493391
1.361008497002277 13.085032502988396 640.3556623933081 45.86971873959626 0.3726800455275318
1.3879410916307704 13.083769249511134 571.5735483967429 47.97395204443524 0.37873916780851286
1.4147917230608802 13.081461700010241 510.590240067912 50.178713044565356 0.3849638602544298
1.4415234579182923 13.078018504738578 456.6923992315562 52.48913091366215 0.39136061713453213
1.4681192629709965 13.073414309276544 408.8468432584414 54.911670085720566 0.39794137253902967
1.4945313223363337 13.067544204481019 366.3878737238844 57.45252313739504 0.4047151920340442
1.5207419526105648 13.06039177382159 328.70539729221275 60.118320996988345 0.41169185164619604
1.5467283031801022 13.051897899195895 295.1616956812094 62.91617240788312 0.41888189636633943
1.5724427842199666 13.04201363005149 265.34671222542676 65.85370717072941 0.4262967034306929
1.5978574753712294 13.030674002955873 238.81213424110277 68.93912354805514 0.4339485509385572
1.6229542172640856 13.017852282725638 215.14041333634216 72.18124026266038 0.4418506924342922
1.6477067705159758 13.003505635621188 194.0078313091648 75.58955357524563 0.45001743815711065
1.6720555085273738 12.987565075140717 175.14761767850763 79.17392267800312 0.45846266818976994
1.6959923701557504 12.970006111157906 158.29368068805297 82.94470898246159 0.4672003538654068
1.7194726161302447 12.950787671339889 143.2144909709674 86.91457605657499 0.4762517142571846
1.7424527210449383 12.929832341274127 129.71975005108055 91.09502187876122 0.48563075834404773
1.7649360696333731 12.907181537986798 117.62440701332343 95.50031320861437 0.49536009619292887
1.7868619623273714 12.882742879723935 106.77647885002911 100.14395157007357 0.5054565754950795
1.8081987860410578 12.856473159561302 97.04131824756234 105.0425575053352 0.5159462519184607
1.8289127871514994 12.828339864147269 88.28975088255751 110.21268172408097 0.526851676735055
1.8489859987146768 12.798349901145032 80.42689393043831 115.67207410579836 0.5381966360352514
1.8683595908515824 12.766404058880868 73.35207516128925 121.44074428052568 0.5500096994213803
1.8870353469931762 12.732575073395749 66.97619576200381 127.54013298969589 0.5623207172100443
1.9049572861783677 12.696747738905389 61.22779560536762 133.99287009792292 0.5751596374619413
1.9220961206446059 12.658920419769661 56.047053049038986 140.8245883856174 0.5885625380621667
1.938407810233558 12.619020212404527 51.367869483820925 148.06297467735058 0.6025676801433009
1.953901714944095 12.57716466081176 47.142279595727395 155.73643037248263 0.6172104565014375
1.968514926691937 12.533225081983266 43.32195242307459 163.87873149913852 0.6325388725405131
1.9822257018544909 12.487213052438369 39.85932981600679 172.5238063065095 0.6485949628798648
1.9950100519199407 12.439121230235713 36.728440155418866 181.7107130445452 0.6654310623390637
2.0068441465128974 12.388950465046028 33.88681637184275 191.4816108259153 0.6831020582699018
2.0176873462039913 12.336663339847957 31.312274277746546 201.8825655276811 0.7016672256165257
2.027519694415068 12.282269318937162 28.978455435905936 212.96341057071788 0.7211887901175816
2.0363249078298145 12.2257864795142 26.857782715011005 224.77996805039695 0.741738104451513
2.0440648419540075 12.167180335552109 24.931527562048448 237.39314033603725 0.7633913580323404
2.050720458933405 12.106458547194725 23.177793222394143 250.8699930654988 0.7862316994228952
2.056288166796208 12.043697771891686 21.584845040865865 265.2838482055438 0.8103478992764683
2.0607286121400548 11.978835322745237 20.133152815793764 280.71602610181253 0.8358381532550087
2.064028703875915 11.91192628502933 18.813567549158773 297.25680108945846 0.8628110595296004
2.0661849605664857 11.843010429745592 17.61138562229873 315.00648882890624 0.891386738384316
2.0671715659719587 11.772106763995712 16.516980940293344 334.0743821816433 0.9216904841207796
