M[M_sun], R[km], Lambda[1], P_c[MeV/fm^3], rho_c[fm^-3]
0.24162668629717493 15.618656898711224 2160425.4255784233 3.5677272577965504 0.1711233750220791
0.2536404824336316 15.277368328334427 1723174.131000723 3.7847730157827195 0.173887592328505
0.2660343497967333 14.981384229892612 1383292.8774540497 4.011303545091255 0.17666547758237747
0.27880652242429405 14.723679829623723 1116641.171803063 4.247576385970037 0.17945575323515262
0.29195865212709327 14.498577136773061 906066.876896684 4.494215997613076 0.18226497234108596
0.3054898418305466 14.301432474963242 738817.6181708742 4.751374282524843 0.18508876867390014
0.319403149514473 14.128350958745397 605267.1327145635 5.019739558086489 0.18793389366297997
0.333697455359549 13.976151705662534 497823.0363836147 5.299527568202822 0.19079680794464018
0.3483740336969068 13.842262944229528 411153.68257282185 5.591476455529096 0.19368400131983088
0.36343269302650716 13.724224211825724 340774.4990329724 5.895741434996146 0.19659031422094297
0.3788828551916079 13.620219436274017 283415.1090137868 6.213191473377097 0.19952353058160321
0.3947103910130783 13.528673468272485 236505.10444993712 6.5440928318619855 0.20247998659259853
0.41093119774660264 13.448091328165185 197961.04331709346 6.889130127638477 0.2054630935960961
0.42753526936711594 13.377244009264459 166168.12854259668 7.249016057975186 0.20847606680031153
0.4445242373119433 13.315131108390252 139879.74941661826 7.624022281614445 0.2115146568191357
0.46190109277079866 13.260732661650508 118042.21742719569 8.015072305950019 0.2145846329707927
0.4796602984925909 13.213338564813109 99867.83852383363 8.42288233570122 0.2176878296297931
0.49781202165612576 13.17213105416991 84693.69724543727 8.847910443815172 0.22082196539623383
0.5163444010579039 13.136535273023743 71982.6904703111 9.290995337003121 0.22398996151060477
0.5352573688048964 13.105962010233972 61316.90660626095 9.75303728990616 0.22719497068273023
0.5545590325264804 13.079922804454354 52338.32691915492 10.234845153843526 0.23043834266686494
0.5742326961155405 13.057953346723732 44359.8545402125 10.73691427153384 0.23371708497653196
0.5942850246022595 13.039628411784594 38354.86558505185 11.260440698881041 0.2370367780374431
0.6147169844962114 13.024576812502701 32926.795980058414 11.806384038768917 0.24039932983635534
0.6355119758911936 13.012498485667345 28317.35273922489 12.37572234922359 0.24380637162366878
0.6566730683465731 13.003091697223061 24390.38059920962 12.969177684351767 0.24725623102323213
0.678202724881899 12.996021949801149 20883.417104363878 13.588010188137636 0.2507529524799915
0.7000843293756372 12.99108563476492 18188.164253480394 14.233447906811778 0.25429953102637926
0.7223107749576887 12.988014127970734 15742.795069571981 14.906679291916122 0.25789794892022466
0.744891362007213 12.986652565803242 13646.578559579331 15.608776590687976 0.26154853552682183
0.7678050010375989 12.986757284213981 11846.681195307414 16.340919882700657 0.2652523320633387
0.7910424965413007 12.988114125830679 10299.468944453321 17.104764523294822 0.2690144422143086
0.8146096988892841 12.990647753686979 8965.04987645798 17.901763928370983 0.2728372953479768
0.8384844638502116 12.994097277006974 7814.725195418973 18.733335558611003 0.2767224469396982
0.8626580299539304 12.998367415792915 6821.611819964621 19.60071795574295 0.28066943893347795
0.8871257239016294 13.003318531246594 5961.648966184193 20.50604520860376 0.2846850856300821
0.911878060990269 13.008807323881836 5216.440777591697 21.451109269511978 0.28877239605610355
0.936891445238836 13.014688430618065 4570.144711495625 22.437460473846883 0.2929318326223017
0.9621623697577295 13.020882652358887 4009.0216997545863 23.466989163934137 0.29716612103228185
0.9876789402485511 13.027278206557776 3520.4931768368574 24.54217913890974 0.3014818801792213
1.0134191348088293 13.033741124885367 3095.5929014375447 25.665050638019114 0.3058813301847506
1.0393690921787635 13.040190151857049 2724.5845341373606 26.837405283874745 0.31036455942248603
1.0655171442222842 13.046525192915 2401.144244031485 28.062412289391002 0.3149408680057139
1.0918394018842033 13.052646791403085 2118.4482526921433 29.342217307102025 0.3196113361558686
1.118328865267118 13.058484947673726 1870.8891908047601 30.679389485009256 0.32437938236114067
1.1449532132471647 13.063946381598688 1653.9447505522494 32.07751760225218 0.32925435068733855
1.1717086279409792 13.068956211005816 1463.9265934851364 33.538334469755895 0.3342325954988134
1.198557252392551 13.07341936338293 1297.0538821641587 35.06647623976499 0.33932832885591563
1.2254971509826558 13.0772920320351 1150.4706011317755 36.664084096660794 0.3445390435438694
1.2524861917877697 13.08046058735907 1021.4655031860951 38.33597482323064 0.349877765431312
1.279521851644522 13.082913940858726 907.8839267296343 40.08460680536845 0.3553423984429731
1.3065595986746121 13.084511404447477 807.8592007978287 41.91535131723437 0.36094692168423137
1.333589225637736 13.085230387181095 719.5045807758676 43.83152307849829 0.36669236026710655
1.3605915480937147 13.08504274149247 641.4752139315266 45.83810222936787 0.37258810901056594
1.3875190208985997 13.083797099742679 572.5654452461074 47.940267591686755 0.3786432909824128
1.414369873722371 13.081523108591753 511.503217523014 50.142591348192646 0.38486264328050024
1.4410971657405316 13.07809922786648 457.4960899920064 52.45062930792155 0.3912549061504735
1.4676790045329609 13.073502441730742 409.56935764971297 54.87061811703253 0.39783086802235706
1.4940858900153555 13.067650872640343 367.06352968230925 57.408736546557 0.40459957130994145
1.5202946545725362 13.060526528027655 329.2940628223422 60.0716004832521 0.41157076698644723
1.5462759301076174 13.05205945056785 295.7143680052936 62.86630226972393 0.41875497289987257
1.5719899668688073 13.04220060328898 265.8412832289664 65.80045380957705 0.42616353684552577
1.5974119679359764 13.030899382325366 239.26465077453878 68.88223381958322 0.4338087049525534
1.6224981550172561 13.018103716944681 215.52953761120318 72.12043965834357 0.44170369600945586
1.6472509070294794 13.003786901284403 194.38116461627962 75.52454421474462 0.44986278242909106
1.6715997656726425 12.987881722899067 175.48357087925223 79.10472047647687 0.4583012202453338
1.6955385847298752 12.97036182770095 158.60348519459524 82.87063889237861 0.4670301410141232
1.7190113286171236 12.951171866431219 143.4929780897467 86.83525685823106 0.4760720952987237
1.7420170854178179 12.930291659827802 129.97676605219908 91.01042055337008 0.4854425515356809
1.7644954001470585 12.907664896677689 117.8533532839281 95.40961492533836 0.49516108390747876
1.7864218661990947 12.88325573785354 106.97960858947512 100.04707736040132 0.5052475251533753
1.8077642693426177 12.85703290419595 97.22805310169358 104.93900512174646 0.5157263582148557
1.8284917559255038 12.828960464854584 88.46436365861412 110.101671773269 0.5266192066591929
1.8485671299377937 12.799008069347998 80.58374246403709 115.55301920723142 0.5379507096974991
1.867960603620085 12.767140321417473 73.491468104712 121.31319628505334 0.5497500584437245
1.8866388954645217 12.733335545439433 67.10977300616538 127.40347487628097 0.5620466003390903
1.9045700229058455 12.697557906615996 61.34957345843932 133.84662314580115 0.5748709005691773
1.9217221662890704 12.659789533288894 56.157213336727835 140.6675093604668 0.588256488387039
1.9380539499910852 12.619971480405793 51.46887706463302 147.89412312102758 0.6022428857738248
1.9535489168474547 12.578121113300064 47.234041751166316 155.55532935503945 0.6168672519449152
1.9681848298859885 12.53426819868263 43.402946112520866 163.68400957232646 0.632174714357193
1.9819165961207383 12.4883215395652 39.93854715143446 172.3142219577431 0.6482079882953463
1.9947175238559398 12.440291719919799 36.79830546662091 181.48523243889744 0.6650203462894108
2.006565470363786 12.390168946897647 33.95586386539654 191.2387700595698 0.6826655005118055
2.017434627669279 12.337964530619812 31.37200155279766 201.62074976544687 0.7012025284645552
2.027289044512019 12.283633926741736 29.034872645455522 212.6814965708602 0.7206955984412095
2.0361184373328833 12.227222199365492 26.9080272087282 224.47534712408367 0.7412115599283848
2.0438829476548914 12.168687525324192 24.977266361443643 237.06432875663057 0.7628307040843059
2.050563443791362 12.108042028536481 23.219957267694912 250.5141545734813 0.7856322325196288
2.056151489326572 12.045323469963254 21.623349255696755 264.89856301159983 0.8097068003045839
2.0606267018720024 11.98055572650804 20.169237505653037 280.2990672566735 0.8351538313745357
2.063962046075663 11.913732222060585 18.846884161007257 296.8047115108888 0.8620785934064028
2.0661413903000905 11.844877286692288 17.642157263787936 314.51538547538945 0.8906005785079311
2.0671602993936378 11.77404890776124 16.545982851215488 333.5410267699283 0.9208480918521055
