M[M_sun], R[km], Lambda[1], P_c[MeV/fm^3], rho_c[fm^-3]
0.24162668629717493 15.618656898711224 2160425.4255784233 3.5677272577965504 0.1711233750220791
0.2536447462674658 15.277248218068134 1723229.9417765196 3.78483387482572 0.17388835090711663
0.2660407705830033 14.981257127450617 1382952.7689682832 4.011431482312536 0.17666702362819328
0.2788171119133516 14.723474739740713 1116368.016085775 4.247775729032931 0.1794580653142786
0.29197249735853265 14.498382129432628 905842.0920063514 4.4944919767564695 0.18226804543289907
0.30550906642479037 14.3011857510828 738605.0017310963 4.751736267731706 0.18509267880499342
0.3194260592261887 14.128078661531031 605057.3799734486 5.020190215113134 0.18793856940356904
0.3337265388317714 13.97589766533589 497663.3526908093 5.300078760668071 0.19080235753817154
0.3484075872001613 13.841972071851162 410972.326501367 5.5921295588838955 0.1936903202744511
0.36347061418962284 13.72394637473163 340632.00490246684 5.896511120970618 0.19659754327449813
0.3789254332486731 13.619958981972825 283277.46112418774 6.214087055145161 0.19953169720897732
0.3947593590306907 13.528402459129724 236397.36018861187 6.54511337884408 0.20248893541094004
0.41098541172519754 13.447817773937167 197835.55140574652 6.890295339884318 0.20547301703254403
0.42759378148551264 13.377020453533897 166065.1559580684 7.250336868316416 0.20848699352576985
0.4445911149976267 13.314880452719516 139786.55070667368 7.625495038791275 0.21152638091324302
0.46197365333468154 13.260526214240176 117961.56435796636 8.016722696284893 0.2145974000743162
0.47973996300702454 13.213111386388583 99807.5228666514 8.424723227012755 0.217701670558937
0.49789782069507915 13.171955844789121 84630.00623431774 8.849935047897672 0.22083662439483792
0.5164377730420805 13.136371068164792 71926.1528561553 9.29323641549365 0.22400573884289304
0.5353578791722355 13.105812680565313 61266.315297337016 9.755510035871657 0.22721190041051073
0.5546657023641491 13.079780009844583 52295.59844886397 10.237565683455273 0.23045646033279713
0.5743502184308561 13.057815712963942 44720.833022661245 10.739870763821855 0.23373606657282772
0.5944080397911249 13.039507223614454 38320.54111725197 11.263677611195053 0.2370570023241572
0.6148466593002845 13.024484921809842 32895.94557136656 11.809920490616197 0.24042083736402645
0.6356525417728685 13.01242059043391 28286.067032420528 12.379578652817013 0.24382920508339462
0.6568248564110885 13.003002497813894 24366.155600198614 12.973336131108221 0.24727999899964068
0.6783579222814454 12.99596906993454 21023.529754960433 13.592529823177637 0.25077811659701155
0.7002476603514919 12.991060452702051 18168.55669819784 14.238352960278315 0.2543261411808264
0.7224830690736228 12.987993977092552 15725.165862318023 14.911995550642777 0.25792605798409135
0.7450731874971516 12.9866391811317 13630.977551243299 15.614479632450037 0.2615776856933324
0.7679964746649626 12.98674906326137 11833.679822808424 16.34708693042282 0.2652830732494847
0.7912418799617824 12.98814360044077 10286.079227934748 17.111426523661997 0.2690468372661516
0.8148191187336852 12.99067402900054 8954.384793731331 17.908953879610017 0.27287141115249985
0.8387015386636385 12.994145039182422 7805.725393016683 18.741021572223993 0.27675776019539966
0.8628836002302765 12.998410811952713 6812.347991573446 19.608999957042073 0.2807065950501222
0.8873681791271303 13.003358681169194 5953.83881896161 20.514963052733766 0.2847241650057934
0.9121255062049586 13.008856511515607 5209.853560432708 21.46070554055372 0.28881348450974903
0.9371466842542071 13.014749799495828 4564.067233870839 22.447695200233177 0.29297434184894083
0.9624323285553962 13.020966065389441 4003.439274410148 23.477990768012514 0.2972108018153392
0.9879541530670625 13.027343612626307 3515.5931187776805 24.553999396157373 0.30152883644992656
1.0136981251475936 13.033803043617533 3090.95324371215 25.677643797835785 0.3059299296137888
1.0396642406452468 13.040261970523462 2720.642118766248 26.8509252794692 0.3104156355313024
1.065817383617095 13.046588488591697 2397.5815956358533 28.076922397172293 0.3149945472038753
1.0921509279988155 13.052718673590649 2115.0725959377155 29.35766610584763 0.319666942345742
1.1186500110833208 13.058550259525727 1867.8261900328027 30.695961391175885 0.3244378408339762
1.1452840824208104 13.064001352625812 1651.5963968244332 32.095158534486714 0.3293149631929345
1.1720477026218654 13.069017947571547 1461.5910096634623 33.55725132291647 0.33429634724437374
1.1989050769260474 13.07347785452164 1295.0150181839406 35.08675828168114 0.33939539607005836
1.225852586755999 13.077338176174162 1148.7085446515034 36.68567247754831 0.344608684318803
1.2528504232545885 13.080502424304957 1019.8074809795993 38.35907661949148 0.34995083550417216
1.2798931872592527 13.082945197841331 906.4013789769967 40.10924423430468 0.3554186184172686
1.306937988517625 13.084523185960734 806.5375353191706 41.941584933938785 0.3610262298819043
1.3339767778095026 13.085239116009182 718.3757279028821 43.859646955165225 0.3667759589731586
1.3609861109983281 13.085031853331609 640.4208911045466 45.86805744549769 0.37267521470996295
1.3879187505007196 13.08377239637581 571.6126532521599 47.97218207300283 0.378734129898457
1.4147698192229123 13.081460356278672 510.6560004302644 50.17681498399826 0.38495854167955024
1.441500639764063 13.07802209168329 456.72576531282516 52.48710777754814 0.3913550623607666
1.4680962860209816 13.0734195686328 408.8838343927158 54.909512914246456 0.39793556582138023
1.4945061691040422 13.067549045272054 366.4106955308697 57.45022224491308 0.40470911641021157
1.5207192745144218 13.06039996242648 328.7451514690269 60.11586590702176 0.41168548883659734
1.5467028482865894 13.05190965067768 295.1892617592371 62.913551781646554 0.4188752266642184
1.572419019956244 13.042024553100918 265.36995274116333 65.85090872844087 0.42628970558125606
1.5978321983816168 13.030685478121605 238.82859354115072 68.93613398222907 0.4339412020059485
1.622930517084264 13.017862599913286 215.16418817742814 72.1780451424725 0.4418429676550763
1.6476828518743534 13.003521528417576 194.02612088531535 75.58613724094609 0.4500093107787734
1.6720314692961729 12.987583525870686 175.16989448281018 79.17028596704446 0.4584541837847101
1.6959688579847207 12.970023730733283 158.30910350039488 82.94081640584456 0.4671914087356779
1.719448947057697 12.950808103303515 143.22878588232572 86.91040757227987 0.47624227469118946
1.7424252710983177 12.9298313196587 129.74271151975373 91.0905757518401 0.48562086734820875
1.7649127374421076 12.907206359793536 117.63494496461081 95.49554659882597 0.49534963718672087
1.786838933956012 12.882766605604333 106.78785444855656 100.13886032671337 0.5054455888127856
1.8081765449754228 12.856502166759666 97.05070317420846 105.03711522252608 0.515934695219508
1.8288850415581386 12.82836039486097 88.29925590585367 110.20685959909812 0.5268395042204462
1.8489639593822516 12.798385170399733 80.43229426209045 115.66581690259878 0.5381837108126358
1.8683389531926806 12.766440664236363 73.35996591963305 121.43404061278868 0.549996053210488
1.8870154066651588 12.73261459507189 66.98329125573518 127.53297070526158 0.5623063824648139
1.904937585980995 12.69678999458223 61.23443721249159 133.98518344656367 0.5751444616254741
1.9220767470620783 12.658965365215243 56.05456612653945 140.81633228431753 0.5885464520371979
1.9383907451638307 12.619067274891878 51.37346645411492 148.05409967354672 0.6025506086319252
1.9538831139512982 12.577218182306193 47.14748582000003 155.72691139024178 0.6171924170772275
1.9684974426764483 12.533276791184 43.325880972627004 163.86851084124356 0.6325197802666258
1.9822103506914401 12.487269311528198 39.865579640486445 172.51278984271022 0.6485746221839748
1.9949950149078821 12.439183102005378 36.731281279270405 181.6988608316339 0.6654094733689055
2.0068304409319184 12.389014869304857 33.891766727180915 191.46884587944524 0.68307911057254
2.0176744420879342 12.33673088512613 31.316764312666248 201.868802923696 0.701642798352021
2.027507809217607 12.282339871821614 28.981227467407294 212.94859124214398 0.7211628645888539
2.036313936713918 12.225861075344364 26.8595859094389 224.76395479569058 0.7417104251595316
2.0440550718297996 12.167259173941819 24.933676385116758 237.37585512611105 0.7633618851615698
2.050711807145217 12.106541595334171 23.179867639913645 250.85131098852094 0.7862002646031668
2.056281955198326 12.043784227978062 21.587361056527254 265.26361602854394 0.8103142697339121
2.0607242405095527 11.97892539127779 20.135826354144637 280.6941191771667 0.8358022207997975
2.0640254886997864 11.9120214230165 18.815515265665724 297.23303344732204 0.8627725516906267
2.0661817632924526 11.843109508311121 17.612977751276162 314.9806695634081 0.8913454068185122
2.0671702851734803 11.772208088489835 16.51850935995176 334.0463409598129 0.9216461952508155
