M[M_sun], R[km], Lambda[1], P_c[MeV/fm^3], rho_c[fm^-3]
0.24162668629717493 15.618656898711224 2160425.4255784233 3.5677272577965504 0.1711233750220791
0.25363972349508257 15.27742258435243 1723298.782851781 3.7847587834171357 0.17388741492893392
0.2660326788080715 14.981427694526223 1383201.443567433 4.011273626387545 0.17666511603249996
0.27880389488158563 14.723731106271682 1116628.4402123394 4.247529769317797 0.17945521255223643
0.29195483795756866 14.498634110442799 906118.882793638 4.494151460362046 0.18226425370381744
0.3054857566406104 14.301492107518161 738890.9125395179 4.751289634040144 0.18508785430871133
0.3193973272831255 14.128422050274187 605245.7823977128 5.019634175465603 0.1879328002776143
0.33369172680201026 13.976201568382384 497877.23870085407 5.299398677844149 0.1907955102325961
0.34836799277251573 13.842295836693069 411177.6699113609 5.591323736283193 0.19368252371911515
0.36342494993937996 13.724264496174412 340810.1616757001 5.895561456809965 0.19658862382773093
0.3788722343231523 13.620290389391853 283450.5442781911 6.212982059226485 0.19952162097670068
0.39469963288872034 13.528714541277042 236539.37952102747 6.5438541998270106 0.20247789411202788
0.4109190697733942 13.448134897387103 197992.60617200608 6.888857672267673 0.20546077325182688
0.42751963145094407 13.377311512727287 166199.40161756333 7.2487072237540975 0.2084735118939479
0.4445095143564382 13.315148327508878 139898.68457303473 7.623677922731248 0.2115119155010034
0.4618837049095654 13.26078758419803 118065.40119198384 8.01468641772506 0.2145816478133954
0.47964139331837763 13.213362616475395 99881.55605126565 8.422451910452306 0.21768459343364474
0.49779246158565027 13.172167821271136 83833.80278315395 8.847437069081098 0.22081853796090167
0.5163234650975308 13.136574801326937 71997.43949993259 9.290471354434608 0.22398627264065593
0.5352337030436164 13.105997895423192 61327.283846562335 9.752459148470631 0.2271910124204345
0.5545331847967525 13.0799471337458 52349.79223925669 10.234209086808642 0.23043410670854317
0.5742061891332936 13.05797292326754 44771.20051629867 10.736223042855562 0.23371264707430156
0.5942583321976717 13.039649569089912 38362.69637160296 11.25968391684346 0.23703204964957736
0.6146859992867734 13.024589550855687 32934.762171515446 11.805557234864898 0.24039430148912705
0.635478850489947 13.012502071308894 28323.118977128634 12.374820776260782 0.2438010333432566
0.6566437218229796 13.003069205689926 24397.113261248716 12.968205482350534 0.2472506743152633
0.6781661997783763 12.996030808985479 21050.941131292522 13.586953556407417 0.2507470694376063
0.7000455690678444 12.991085716390364 18056.394756163245 14.232301182715968 0.25429330999219363
0.7222702288788677 12.988025114172975 15747.353430119309 14.905436449101982 0.25789137754177316
0.7448494600572719 12.9866556144692 13650.286313200208 15.60744333810804 0.2615417208240146
0.7677603088403723 12.986742501227726 11849.882255253435 16.33947817209414 0.26524514549755873
0.7909960007786315 12.98811291587706 10232.808886072453 17.103207122741324 0.269006869102797
0.8145605266243884 12.990640565184295 8968.401273118532 17.900083126637917 0.27282932006393645
0.8384360036321115 12.994091070856841 7817.103605509166 18.73153880925229 0.276714191806058
0.8626049194120391 12.998358534097077 6823.44281255625 19.59878190610977 0.28066075309977645
0.8870703728531247 13.003303492330692 5963.510607820212 20.50396054547235 0.28467595031300813
0.9118207073350477 13.008783612354572 5218.104936252251 21.448866042119004 0.2887627912060163
0.9368315717980719 13.014675616536852 4571.661206373348 22.435068024228315 0.2929218957486404
0.9620986934563202 13.02087479812455 4010.1444759762194 23.464417481682528 0.2971556766665368
0.9876128441242359 13.027263562705896 3521.4756764170606 24.539416125990297 0.30147090404055615
1.0133517252883415 13.033729972703886 3096.652222163931 25.662106986436243 0.305869970066377
1.0393030592519912 13.040167295554156 2725.513320745734 26.834245023573736 0.31035262052813545
1.0654458389294175 13.046511840522154 2401.793176498987 28.059020635644693 0.31492832080370226
1.0917645776731955 13.052627063236422 2118.8664237547237 29.33860627638649 0.31959833866247683
1.1182535808665512 13.058474479147174 1871.4130999094275 30.675515986450332 0.32436571834397765
1.1448768811233625 13.063932185749309 1654.622640686291 32.07336470906363 0.3292399920884654
1.1716296242256155 13.068945382689293 1464.405907766888 33.533912969224694 0.3342176945861475
1.198475709943803 13.073406554364308 1297.5232636011992 35.0617357114401 0.33931265321390536
1.2254129391734068 13.077281662939246 1150.8940172630391 36.65903829153298 0.3445227665576009
1.2524000352271156 13.080460001314549 1021.9023505939992 38.330565717986346 0.34986063057169187
1.2794349580643902 13.082906945845714 908.2257358063985 40.078848494313924 0.3553245841522978
1.3064708088843344 13.084508082090728 808.1425031320084 41.90922001081677 0.3609283858160421
1.3334993929636207 13.085232537946942 719.8177932801833 43.82495007384373 0.3666728218979655
1.3605001474643883 13.08504240564619 641.7899581268224 45.831101292524046 0.3725677512372295
1.3874264758892054 13.083800109317993 572.8073537106419 47.9328088366003 0.3786220609576982
1.4142747023338034 13.081528461219625 511.72315123569547 50.13459303649785 0.3848402311296993
1.441001213651012 13.07811441519441 457.67017468455145 52.442104130139874 0.3912314992063931
1.467583702956091 13.073521919680422 409.75432058471034 54.86152834708307 0.3978063999964126
1.4939871150966906 13.067678128249776 367.20122621651694 57.39904140360142 0.4045739707909846
1.5201954393010626 13.060557774765874 329.43302857729196 60.06125585830388 0.41154395702029073
1.5461753285382487 13.052095752136843 295.83076374003434 62.855260424989496 0.41872687052715785
1.5718892582956077 13.042245329288777 265.97958594061345 65.7886630474929 0.42613405259346565
1.5973064544225375 13.030934851456616 239.3569790626257 68.86963811814562 0.43377774227555943
1.6223979662628596 13.018155692002267 215.62637404826577 72.10697826890599 0.4416711506730585
1.6471484943484778 13.003848828833087 194.45905734938182 75.51015121798714 0.4498285418308948
1.6715037259192214 12.987953096333692 175.56712048412552 79.08936221575283 0.4582653210583132
1.695438301618855 12.970440722592057 158.67320987958274 82.85424033924313 0.46699245718677823
1.7189020515576299 12.951228673402179 143.55620901905579 86.81769648229016 0.4760323296870869
1.741917519112394 12.93038900813486 130.03616381672433 90.99169104301131 0.4854008852692176
1.7643968969522417 12.90777201918657 117.90799159691367 95.38953598509514 0.49511702622917564
1.786324670449082 12.883370134036484 107.02626644128588 100.0256315110569 0.505201245940892
1.8076672664718152 12.857151552049302 97.27289219220198 104.9160812317669 0.5156776792864337
1.8283961388271965 12.829096775133634 88.50214428069057 110.07705171702688 0.5265675745006595
1.8484745600194834 12.799150819131594 80.61907969039358 115.52666438860888 0.5378962697365738
1.8678703602515674 12.767298568210421 73.52433389945591 121.28496186631308 0.5496925835139295
1.8865503124962075 12.73350448808015 67.13641572341103 127.37320245616993 0.5619858438334753
1.9044846079171083 12.697737189340199 61.37674151662375 133.81425057524984 0.5748069870633151
1.921638958387648 12.659982190076985 56.18282388624931 140.6327397173009 0.5881887438999248
1.9379737591531914 12.620177687536785 51.49194048546934 147.85674835265021 0.6021709935473403
1.9534719226192414 12.578341389895243 47.25494184440817 155.51524393804866 0.6167912860671109
1.9681124430405095 12.534499276586715 43.42251056694833 163.6408449063387 0.6320938913677145
1.9818472779484586 12.488566383733254 39.954536369312905 172.26783385116278 0.6481223377285165
1.9946511193364498 12.440546894999168 36.813377216507995 181.43532697361877 0.6649294427924272
2.006504693151104 12.390443496422836 33.96968692475553 191.18502342341665 0.682568879539399
2.017379024824897 12.338251520510445 31.38686569029653 201.56280477283184 0.7010996818184658
2.0272385036383382 12.283936524394933 29.046753389852263 212.61910474979183 0.7205864476830345
2.036072395722475 12.227541610862827 26.920049765765008 224.40793151790075 0.7410950304481597
2.043842429955014 12.169020744095192 24.98747235164348 236.99156118022867 0.7627066286819971
2.0505293063128276 12.108389373955571 23.231143673112033 250.4353519600371 0.7854993891258181
2.056123101168569 12.045688895817806 21.63223346459697 264.81329656488845 0.80956491198338
2.060604251279965 11.980936372809623 20.17852481410981 280.20668915322017 0.8350020397135302
2.0639462425225816 11.914130989940821 18.854722192776823 296.70467203910914 0.8619165115369356
2.0661324604392775 11.845291716565526 17.649034129579338 314.4067159685546 0.8904266200011355
2.067156826929885 11.774479388112075 16.55191298962821 333.4230111259215 0.9206616955694198
