M[M_sun], R[km], Lambda[1], P_c[MeV/fm^3], rho_c[fm^-3]
0.24162668629717493 15.618656898711224 2160425.4255784233 3.5677272577965504 0.1711233750220791
0.2536410809056539 15.277387470668074 1723258.8062672063 3.784783290176315 0.17388772039386463
0.26603509604044306 14.981367438204407 1383039.4401793818 4.011325143605432 0.17666573858767473
0.27880782590500414 14.723669299164737 1116530.0126801992 4.24761003899528 0.1794561435595314
0.291960755762181 14.498540258272646 906030.5314760281 4.4942625878984295 0.18226549113472643
0.3054934300255258 14.301394725648104 738831.1280101787 4.751435391640681 0.18508942876897969
0.3194066978377202 14.128323564574831 605210.3883277343 5.019815635827372 0.18793468299890492
0.33370340803671034 13.976090677402109 497807.5084606977 5.299620617029482 0.1907977447919287
0.3483809961848238 13.842140102800917 411116.53233522194 5.591586707400699 0.19368506803701788
0.3634401948314578 13.724184598341905 340739.0671967337 5.895871366326277 0.196591534563492
0.37889056284766737 13.620155608090105 283394.6551842957 6.213342655987135 0.19952490918497104
0.39471843469898754 13.528630842829646 236486.5987740476 6.544265108426759 0.20248149722533734
0.4109403322061719 13.448048896470793 197940.63440601967 6.88932682321674 0.20546476873818068
0.42754520068322 13.377197685434854 166145.8786654033 7.249239017687599 0.20847791128887266
0.44453681380063015 13.315067678872701 139861.87907050262 7.624270888893194 0.2115166358929285
0.46191315825479745 13.260701617559256 118028.55938126099 8.015350896128375 0.21458678809105278
0.4796742251299356 13.213294509131469 99857.02207017467 8.423193080402388 0.2176901659955328
0.49782654857823727 13.172102007064082 84684.89957753562 8.848252197004397 0.22082443983534372
0.5163606603108812 13.136505828651103 71975.52103319232 9.29137362802685 0.22399262470299552
0.5352747227662561 13.10593305680518 61308.53712325798 9.75345468273465 0.22719782837497296
0.554577026632028 13.07990339052015 52330.57058593385 10.235304368202833 0.23044140085535783
0.5742542895992333 13.057919437344825 44755.39339994056 10.737413312003737 0.23372028897093208
0.5943060418779877 13.039588802171124 38349.18003644175 11.260987068451008 0.23704019176440352
0.614738809753842 13.024551077181586 32921.62015922669 11.80698096391506 0.2404029601371915
0.6355347815441967 13.012472655067961 28309.500654489533 12.37637325766186 0.2438102257008311
0.6566994149777353 13.003081402012064 24386.518792765528 12.969879587087775 0.2472602428114424
0.6782286761815737 12.996004898918468 21041.416943564596 13.588773049697966 0.2507571998887766
0.7001112291306278 12.991071621147439 18185.032009454368 14.234275815961816 0.25430402247392436
0.7223406422009251 12.988003088299756 15739.89067952318 14.90757660006655 0.2579026933266588
0.7449221653068899 12.986659112738788 13643.628538440307 15.60973917596645 0.26155345562425736
0.7678368618865099 12.986760879094444 11844.10377919826 16.341960776782397 0.26525752065927094
0.7910764948490699 12.988123826440342 10296.651783714875 17.105888948153833 0.26901990991163577
0.8146432630899378 12.990657957963327 8963.081009841975 17.902977452106185 0.2728430534313292
0.8385198421021006 12.994115235203372 7813.108581644579 18.734632799575895 0.2767284070907214
0.86269698790912 12.998371120508562 6820.126966362726 19.6021157759858 0.2806757100713485
0.8871668720833757 13.003318458697837 5960.36854397462 20.50755033307204 0.28469168131887534
0.9119199914058154 13.008813882719524 5215.575880432413 21.45272888354683 0.2887793307743816
0.9369340591568202 13.014701304068328 4569.056362865115 22.43918783207446 0.2929390070849704
0.9622065792400123 13.02089076210228 4008.192038571123 23.46884593619158 0.29717366193612016
0.9877254841274501 13.02728639856867 3519.603787640647 24.54417406118098 0.30148980505837086
1.0134610145070122 13.033753033796552 3094.6226981396 25.66717599002916 0.30588953232747707
1.0394199329401317 13.040205702886308 2723.960195731304 26.83968703922692 0.31037317948333193
1.065568102070405 13.046532763586928 2400.298924365536 28.06486112428222 0.31494992731081156
1.0918896575331762 13.052662250439703 2117.630051000974 29.34482454472873 0.3196207206104727
1.1183830143409665 13.058497653645258 1870.3679543593882 30.682186241385477 0.3243892481004831
1.1450084241045373 13.063951483957226 1653.6966497569217 32.08049475196237 0.32926457988050534
1.1717667696514389 13.068972268250139 1463.5607734652192 33.54152692067884 0.3342433543875792
1.1986169933840713 13.07343186149365 1296.7463476340267 35.069899052663786 0.3393396471702453
1.2255578004011234 13.077302702292615 1150.1866755020221 36.66772734194088 0.3445507960891807
1.252547603829141 13.08046694703559 1021.2243339141268 38.33988040091284 0.34989013744522146
1.279585185218226 13.082912038572287 907.662761054599 40.088764537810086 0.35535526107813886
1.3066234062176043 13.084515567520073 807.5790392156039 41.91977838359199 0.36096030537652807
1.333655318776347 13.085234040754539 719.3071062803201 43.836269091677764 0.3667064678727332
1.3606591681851097 13.085043477052917 641.2943840126187 45.84315724855636 0.3726028083196936
1.387586269174561 13.083790578037469 572.4123360212922 47.94565319888334 0.3786586201590061
1.4144382135924431 13.08151246015558 511.37530630458843 50.14836657085535 0.38487882609084384
1.4411663985246088 13.078090990574497 457.36165424824475 52.456784981706036 0.391271807324354
1.467750209954686 13.07348656734787 409.45934370337454 54.87718148606434 0.39784853543139453
1.4941563582484723 13.067635010228512 366.93284157753817 57.415737061155724 0.4046180565254265
1.5203662671108602 13.060504254938795 329.2059980817406 60.07906999739725 0.4115901255830556
1.5463478136855824 13.052036728211437 295.6277565274403 62.87427525821734 0.41877526478946897
1.5720629417977594 13.042168527902604 265.7619394632252 65.80896760709483 0.42618482664428614
1.597483749523089 13.030864586031452 239.19219180903866 68.89132888407863 0.43383106238501606
1.6225722526738495 13.018063422890593 215.4856573499549 72.13015986156019 0.4417271963535327
1.6473235067517131 13.003742533459095 194.32297555440672 75.53493716294535 0.44988750700656527
1.6716723415282158 12.987832790368797 175.43651282222285 79.11578362826688 0.4583270304518892
1.6956116629453566 12.970306357197263 158.54400474833528 82.88248012802812 0.4670573521391585
1.7190757386733384 12.951081063679013 143.45112434148484 86.84793710014365 0.476100809807858
1.7420815351394292 12.930206507505105 129.93815026889112 91.02394508084913 0.48547263863112217
1.7645666489371017 12.907590957735927 117.81407051553722 95.42411395095081 0.4951928980071476
1.7864930851685328 12.883171122473223 106.94646720630334 100.06256350657611 0.5052809435849731
1.8078340865290943 12.85694320006389 97.1996809874538 104.95555864951275 0.515761509665765
1.828558445684987 12.82885992499505 88.4358690666578 110.11945022061452 0.5266564908799435
1.8486351827836291 12.798901652551953 80.56387508821862 115.57205044794617 0.5379900216736395
1.8680258368584512 12.767028190012754 73.46920237602397 121.33358492604748 0.5497915622451852
1.8867026439988257 12.733213645918836 67.0861252867159 127.42533532152036 0.5620904740782581
1.9046319436466874 12.697427789781567 61.329146806541324 134.06832935262165 0.5752577477482246
1.919786939709391 12.660529010725318 56.56495143077218 140.96225247968545 0.8306225586309202
1.9295365983638477 12.620299607355628 52.99982592952627 149.07677004412818 1.0969064000752857
1.9343469566976101 12.5743298290134 50.27493763783661 158.2682549996976 1.3588386643471937
1.9350234977443093 12.522080678162578 48.12330762853724 168.59057412839763 1.617254205937173
