M[M_sun], R[km], Lambda[1], P_c[MeV/fm^3], rho_c[fm^-3]
0.24162668629717493 15.618656898711224 2160425.4255784233 3.5677272577965504 0.1711233750220791
0.25364383529055684 15.27727979853197 1723292.2843827612 3.784818162493471 0.17388815506047503
0.2660397920819583 14.981270397417319 1382990.3679545035 4.011398451738277 0.17666662447319667
0.27881488361328116 14.723514737287687 1116530.1329577626 4.247724262621553 0.17945746838146484
0.2919691752091044 14.498414441062573 905888.1833289743 4.494420723866779 0.18226725201543542
0.30550412190246584 14.301251552990946 738669.6542022541 4.7516428088564036 0.1850916692707712
0.31942083612778016 14.128144027865513 605154.521061999 5.020073861682812 0.18793736219182117
0.33371799478477443 13.975957095163016 497673.47986002703 5.299936449253141 0.19080092469836055
0.34839913532605943 13.842042384691682 411014.9717417692 5.591960934037251 0.19368868878267273
0.3634616259210164 13.724010396553975 340662.4589179333 5.896312394111974 0.19659567678978668
0.37891484650339996 13.620010772626236 283312.93095387536 6.213855821217776 0.19952958863398332
0.3947462231343832 13.52847915861393 236407.892026478 6.544849877797898 0.2024866248627375
0.41097159409734857 13.447898318485738 197874.14707855944 6.889994484607588 0.20547045482275836
0.427578969578203 13.377078729169494 166090.20341813308 7.249995835410506 0.2084841722479385
0.4445737294131164 13.31494023848595 139810.4403489516 7.625114770715699 0.21152335373484987
0.46195419134713483 13.260586911646339 117979.12217451837 8.016296559946554 0.21459410356522274
0.4797194127648577 13.21318345861623 99816.73470402164 8.424247899217704 0.21769809675841428
0.4978760005697137 13.172000378672918 84648.75534305038 8.849412281154134 0.22083283934025366
0.5164142816455859 13.136406176248 71942.1524992421 9.292657749403936 0.22400166499754584
0.5353317500055921 13.105855514588931 61278.838951934005 9.754871546635208 0.22720752897522595
0.5546376060181872 13.079821452457107 52302.92726324279 10.236863208831954 0.23045178212584208
0.5743205158905971 13.057843352408565 44731.2251201526 10.739107356012509 0.23373116525821758
0.5943777764905088 13.039518425956965 38331.11963365869 11.26284178907824 0.23705178009244607
0.6148128877297591 13.024530636264375 32902.76071340756 11.809007316178691 0.2404152837398485
0.6356169845266563 13.012446908686083 28294.00958848328 12.37858287995949 0.24382330903841593
0.65678607040232 13.003037108483653 24178.308017207164 12.97226233260196 0.2472738616077107
0.6783182771446248 12.995988327965112 21029.44620903486 13.591362750038437 0.2507716186464501
0.7002043285880947 12.99106046659498 18174.439467562188 14.23708635436449 0.2543192697819272
0.7224397424961179 12.988000980827922 15731.006580295976 14.910622751694909 0.2579187994785735
0.7450272344154306 12.986645104568275 13635.116519880328 15.61300694727332 0.2615701583035797
0.7679462008866513 12.986753978434146 11837.238404000827 16.34549441467164 0.26527513495788185
0.791190149470196 12.988129992897221 10289.373295627094 17.109706184194835 0.26903847183787855
0.8147628223810351 12.990672232215308 8956.99071295568 17.907097193323505 0.2728626013088298
0.8386462742486646 12.994134084175647 7808.095141033278 18.73903677449411 0.27674864107679276
0.8628252364071051 12.998405146402515 6815.150792949421 19.606861239165823 0.28069699997183023
0.8873017267227175 13.003341253512637 5955.678413940257 20.512660120286267 0.28471407319873315
0.9120618931333224 13.008845801853504 5211.589547483314 21.458227394137342 0.2888028738044331
0.9370806913824086 13.014734302054714 4565.571110419416 22.44505216327662 0.29296336417814034
0.9623587254708688 13.020930962563508 4004.9394016645074 23.47514967025351 0.29719926327316754
0.9878837009187121 13.027331277901457 3516.8359076228494 24.550946863735202 0.3015167101877185
1.0136254134239404 13.033782170857336 3092.094232261912 25.67439164718421 0.3059173789380955
1.039589157236763 13.040237590029387 2721.704696857015 26.84743374987635 0.3104024451612188
1.0657389699191389 13.046572281358376 2398.5583482518027 28.073175143595027 0.3149806844834623
1.0920696823606406 13.0526979384211 2115.9626711641495 29.353676409831596 0.31965258188977014
1.1185671792397982 13.058534191209604 1868.7710477332341 30.691681616707207 0.32442274365221546
1.145198949284285 13.063983593797976 1652.2840031768674 32.09060265054587 0.32929930962445025
1.1719599441126711 13.069003190485995 1462.2008999358782 33.552365886011714 0.33427988281829507
1.1988143544172836 13.07346341302748 1295.5304155408335 35.081520231801186 0.3393780752591439
1.225760976398813 13.077324758730828 1149.1993182895428 36.68009701591533 0.34459069874263787
1.2527556405711004 13.080490179085732 1020.277466059268 38.35314086259755 0.3499321436808564
1.2797972268614173 13.082932995345297 906.8067658830992 40.10288122503864 0.35539893339234346
1.3068410727832094 13.08451851094481 806.8300785046478 41.93480963790025 0.36100574713552697
1.3338782849322892 13.085235172064106 718.6927164633943 43.85238340472409 0.3667543679448159
1.3608850234076342 13.085032266086678 640.6894017936884 45.860320861115966 0.37265271777351644
1.3878152153885925 13.083775071044228 571.8621050324874 47.96393940717617 0.37871066861072394
1.414671624898297 13.081487889409111 510.8716085520003 50.167975846661406 0.3849337734426393
1.4413950433233873 13.078034275800265 456.9292485368867 52.477686201478335 0.39132919424283846
1.4679891128519864 13.073442488140339 409.0529793405091 54.89946717875871 0.39790852450813335
1.4943975102425189 13.06757723380517 366.571498366031 57.43950724974484 0.4046808229195241
1.520609038818184 13.060432086485488 328.87185147443677 60.10443286973517 0.41165585805304994
1.546592548304234 13.051948058698844 295.3277832461132 62.90134790483567 0.41884416682748343
1.57230849102279 13.042070316181531 265.50202293459535 65.83787683338073 0.4262571177234033
1.5977323441152471 13.0307446223153 238.9470200749627 68.92221210519567 0.4339069793321363
1.6228193423082502 13.01792702291401 215.26282381874614 72.16316608949674 0.4418069948614345
1.647571786091638 13.00359041168651 194.12088320977438 75.57022809624213 0.4499714633005426
1.671920168591686 12.987657534319219 175.25326114746048 79.15335062886103 0.458414673834481
1.6958587655571613 12.970113549059242 158.38193517948824 82.9226896303151 0.4671497534583049
1.7193379849171446 12.950904106852903 143.2933633302617 86.8909960402125 0.47619831712171234
1.7423238846005233 12.929966695842277 129.7916666426567 91.06987138360613 0.48557480774989215
1.7648038532222885 12.907322695377424 117.69196363564495 95.47334992531754 0.495300932728767
1.7867306734011676 12.88289021735384 106.83970180798636 100.11515202014463 0.5053944273157659
1.8080700803893508 12.856639510743936 97.0949278629774 105.0117723339387 0.5158808795424719
1.828781896064082 12.828508755287627 88.34142914309297 110.17974802038414 0.5267828211212456
1.8488611684993443 12.798548541746227 80.47391075894221 115.63667945486749 0.5381235229001833
1.8682481181350832 12.766643899416417 73.38788107291607 121.40282427920877 0.5499325081948293
1.8869187476482532 12.732798998058835 67.01684000967863 127.49957365455501 0.5622394698203006
1.9048425734587753 12.696988628574955 61.263277034704316 133.94939004418416 0.5750737943354242
1.9219864614921554 12.659176940053623 56.08134654508227 140.77788737978517 0.5884715467433106
1.938301109162577 12.619295779151368 51.39855267173613 148.0127730208113 0.6024711147592594
1.9537987788201727 12.57745552086145 47.16769651093696 155.6825862343937 0.6171084164698848
1.9684168806583426 12.53353475544531 43.34429627433734 163.8209185514244 0.6324308774737241
1.9821335925304273 12.48753965946914 39.884293201244404 172.46149217071303 0.6484799066414034
1.9949230925515171 12.43947201548449 36.74695052993642 181.64367180580305 0.6653089457931155
2.0067632929467125 12.389316603351967 33.90707789159479 191.40940707875987 0.6829722567276867
2.017612344638859 12.33705063933621 31.33187124476007 201.80471896599983 0.7015290556484716
2.0274504399369984 12.282671849160373 28.994688519406985 212.8795871217686 0.7210421460086426
2.036264125114093 12.226213058683168 26.872717467211718 224.68939175668407 0.7415815411715146
2.0440112324856416 12.167625855943507 24.94550183430497 237.29536988706224 0.7632246504354916
2.0506727434852463 12.106928209958753 23.19009810696323 250.76432201114235 0.7860538952875127
2.056250418600218 12.04418816092641 21.596141124469156 265.16929904323115 0.8101573207906503
2.060699423445102 11.979346780019071 20.144404531890885 280.5921156608684 0.8356349112919578
2.0640066982438086 11.91245765997713 18.823677936261287 297.1223667379181 0.8625932517920081
2.0661710352815104 11.843566396227773 17.620402725860608 314.8604509160275 0.891152960409244
2.0671674902601223 11.772683620833053 16.525174339846103 333.9157773987671 0.9214399805354874
