M[M_sun], R[km], Lambda[1], P_c[MeV/fm^3], rho_c[fm^-3]
0.24162668629717493 15.618656898711224 2160425.4255784233 3.5677272577965504 0.1711233750220791
0.253641488257573 15.277358300409897 1723239.4170528133 3.7847906098861244 0.17388781163051628
0.26603701029765914 14.981292980259061 1383019.1757936354 4.0113405309250085 0.17666592453435084
0.2788100636290252 14.723604264075673 1116646.2280162517 4.24763401432523 0.17945642163722877
0.29196224613258553 14.498520034935808 906024.2686039178 4.494295780187187 0.18226586073856527
0.3054953972015205 14.301356706641206 738767.7967363803 4.751478927708079 0.18508989904159742
0.3194101021163693 14.128266525556127 605194.7013809831 5.019869836178126 0.18793524534846343
0.3337050423333262 13.97611545911331 497743.36787765834 5.299686908358083 0.19079841223561053
0.34838439552170836 13.842165778556758 411091.57703793683 5.591665255021598 0.1936858280068578
0.36344487708866663 13.724102496241077 340713.36539336113 5.895963934618456 0.19659240398448166
0.3788960756361237 13.620115690794828 283375.6616326441 6.213450364864265 0.19952589136024054
0.3947241511565852 13.528602832929717 236476.11738135805 6.544387845861906 0.20248257346683343
0.4109468626063432 13.44801884052946 197927.0640035386 6.889466958244714 0.2054659621868843
0.4275518622481146 13.377174207530425 166127.0314690386 7.24939786496029 0.20847922539165056
0.4445448027111248 13.315027645083562 139850.7901850799 7.624448009191418 0.21151804588439033
0.4619221385443453 13.260681035407949 118024.4219553935 8.01554937831476 0.21458832351123042
0.4796833154874875 13.213261475430654 98773.43696103497 8.423414471778063 0.21769183054917837
0.4978367943168663 13.172082082452663 84675.793952209 8.848495681116011 0.2208262027643446
0.5163714974708792 13.136486199642032 71966.31589118968 9.291643144493156 0.22399452211572068
0.5352857890885784 13.105944735551722 61303.69253374045 9.753752058425212 0.22719986436636067
0.5545891018911698 13.079900578678815 52322.05396271058 10.23563154097222 0.23044357969837143
0.5742678417646049 13.0579030751145 44751.497272378874 10.737768860212821 0.23372257170056945
0.5943210848332857 13.039579221802182 38012.70306839208 11.261376337999456 0.23704262392758657
0.6147545182669756 13.024561071394892 32919.14696405485 11.807406253747347 0.24040554660895225
0.6355515239227185 13.012476231229176 28309.02517719596 12.376837010118969 0.24381297161354146
0.6567199725088632 13.003056519924492 24384.189921585705 12.970379672589546 0.24726310109510083
0.6782476726133894 12.995997924655036 21039.1250928586 13.589316568098676 0.2507602260536145
0.7001317466927619 12.991077751298045 18182.560280346024 14.23486568064476 0.25430722251861765
0.722360396236524 12.98800470849903 15737.83205422329 14.908215911568938 0.25790607360756224
0.7449436315232864 12.986646282921424 13641.823801937571 15.610424997487085 0.26155696108894744
0.767860104234811 12.986756589361288 11842.513391727496 16.342702393697355 0.26526121743358805
0.7911004159189211 12.988121288719778 10295.291683660944 17.106690081342357 0.2690238055510451
0.8146702979678898 12.990653552566542 8962.142503193132 17.903842069089745 0.27284715597709314
0.838547601691603 12.994114546527154 7811.90804197278 18.735557065887654 0.2767326536161957
0.8627258553301579 12.998379239145974 6819.224746895529 19.60311170641754 0.28068017818309526
0.8871938972454372 13.003324059746024 5959.59967041664 20.508622719497417 0.2846963806824675
0.9119498439456706 13.008812584644591 5214.70138182885 21.453882845911746 0.28878427170705573
0.9369644725702828 13.014703854691122 4568.29324016976 22.440418564144174 0.2929441188453154
0.962238675361337 13.020897734987756 4007.286870754499 23.470168878718034 0.2971790347988046
0.9877595284492684 13.027295361719403 3519.058074614223 24.54559543908908 0.30149545151803997
1.013496016403766 13.033759617421532 3094.149709201852 25.668690302361536 0.3058953763504078
1.0394551342876046 13.040210722049409 2723.494015497785 26.84131279359056 0.3103793212905689
1.065603902254732 13.046548965447123 2399.9139209217296 28.06660592820207 0.31495638209920995
1.0919284639669304 13.052662623413706 2117.284776369884 29.34668221559614 0.3196274070849796
1.1184219113316385 13.05850322137199 1870.034769844319 30.68417895133216 0.3243962775139444
1.1450492330608244 13.063962826688188 1653.2298005253822 32.08261599865988 0.3292718682752236
1.1718070312765692 13.068977995193576 1463.2553372053585 33.5438015784122 0.33425102021866765
1.1986577319530938 13.073436124938553 1296.4571264329347 35.072337853458514 0.33934771162331306
1.2255984794916088 13.077307421026028 1149.9309024633076 36.670323210345025 0.3445591699588207
1.2525910551778983 13.080471855214357 1021.0185662274681 38.34266319399066 0.3498989527236431
1.2796282388748634 13.082922108047146 907.4636447711583 40.09172700328823 0.3553644259566324
1.3066689125189035 13.084513228107243 807.44937138789 41.92293276305055 0.3609698415435177
1.3337018075964415 13.085230319246087 719.1365515724909 43.83965073868948 0.36671651987651105
1.3607063928305885 13.085039052903854 641.1725299659706 45.84675907949844 0.3726132819548014
1.3876349090324571 13.083787342500628 572.3048841890704 47.94949059291955 0.37866954262117086
1.4144878814591761 13.08150851961462 511.2686086993436 50.152481590839585 0.38489035683032424
1.4412157577126723 13.078082180807469 457.2698093252418 52.46117109721124 0.39128384995419585
1.4678020214216692 13.073474237879033 409.38091008463886 54.88185811130014 0.3978611240654566
1.4942072505060398 13.06762050945868 366.8651123344121 57.42072518256283 0.4046312279141545
1.5204168539676408 13.060489341360835 329.1297128259217 60.08439231437938 0.4116039193299415
1.54639934545749 13.052018010690599 295.5563059066583 62.87995633791143 0.4187897235889563
1.57211384392451 13.042151754659375 265.704434597542 65.81503405474406 0.42619999654342605
1.597536672440482 13.030839114365367 239.13477648108977 68.89780953076001 0.43384699307144126
1.6226243635922666 13.018035923027242 215.43939846433912 72.13708597123644 0.4417439414726294
1.6473756232968806 13.003710357919728 194.28088872185984 75.54234266105273 0.44990512451106485
1.6717251092613679 12.98779666974761 175.39887982491285 79.12366670325098 0.4583454215756389
1.6956633563111938 12.970265904923274 158.511414552119 82.89091765895981 0.4670767415606654
1.7191358249001385 12.951066684869607 143.4225879517214 86.85697250255011 0.47612127054880604
1.7421321188106225 12.930155277966263 129.90655216817305 91.03358211635033 0.48549407748784706
1.764617021525814 12.907535371444471 117.78810278025729 95.43444541490317 0.49521556754596285
1.7865421374214088 12.883112860802793 106.92108654993771 100.07359839359353 0.5053047563924217
1.8078838978918492 12.856878825199702 97.1758219387458 104.96735415716518 0.5157865574509892
1.8285984942424862 12.828768790772239 88.41201771183235 110.13211861953948 0.5266830585195632
1.848681456747321 12.798828363397833 80.54081192849581 115.58561160175032 0.5380180343378045
1.868072212091315 12.766946558585786 73.4512454181954 121.34811338364132 0.5498211368607605
1.8867480581458738 12.73312616511479 67.07104211315126 127.44091261427553 0.5621217375805243
1.904677860286652 12.697334192109453 61.315817399971316 133.88665839219158 0.5749499425763858
1.9218253651541988 12.659551014108242 56.128671686997755 140.71050940735202 0.5883402688304629
1.9381530287401514 12.61971937353829 51.44216296000276 147.94034532929695 0.6023317964911292
1.953650849809652 12.577885237194934 47.20686838650546 155.60490424967094 0.6169612013327588
1.9682757592988303 12.533985158781688 43.38060464691433 163.7373931278254 0.6322746715431383
1.9820012542502972 12.48801887759272 39.91644458384514 172.37159253553736 0.6483139167944743
1.9948006969484249 12.439971686327594 36.77865096148737 181.54695362849023 0.6651327722920667
2.0066409326825934 12.389831668574047 33.9364913631081 191.30524243618603 0.6827849987004647
2.0175043953972827 12.337608786644743 31.356365077419873 201.69241519538696 0.7013297275334872
2.0273528249733603 12.283261522250191 29.018800575815916 212.75866242221278 0.7208305954814646
2.03617529926891 12.226828629353435 26.89517506212313 224.5587271668984 0.7413556843173874
2.0439324395407836 12.16827166563703 24.964192668111068 237.15432898163033 0.7629841627354919
2.050605864236034 12.107604015579476 23.208824414947955 250.61162004716405 0.7857965372772693
2.0561868445399374 12.044873459373411 21.612639137806898 265.00402420782905 0.8098822938622756
2.0606547192498446 11.980085367128352 20.15834040870541 280.4133256463786 0.8353415757653471
2.0639824850038146 11.913240533477683 18.83793112011932 296.9284471707265 0.8622790673464333
2.066153097469076 11.844365696942031 17.633827149063453 314.6497968707147 0.89081574471516
2.067162433553633 11.773512388113772 16.53729917620661 333.6869998619623 0.9210786446907249
