M[M_sun], R[km], Lambda[1], P_c[MeV/fm^3], rho_c[fm^-3]
0.24162668629717493 15.618656898711224 2160425.4255784233 3.5677272577965504 0.1711233750220791
0.2536387655721252 15.277431458828003 1723257.0524918425 3.7847456827871646 0.1738872516359013
0.2660306592604447 14.981482676152892 1383254.226036219 4.011246086913785 0.17666478323421225
0.2788025100957775 14.723735952110982 1116684.367546615 4.247486859981537 0.17945471486859882
0.29195139145404486 14.498709007024685 906171.1085914192 4.494092055897823 0.18226359222132124
0.3054815745593212 14.301545815274787 738961.0289412003 4.751211718213085 0.1850870126690745
0.31939263485743563 14.128464849677961 605294.0750007877 5.019537175074801 0.18793179386112102
0.33368495529490727 13.976286145344108 497915.31779151 5.2992800401081075 0.1907943157474498
0.34836172492790396 13.84233682457093 411224.3481009725 5.591183165760811 0.1936811636606415
0.36341625901051583 13.724337201170322 340842.97213257314 5.8953957965511865 0.19658706791152303
0.37886225185698424 13.620368415263764 283471.7969199252 6.212789305633931 0.19951986329602703
0.39468921431541903 13.528772032438413 236560.61787816955 6.543634553792296 0.2024759681130307
0.41090680003096897 13.448180349201824 198013.59258399377 6.8886068950802395 0.20545863752806412
0.42750782552183475 13.37734732352077 166222.5164711131 7.24842296351672 0.20847116028185372
0.4444955053889633 13.31519764669505 139919.03021956602 7.6233609658129495 0.21150939232013113
0.46186885273245076 13.260833180084253 118083.69035709843 8.014331237688983 0.21457890020866563
0.47962538603376886 13.213393738642331 99911.62485420585 8.422055739304403 0.21768161478044962
0.4977737207129823 13.172206919571359 83849.0408395949 8.847001368142687 0.2208153832999469
0.5163035161627932 13.136602268393395 72017.40414278852 9.289989075414084 0.22398287736628483
0.5352120909253396 13.106032026774752 61338.49339729084 9.75192702337302 0.22718736921034602
0.5545104087685006 13.079978927699855 52360.86466385566 10.233623649149953 0.23043020792211627
0.5741818443000546 13.057974569475748 44780.61837911192 10.73558683664853 0.2337085624333804
0.5942340907870953 13.039653930417929 38372.45566998519 11.258987378374918 0.23702769766462112
0.6146575306568552 13.024610813204191 32941.637906330376 11.804796251873947 0.24038967344287
0.6354495241471698 13.012534585538699 28328.44009022121 12.37399098004184 0.24379612005827092
0.6566112735001544 13.00309818834693 24402.977473778672 12.967310683290236 0.24724556001076425
0.6781328268255201 12.996037068613363 21055.271226516667 13.58598105372803 0.25074165480323646
0.7000102422293447 12.991087877682633 18197.076445802664 14.231245765328481 0.25428758430135684
0.7222336775527832 12.988020314814268 15752.344074338509 14.90429257123315 0.2578853294282926
0.7448097960196833 12.986654834767812 13653.325274785315 15.606216253947222 0.2615354487837416
0.7677188209891128 12.986747261904712 11852.375839758937 16.338151272209547 0.26523853123443203
0.7909540014312263 12.988119624876566 10304.319076152859 17.10177375202666 0.26899989910639166
0.8145165829410794 12.990622975062522 8970.691668892923 17.898536188941833 0.27282197995517987
0.8383853356202686 12.994101704838654 7819.050424912457 18.729885164153483 0.2767065941624479
0.8625559422735195 12.998349312949403 6825.300897597042 19.597000063173628 0.2806527590942715
0.8870193604815375 13.0032879222237 5965.164845394075 20.502041934464014 0.28466754266208427
0.9117678345301441 13.008772712923033 5219.48475975964 21.446801506175778 0.28875395146097016
0.9367748758661534 13.014660741981979 4546.520550674022 22.432866160636685 0.2929127504608318
0.9620418994693002 13.020857623335107 4011.127355622843 23.462050673838917 0.29714606435663676
0.9875552041734779 13.027251053613698 3522.607315326212 24.536873241247726 0.301460802366638
1.0132908846307287 13.033715348548618 3097.53745005873 25.659397864198763 0.3058595150419151
1.0392358457906836 13.040163971240968 2726.3102337227065 26.831336563590824 0.3103416328900451
1.065380918951354 13.046490637364021 2402.529835586632 28.055899233186445 0.3149167733787194
1.0916965824792946 13.052612415059862 2119.51458951049 29.335282989456662 0.31958637687003805
1.1181838627227463 13.058454929250297 1872.0728196644134 30.671951162869643 0.32435314319780195
1.144804038407588 13.063922178296508 1655.0634195947118 32.0695416357484 0.3292267704137292
1.1715560046789404 13.068934651967057 1464.8668768891025 33.52984384795282 0.33420398122791733
1.1984054195670486 13.073406257593717 1297.9298239392406 35.057373008760784 0.33929822693887624
1.2253370662100052 13.077272197627838 1146.1820159806348 36.65439466113047 0.34450778692474093
1.25232263487997 13.080443468855872 1022.2028755590774 38.32558776865609 0.34984486151948857
1.2793538792876622 13.082895518222655 908.5413852189082 40.07354919546066 0.35530818989202717
1.3063886000100635 13.084504211180437 808.4013074029217 41.90357747226831 0.36091132756716926
1.3334150383167065 13.085232021755399 720.0190886976989 43.81890107871057 0.36665484115611985
1.360415647784887 13.0850473446751 642.0238183868518 45.82465850785485 0.3725490164945976
1.3873403153124482 13.083807872474484 573.0108718017104 47.925944763004814 0.3786025235884743
1.4141875500897392 13.081539044975559 511.911498665023 50.12723246410745 0.38481960599470955
1.4409118177973181 13.078125992131632 457.84925527577997 52.43425873606103 0.39120995869366776
1.4674931719924378 13.073537621671614 409.88852431845874 54.85316341871339 0.397783883113641
1.4938965484439608 13.067698547407536 367.33576300189486 57.39011941784705 0.40455041183301116
1.520104619674386 13.06058446557127 329.5566224777035 60.05173623007599 0.4115192851823179
1.546084082151399 13.05212725502314 295.95066817196096 62.8450992306179 0.41870100947963135
1.5717975973096658 13.042281068963803 266.06051201231634 65.77781272026496 0.4261069200145331
1.5972132429026835 13.030980447103198 239.44360159686835 68.85804711283973 0.433749249336512
1.6223051070189658 13.018210070752316 215.72077289684603 72.09459069180241 0.44164120147161434
1.6470565150465104 13.003905086768235 194.53743763968495 75.49690641840542 0.4497970327665693
1.6714107679291113 12.98801765145481 175.6380051777807 79.0751943346685 0.45823214014341496
1.6953452049595268 12.970514722979019 158.73510892518874 82.83915012931664 0.46695777992831694
1.7188112741506951 12.951307523302477 143.62554088647178 86.80153723733696 0.4759957369477677
1.741825544901646 12.930476237120553 130.0837418137807 90.97445603428385 0.48536254371877763
1.7643059313652014 12.907867812478615 117.95577344006496 95.3710593344673 0.4950764843320626
1.786235130138298 12.88347653207075 107.07508898675299 100.00589713509183 0.505158660013711
1.8075794502153737 12.857269091592691 97.30603832401256 104.89498688539182 0.5156328853976907
1.8283107653232629 12.829217335911476 88.54081070902794 110.05439672246409 0.5265200633877954
1.8483888136047042 12.799285498648189 80.65450064283381 115.50241323464707 0.5378461752209185
1.867786834697604 12.767443704708038 73.55537245665585 121.25898130078514 0.5496396966033297
1.8864688735183384 12.733657989296656 67.16065702534344 127.34534674976892 0.561929937652993
1.904405537621754 12.697902962312748 61.40165385373031 133.78446254651422 0.5747481762454902
1.9215457524858832 12.66009581313871 56.20270143768032 140.60074620553854 0.5881264083724941
1.9379001585328117 12.620366316881253 51.51336367522664 147.8223579550407 0.6021048419065094
1.9534049196761876 12.578551743746587 47.27174197843006 155.47835957116828 0.6167213864996953
1.9680449802288897 12.534712172538566 43.43920028145852 163.60112747801182 0.632019523103341
1.9817846141275441 12.488790278769912 39.97146990967695 172.2251507067688 0.6480435279692714
1.9945925619990401 12.440787489822089 36.830111783446185 181.3894077247031 0.6648458002438208
2.0064492122269275 12.39069430540465 33.983254382206844 191.13557018410944 0.682479976857994
2.017334629403 12.338535613336614 31.40288042803457 201.50948895985147 0.7010050515095969
2.027190571477748 12.284214947048355 29.057877917782477 212.56165805142143 0.7204858874315146
2.0360171870470305 12.22779834457377 26.929647448401195 224.3459026564843 0.7409878120845036
2.043804585283596 12.169327544129539 24.997016596782608 236.92460852134496 0.7625924682482245
2.0504967990514698 12.108710913024446 23.239857171534297 250.3628471729172 0.7853771624436363
2.0560959054144425 12.046025385176831 21.638937036297513 264.7348452025021 0.809434364358441
2.060583493315074 11.981289864169705 20.185910845497272 280.12169530799684 0.834862381542823
2.0639308848295315 11.91449725928456 18.861005093964422 296.61263004465974 0.8617673870137404
2.066122731361054 11.845671854835379 17.655132850459562 314.30673482136086 0.8902665698492565
2.0671538804408307 11.774875067776637 16.557165020604646 333.3144321228191 0.9204902037072491
