M[M_sun], R[km], Lambda[1], P_c[MeV/fm^3], rho_c[fm^-3]
0.24162668629717493 15.618656898711224 2160425.4255784233 3.5677272577965504 0.1711233750220791
0.25364458725809075 15.277300322212264 1723176.4904951723 3.7848502130792183 0.17388855455556465
0.26604301142367653 14.98120368532132 1353385.8225921786 4.011465828909105 0.17666743868654286
0.2788198686879455 14.72343433413339 1116355.7802644442 4.247829246307955 0.17945868603402007
0.29197735988677925 14.498259684107817 905829.936865342 4.494566069391965 0.18226887047159132
0.30551416480827204 14.30110510568937 738514.4565651565 4.751833451917843 0.1850937285796825
0.31943250252551403 14.128016532996982 604999.3115937288 5.020311207097062 0.1879398247421009
0.3337341193925336 13.975772831288971 497565.5204416388 5.300226746306693 0.1908038475079999
0.34841638213320986 13.841897748646236 410926.213520568 5.592304908034244 0.19369201682571763
0.3634822391275863 13.72383527155802 340599.85081358155 5.896717773648823 0.19659948420018422
0.37893713285371516 13.619891588595593 283235.3315681071 6.2143275126747355 0.19953388989211732
0.3947719763891962 13.528331197802483 236349.40277841385 6.545387391940298 0.2024913381356203
0.4109999176258466 13.447751004330089 197811.74839717752 6.890608199075291 0.2054756814727006
0.42761009468832656 13.37695619442386 166032.60617653528 7.250691510069711 0.20848992738610794
0.4446096356690278 13.31480954221128 138139.10279529024 7.625890483256483 0.21152952890545604
0.4619907322962907 13.260468516291438 117936.06785437142 8.017165841905136 0.21460082816395665
0.4797610115983681 13.213087166251613 99777.63958911138 8.425217530129704 0.21770538702735337
0.4979209098008044 13.171902084001553 84611.97948370142 8.850478686220873 0.22084056056857668
0.5164637552027208 13.1363138873016 71913.70028835387 9.293838188028982 0.22400997535905792
0.5353842840912041 13.105778601439901 61253.20293538282 9.756174023702737 0.22721644642267153
0.5546946972448193 13.079747340637901 52283.35988050277 10.23829039631689 0.23046125056735614
0.5743808271218311 13.057800221274839 44710.69549490396 10.740664666440477 0.23374116367355952
0.5944415097641145 13.039476262156729 38311.6586101107 11.264546825128276 0.23706243318854153
0.6148819007088863 13.024463591099574 32888.070529495955 11.810870151932846 0.24042661288930658
0.6356897433723344 13.012403051947228 28278.524763932473 12.380614218062018 0.2438353367420523
0.6568638880178238 13.002989202977746 24359.83789301601 12.974452844725114 0.24728638167674488
0.6783996698842345 12.995971918175403 21017.216778750182 13.59374354527877 0.25078487427649504
0.700291568830041 12.991041431329256 18163.313158777175 14.239670200156766 0.25433328727145493
0.7225304860112054 12.987997973026411 15721.328257859064 14.913423235889061 0.2579336066941585
0.7451220019279841 12.986650545333644 13626.911988398311 15.616011203854228 0.2615855140704192
0.7680466496289038 12.986763105407086 11829.723475637922 16.348743132197626 0.26529132899994234
0.7912963083785913 12.988149764965732 10284.230395233162 17.113215669918745 0.26905553727854237
0.8148730188441704 12.990685036033687 8951.016286885086 17.91088483575781 0.27288057340135113
0.8387612291356131 12.994149931323689 7803.202083309263 18.743085772946515 0.27676724412967346
0.8629453882440159 12.998423959703326 6809.997154983846 19.61122424685017 0.28071657403570494
0.8874302788486574 13.00337779446404 5951.713708787333 20.517358139682955 0.2847346606481688
0.9121910668119513 13.008876800435578 5208.070036822997 21.463282866071463 0.28882451987125607
0.9372159536580748 13.014764479584064 4562.691938766594 22.450444026883627 0.29298575890990225
0.9625036243219849 13.020974488422642 4001.958803118655 23.48094559831032 0.29722280225914427
0.988027071341753 13.027364919398803 3514.3132366585346 24.557174141666625 0.30154144820671236
1.013774948742662 13.033818292503483 3090.1725818770415 25.681026167902132 0.3059429828312825
1.0397430322550876 13.04028389006332 2719.6806862646317 26.85455663267131 0.3104293541298039
1.0658987340847073 13.046609911859148 2396.7853253131707 28.08081973603575 0.3150089651550241
1.092234778813693 13.052735656051865 2114.401108090355 29.361815615433382 0.31968187803243886
1.1187369147914146 13.058569911028032 1867.1040535774234 30.700412622976938 0.32445354284258704
1.1453732704896653 13.064017758852561 1650.901658001691 32.09989695826123 0.3293312439503078
1.1721394633584235 13.069033443311222 1461.1305222653687 33.56233253201197 0.3343134714429202
1.1989990419785028 13.073492759043788 1294.4920377439378 35.092206264498394 0.33941341107228357
1.2259493337218803 13.077355252213247 1148.2394350109805 36.69147142166821 0.34462739081487653
1.2529479113788071 13.080515799734345 1019.4226673437391 38.365250063806606 0.3499702750884937
1.2799941177905654 13.082950014009473 906.0424522181231 40.115862362891264 0.35543909269614155
1.3070473368362507 13.084549719207573 806.1749472274236 41.94863191341187 0.3610475339684642
1.3340817066633266 13.085241209874955 718.001622557673 43.86720181289247 0.3667984159174087
1.3610925392627626 13.085027283332188 640.1470489165655 45.87610434832765 0.37269861401030335
1.3880333785911991 13.083776063832751 571.3250621211528 47.980755399837214 0.3787585323541578
1.4148784630064506 13.081450157975596 510.4253013846918 50.186008767901484 0.38498430367522296
1.4416115820514912 13.078006827956532 456.52418800149 52.496907420455145 0.39138196850858037
1.468207168580221 13.073397039707647 408.6859556140808 54.91996181871562 0.3979636923930167
1.4946189024270273 13.067520418319065 366.22299831973646 57.461367329699904 0.40473854557445055
1.5208321394909452 13.060366091096032 328.58571435665226 60.12775792194702 0.4117163091436916
1.5468170514784285 13.051868102903775 295.0503727403775 62.92624565388778 0.4189075335782799
1.5725350856798481 13.041976060644222 265.24608396734584 65.86446394374742 0.4263236020658069
1.5979485586013376 13.030629638540804 238.7146176244806 68.95061500498586 0.43397679916839177
1.6230574585769746 13.017812492330917 215.0460817880448 72.19352187902153 0.44188038545653413
1.6478001060323468 13.003447655759599 193.92539348842493 75.602685551121 0.45004867881651245
1.6721477017990753 12.987500965864848 175.09350299686147 79.18790179320585 0.45849528130560646
1.696084323075519 12.969937302187187 158.22670800968288 82.95967166716717 0.4672347380712818
1.7195645207111026 12.950707899464515 143.15831052723036 86.93059935854077 0.47628799915252257
1.7425459680901385 12.929756074066908 129.674151067399 91.11211246667463 0.4856687786113358
1.7650249389129888 12.907088011655935 117.57058374407208 95.51863577554555 0.49540029999600627
1.7869365269379434 12.882604668945339 106.7267578935704 100.16352207165434 0.5054988077884486
1.8082863019762248 12.856360997995465 97.00079953093017 105.063477455015 0.5159906754754556
1.8289894147223607 12.828202504873717 88.25734360630116 110.23506185023705 0.52689846762556
1.8490702825141592 12.798219501703192 80.39930498304116 115.69612675995732 0.5382463205188109
1.8684415283705351 12.766260651029127 73.32218209042783 121.46651323516964 0.5500621555697671
1.8871181441359064 12.732418306557166 66.94807271141181 127.56766496036651 0.5623758202695321
1.9050360226666898 12.696582764685497 61.20390273324308 134.0224178602752 0.5752179739193235
1.922172184471584 12.658744506054676 56.026379790540446 140.8563252606125 0.5886243735635808
1.9384808095681296 12.618842514522973 51.347595173197035 148.09709078580454 0.6026333041752943
1.9539706575393276 12.576965849469214 47.12414025029046 155.77302211625042 0.6172798015187626
1.9685797483050613 12.533011264836002 43.30326752725522 163.91802069670473 0.6326122650880828
1.9822897173808742 12.48698846910135 39.84511725772367 172.56615485132306 0.648673154837569
1.9950697767127032 12.438884284115517 36.713790936992076 181.75627449848673 0.6655140531591636
2.0068998561709908 12.388699430036816 33.87518711881695 191.53068116389736 0.6831902726050023
2.0177387771672386 12.336400078575801 31.30215855619186 201.93547125123683 0.7017611280571178
2.0275664714611215 12.281992687161916 28.967152235509683 213.02037876695582 0.7212884525686011
2.0363673792681554 12.2254974250201 26.848043486294124 224.84152622036243 0.7418445092137905
2.044102006671739 12.166875668582014 24.921979723823224 237.45958847314247 0.7635046582101347
2.049839643884017 12.110316653151338 23.321101806926755 251.79755217598037 1.9999012933151734
