M[M_sun], R[km], Lambda[1], P_c[MeV/fm^3], rho_c[fm^-3]
0.24162668629717493 15.618656898711224 2160425.4255784233 3.5677272577965504 0.1711233750220791
0.25364808374777514 15.277184033949954 1723027.4260265015 3.7848847789433715 0.1738889854023862
0.2660466266665124 14.981128499808353 1382853.2981573865 4.011538494639261 0.1766683168090074
0.27882736694403326 14.723256852071685 1116274.1018278124 4.247942471724573 0.17945999927822578
0.2919848819829717 14.498184863330499 905715.938616858 4.494722827090695 0.18227061600494823
0.3055253756402774 14.300953280890727 738477.9329777104 4.7520390662548415 0.18509594960694295
0.31944489633090056 14.127885702152025 604846.5364461496 5.020567194226184 0.18794248070736752
0.3337478657127878 13.975661475009337 497522.7825145182 5.30053984767025 0.1908069999192018
0.3484349731366558 13.841740874501056 410828.95973679476 5.592675906957637 0.19369560634235974
0.36350277123113106 13.723695445765784 340504.72395401704 5.897155007511685 0.19660359079315276
0.3789615237047999 13.61972735868996 283156.0148288698 6.214836274917244 0.19953852919117937
0.39479772740372066 13.528231451195353 236273.40539878985 6.545967155918189 0.20249642188248365
0.41103121443623347 13.44760118251605 197741.34901034937 6.891270160211723 0.20548131901151967
0.4276450936562427 13.376797988109661 165969.7534498873 7.251441882873553 0.20849613502801007
0.4446458096081499 13.314699044469329 139702.90467070736 7.626727195231992 0.2115361896707851
0.4620324566011233 13.260342758271118 117895.41032916692 8.018103491412807 0.21460808164095554
0.4798050260146899 13.212969588116998 99735.77435728376 8.426263432112282 0.2177132507481182
0.49796977349411725 13.171803014587804 84573.54480843832 8.851628985472933 0.22084888922664664
0.516515854557102 13.136230781467505 71879.29180133066 9.295111505380541 0.22401893959259497
0.5354410553752318 13.105686585746982 61226.005937322276 9.757578996530079 0.22722606561034298
0.5547568756236124 13.079671844745993 52257.38933216998 10.239821152002213 0.2304713516208725
0.5744467599368659 13.057713063668771 44689.45007747315 10.742344559151947 0.23375194910513278
0.5945100759375412 13.039435685099038 38289.50952405215 11.266386090778626 0.23707392495360882
0.6149561087195673 13.024414721555564 32867.64500564043 11.812879661110886 0.2404388340579011
0.6357684051012648 13.012394668829055 28263.139941891197 12.382805519761698 0.2438483116020172
0.656946825934155 13.002974047002565 24345.330207127878 12.976815875807693 0.2472998877934064
0.6784872012866794 12.995939964088864 21006.610369572172 13.59631187235273 0.2507991740335469
0.6929733298767344 12.987609112910787 19004.41457678221 14.38006021467753 0.769490096322107
