M[M_sun], R[km], Lambda[1], P_c[MeV/fm^3], rho_c[fm^-3]
0.24162668629717493 15.618656898711224 2160425.4255784233 3.5677272577965504 0.1711233750220791
0.25364614984029804 15.277221442990024 1723110.1471998533 3.7848593514594033 0.17388866846106515
0.2660438745783844 14.981177997514155 1382936.402897958 4.011485039882705 0.17666767083982127
0.278822476019892 14.723362418865449 1116316.2535968162 4.2478591800947765 0.17945903322083795
0.29197900618554096 14.498266497093713 905712.4861988594 4.494607511769678 0.18226933194208542
0.3055166673103618 14.301084671865723 738527.111622566 4.751887810385198 0.18509431575487464
0.31943815278938414 14.127922527267042 604982.0767045999 5.020378882378595 0.18794052689926707
0.33373740408845853 13.975756225317872 497549.79529624863 5.30030952050325 0.190804680906812
0.3484212916075459 13.841856352788847 410900.55185120046 5.592402988127084 0.19369296577759676
0.3634878043733189 13.723796979276347 340567.68953715975 5.896833363612298 0.1966005698455826
0.37894385650630485 13.619831150040428 283214.11396837333 6.214462011763278 0.19953511636185736
0.39477886016573216 13.528317577223977 236334.59085715492 6.545540660822466 0.20249268209666083
0.4110081563126168 13.447711547044733 197797.31132995948 6.8907831972113796 0.20547717183026265
0.4276200180661702 13.37690984099219 166022.7308444146 7.250889880161671 0.20849156845104083
0.4446185904571475 13.314806230518602 139745.16006234562 7.626111677318457 0.21153128975241667
0.46200211188492524 13.260431203450947 117927.56524065537 8.017413718897595 0.21460274569289325
0.47977282512501285 13.213037673149246 99762.89015743366 8.425494023607897 0.21770746587177858
0.49793360956036653 13.171880509530572 84602.98686407988 8.850782776947606 0.22084276231536618
0.5164771598981401 13.136303541852653 71905.81952457354 9.294174798202194 0.22401234511566254
0.5353996744175481 13.10576932421878 61247.352555276426 9.75654543640408 0.22721898931062512
0.5547101999103444 13.079731189372744 52275.611753836 10.238695059033976 0.2304639208300248
0.5743981351874051 13.057767822233302 44705.988650748724 10.74110875248127 0.23374401484350205
0.594459055985522 13.039480732092656 38303.498261224755 11.265033040072536 0.23706547106831194
0.614901331484254 13.024467668104366 32881.67056880698 11.811401369105463 0.24042984357603236
0.635710373393182 13.012393532968145 28274.580302947204 12.381193490089872 0.24383876665471294
0.6568858155626087 13.002981811501753 24355.33907478113 12.975077511433602 0.24728995201549395
0.6784230339054781 12.995949145138981 21014.681942876658 13.59442247924204 0.25078865439890524
0.700316919279726 12.991044094373894 18160.76395959313 14.240407043002437 0.25433728467985434
0.7225567643424546 12.987993716262261 15718.397518701713 14.914221863280353 0.2579378293382211
0.7451491118473766 12.986640671210207 13624.205489221342 15.616867946548508 0.2615898931707724
0.7680752331136915 12.9867650093127 11827.893187709013 16.349669595317287 0.2652959471862289
0.7913261871245106 12.988139854051388 10281.83553362524 17.1142165048825 0.2690604040000599
0.8149043421914234 12.990684111801043 8949.180641622359 17.91196500243825 0.2728856987150142
0.838794943567105 12.994143391993672 7801.763411661484 18.74424047972195 0.2767725494098453
0.8629780615593392 12.99842697431184 6808.910478550071 19.612468511922117 0.2807221562683659
0.8874665980499452 13.003390553988487 5950.720546780013 20.518697953899483 0.28474053192180715
0.9122285980434279 13.008875920084144 5206.956995383348 21.464724630613663 0.28883069308950954
0.937253722615937 13.014780102317062 4561.786321221155 22.45198173481693 0.2929921456732191
0.9625443451625464 13.020982735648056 4001.2494754631075 23.482598552560283 0.2972295153974939
0.9880687880435026 13.02736965548373 3513.527346522922 24.558950125503454 0.30154850334739697
1.0138175596849825 13.033832999490434 3089.4339392937477 25.682918305310505 0.30595028495394655
1.0397873843732064 13.040289247371279 2719.070253486408 26.856588062706642 0.3104370285066787
1.0659438178991671 13.046623785757859 2396.2167646820417 28.08299997144899 0.3150170307938567
1.0922813463155505 13.052742289226703 2113.738456350319 29.364136927280224 0.31969023332979474
1.1187849930960925 13.058579147110164 1866.703106340367 30.702902734538053 0.3244623268724741
1.1454224018309296 13.064035714278459 1650.4957882778158 32.10254774029161 0.32934035177627263
1.172189673259801 13.069040104655057 1460.7183548404219 33.56517508849411 0.3343230511513448
1.199050905417354 13.073493659875767 1294.2605116816637 35.09525401706763 0.3394234891637824
1.226002417919324 13.077356548060225 1147.9349622035907 36.69471552354965 0.3446378557853699
1.2530023809075606 13.080520492773564 1019.1792700693162 38.368703685020286 0.3499811502106088
1.2800499870711581 13.082948709160936 905.8267166016839 40.1195647717939 0.3554505467123914
1.3071044867905097 13.08455620942457 805.958297500414 41.95257425130686 0.36105945225318226
1.3341386476602988 13.085241164301413 717.8220052055314 43.871428296582835 0.3668109792127129
1.3611513840297378 13.08502537451305 639.9740184785107 45.88060611911917 0.37271170454824576
1.3880923128361913 13.083773975998595 571.1837676665937 47.98555169331126 0.37877218415366215
1.4149392214687067 13.081441513448265 510.27922895312724 50.19115219779124 0.3849987161325918
1.4416730745929605 13.07799604628262 456.37104347810225 52.50238981891967 0.39139702112068675
1.4682705455683336 13.073384138496289 408.5846615573987 54.925807470695716 0.39797942783682955
1.4946822197936123 13.06750422198007 366.1300984854085 57.467602487715226 0.404755009826881
1.5208960899883446 13.060344493255128 328.49250407955105 60.134410982306285 0.4117335517526757
1.5468810635909713 13.051848510191245 294.9777361132344 62.93334735048464 0.4189256079607288
1.5725994248280157 13.041949153296898 265.1734910982715 65.87204756140395 0.426342565835317
1.598013192345337 13.03059836473457 238.64009833260855 68.95871661453847 0.43399671449593036
1.6231225748878857 13.017778276845293 214.9957800401762 72.20218059661877 0.4419013194677132
1.6478488280202113 13.003421576074189 193.88843089629918 75.17687957468728 0.44889063178825744
