M[M_sun], R[km], Lambda[1], P_c[MeV/fm^3], rho_c[fm^-3]
0.24162668629717493 15.618656898711224 2160425.4255784233 3.5677272577965504 0.1711233750220791
0.25363616699866576 15.277491337682443 1723390.2092823635 3.7846763399411314 0.17388638731077757
0.26602245012373077 14.981678177284921 1383499.9251896434 4.0111003201848225 0.1766630217293184
0.27879017306471704 14.72397544692491 1116930.0355395032 4.247259743796169 0.17945208066310533
0.29193487476873997 14.498958439313009 906364.1488654079 4.493777636700798 0.1822600910905895
0.30546063231022075 14.30181877419126 739179.6892497474 4.7507993271453905 0.18508255805848323
0.3193665072618326 14.128746104186302 605545.8091598538 5.0190237808344795 0.1879264671977257
0.33365335287792963 13.976604797145006 490143.22803523834 5.298652134858845 0.19078799378347294
0.3483230101134159 13.842635019684419 411396.4903912857 5.590439188435386 0.1936739654753569
0.36337381735777 13.724665511312587 341002.68343078933 5.894519042715983 0.1965788332539619
0.3788143934647725 13.62064056901388 283643.9836528057 6.211769175060743 0.1995105609335167
0.39463373172085714 13.529095261553573 236721.7734589225 6.542472112260268 0.20246577507117638
0.410845155073681 13.44846362822673 198149.71543303932 6.887279715042932 0.20544733470593693
0.4274392286561206 13.377610932604869 166331.82979852692 7.246918602655518 0.20845871508998368
0.4444192090015884 13.315483251695392 140026.21274866347 7.621683588120624 0.2114960393151499
0.461785103503715 13.261069625066913 118174.6075401818 8.012451603353076 0.2145643597174583
0.47953509553166085 13.213616892312238 99988.82693083836 8.419959205406288 0.21766585177643644
0.49767578992658046 13.172416690505113 84798.6596544027 8.84469566992869 0.22079868905972852
0.5161949799725303 13.13679123331976 72079.17018898937 9.28743692282224 0.2239649100529301
0.5350967969388778 13.106211461647367 61401.323310780004 9.749111129216061 0.22716809010840786
0.5543878143712019 13.080137719725187 52406.13935628047 10.230525676557187 0.2304095766331715
0.574050675108492 13.058120834346903 44827.184900926644 10.732220248794865 0.23368694789652147
0.5940949029602087 13.039767166009751 38077.709971035016 11.255301580286053 0.2370046687314626
0.6145086571023276 13.024729093684016 32697.716674545416 11.80076949161468 0.2403651840219925
0.6352914328375978 13.012621801575314 28361.925091656434 12.369600149565233 0.24377012162520625
0.6564403303320638 13.003150684114305 24432.04745818886 12.962575944527664 0.2472184981855684
0.6779561779730645 12.996080064457951 21081.844385634882 13.58083522023779 0.2507130041810141
0.6998235293065728 12.991123479412124 18218.946649140045 14.225661274494124 0.25425728816602927
0.7220322842751222 12.988061618271654 15770.97131220798 14.898240090676346 0.25785332768208896
0.7446032640169118 12.9866653640354 13574.18855337588 15.599723581871078 0.26150226255084796
0.7675017806443512 12.986733997808207 11869.104445854973 16.33113055174771 0.26520353470378727
0.7907256848580728 12.9880964320093 10318.293900916919 17.094189784896564 0.2689630208423847
0.8142771165080426 12.99060622372019 8982.70314665513 17.890351444807767 0.272783143929501
0.838138631928403 12.99404823497954 7831.216135177121 18.72113593096955 0.2766663959629426
0.862296729350858 12.998300312993544 6835.16403600126 19.587572673814037 0.28061046434375836
0.8867485575171193 13.003234535258283 5973.913248999704 20.491891064427467 0.28462305997566684
0.9114850908891416 13.008718074301331 5227.544650149677 21.43587872932158 0.28870718329357453
0.9364841572298819 13.0145987267555 4580.223660090261 22.421216953110708 0.2928643662848218
0.9617397793360616 13.020782972431011 4017.4263617447773 23.44952897683784 0.29709521002455674
0.9872417247343046 13.027174607206991 3528.185252018756 24.523420182416963 0.30140735975037025
1.0129621122304913 13.033626824465541 3102.4132280530666 25.64506548629319 0.30580420363531735
1.0389023433902709 13.040075217286255 2730.823204103876 26.815949815829896 0.310283504527689
1.0650346806159883 13.046410667556026 2406.546479566062 28.03938617368861 0.31485568439120826
1.0913399258306198 13.052531349899064 2123.251095618969 29.317702102334948 0.31952309647111954
1.117817826754727 13.058377420319802 1875.2969960133025 30.653092759710667 0.3242866189586646
1.144431831689977 13.063845287634809 1657.986048249475 32.04931734219167 0.32915682693916615
1.171169019103814 13.068866349637341 1467.455451204118 33.50831819288926 0.3341314375509652
1.198004343119716 13.073328178398613 1300.3535724248218 35.034294641244 0.3392219130340578
1.2249310525514066 13.07722073049621 1153.3994420332804 36.62983049686801 0.34442854673328116
1.2519119619221757 13.080414620357255 1024.0604076197692 38.29925549315255 0.3497614466433021
1.2789306647226997 13.082867202296597 910.2572179152656 40.045517390855196 0.3552214688533987
1.3059575338830811 13.084479213417435 809.95720950953 41.87373039423249 0.36082109532845447
1.332975389093257 13.085226212192893 721.4266110718465 43.78690447870736 0.3665597307134873
1.3599676986289155 13.08505861513422 643.2337625118511 45.790579364425085 0.37244991897480556
1.386885223316095 13.083841516654434 574.1059678661665 47.8896376815555 0.3784991819144886
1.4137181432931825 13.081569317790755 512.9115151272329 50.088299811041885 0.38471051241035276
1.4404445570843105 13.078199800637684 458.7409533326809 52.39276225102596 0.3910960248931508
1.4670156907369598 13.073617008911537 410.73322904313886 54.80891958094562 0.3976647866594509
1.493418711599805 13.067816236428385 368.06773370504936 57.342929852027474 0.4044258053800827
1.519621820361195 13.060738062427562 330.21246554952876 60.00138637744468 0.4113887944345346
1.5455971969654294 13.052299125496509 296.53848908036514 62.79135688760029 0.4185642309439458
1.5713083421973808 13.042483511006079 266.62737430638805 65.72042642986638 0.42596341853101305
1.596725963098925 13.031224500268177 239.92041416908916 68.79674439227219 0.4335985553600639
1.6218148023109815 13.018465788072621 216.14645728402022 72.02907607778056 0.4414828080782598
1.6465531835291156 13.004204028190811 194.9357418532095 75.4268593092421 0.44963039235386826
1.6709184052385468 12.988357574403611 176.0006977977507 79.00026660569593 0.4580566607909446
1.6948491365328329 12.970887539809699 159.06674727632222 82.75934573574031 0.4667743896643067
1.7183399637061294 12.95176538984345 143.91162365540313 86.71608074497622 0.4758022200379648
1.741339779786968 12.930940105394527 130.35344511739984 90.88331185044606 0.48515978145870664
1.7638251568257597 12.908374177526428 118.20326857641508 95.27335073494781 0.49486208984744673
1.7857591488701394 12.884026016156577 107.29815562774745 99.90153908215837 0.5049334598629266
1.8070986473369395 12.857845582374214 97.52054243072908 104.78341665160237 0.5153959287983672
1.8278476533957402 12.829872522905728 88.72588022706847 109.93459838827422 0.5262688273011633
1.8479265660080684 12.799964010380103 80.8239464114687 115.37417676447686 0.5375812829245507
1.8673437938047124 12.768201979012916 73.7126507196392 121.12160246753253 0.5493600436425533
1.8860383345666067 12.734474845312603 67.3069138256218 127.19805540842745 0.5616343251061788
1.9039745330886815 12.698745350382808 61.53064255839846 133.62662034952282 0.5744360235735345
1.9211467132701525 12.661062017976127 56.325525919634146 140.43158186876812 0.5877968119145193
1.9375093110109969 12.621362630154318 51.62253471678284 147.64052396260203 0.6017550751752484
1.953027654468459 12.579600505649564 47.37297548625684 155.28334283137065 0.616351810256328
1.9676912793306773 12.535852498679635 43.532776762702014 163.39113629598685 0.6316263284681695
1.9814457377639894 12.48999325839936 40.05421335649472 171.99948406244613 0.6476268591844101
1.9942905088451217 12.442088867656704 36.905805321834826 181.1466369415066 0.6644035898960209
2.006154230412395 12.392027216860637 34.053459495389674 190.87412135028399 0.6820099671538189
2.0170473859062636 12.339903366091987 31.46482695751827 201.22762603315022 0.7005047726181872
2.0269377394900197 12.285681455940129 29.11705614052797 212.25746376843864 0.7199526331711192
2.0357985062365085 12.229366246262089 26.983660994043127 224.0179921298519 0.740421010932777
2.043606755639865 12.170950412629201 25.047467827097808 236.57011368197297 0.7619871457326493
2.0503265960060544 12.110413135019963 23.28508865106542 249.97957594925123 0.784731053794742
2.055950540392291 12.04779384924135 21.68224810617436 264.3201502394936 0.8087442878467254
2.0604661638237576 11.983128799240431 20.22478189149194 279.6724288183704 0.8341241664881163
2.0638453911515637 11.916418301506823 18.89682721347639 296.12586821454875 0.860978327247993
2.0660759672582274 11.847684447295473 17.688057702155337 313.7782767908663 0.8894206124821297
2.0671406706498536 11.776965496174839 16.587367336130942 332.7405459942633 0.9195837964088958
