M[M_sun], R[km], Lambda[1], P_c[MeV/fm^3], rho_c[fm^-3]
0.24162668629717493 15.618656898711224 2160425.4255784233 3.5677272577965504 0.1711233750220791
0.2536433637615905 15.277310401951075 1723289.4804751752 3.7848078117895736 0.1738880260439443
0.2660379015465409 14.981309934965457 1383025.4137938314 4.011376692522773 0.17666636152591872
0.2788167980125355 14.723450761079423 1116460.9381224243 4.247690358777076 0.17945707514796091
0.29196631466977974 14.498479117122802 905969.1369457889 4.494373785762547 0.18226672934875104
0.3055007873245974 14.30129236664887 738669.3071189587 4.75158124276421 0.18509100423947486
0.3194166204384291 14.128198684827039 605151.0732049041 5.01999721412627 0.18793656694383878
0.3337135007687839 13.976001915413091 497708.73532332986 5.29984270235967 0.1907999808226975
0.34839342002340745 13.842090383745512 411040.78241198737 5.5918498537803725 0.1936876140506303
0.3634548953319988 13.724049385333561 340683.1886522243 5.896181484979147 0.19659444726350783
0.37890813662597955 13.620050870670088 283327.0046244659 6.213703499082528 0.19952819963951765
0.3947380559025191 13.528528418315483 236423.876158422 6.544676300845692 0.20248510282735765
0.41096264202674604 13.447913003428436 197886.9181742289 6.88979630203106 0.20546876701677258
0.4275689050394433 13.377107701300956 166097.98970149847 7.249771187565552 0.2084823137938895
0.4445633166717167 13.314969392864098 139827.18539311443 7.624864278538708 0.21152135965605506
0.46194316855373224 13.260607845235679 117996.63108200459 8.01601585437378 0.21459193208067662
0.4797058443599913 13.213198525348414 99829.00657976273 8.423934791445255 0.21769574262568211
0.4978612123734417 13.172033801716914 84654.1062291825 8.84906792568577 0.22083034605953092
0.5163986175881233 13.136430469204242 71950.48448728812 9.292276573654568 0.22399898149650674
0.5353156010098357 13.105869132575545 61287.82106233814 9.754450966251467 0.22720464945929267
0.5546204420358459 13.079845091380376 52309.489235781126 10.236400482429548 0.23044870054851221
0.5743005022037505 13.057865452568683 44737.574971758266 10.738604494149751 0.23372793672929154
0.5943540036836429 13.039564805215456 38336.54522392754 11.262291229675375 0.23704834018733387
0.6147901576939426 13.024526708375632 32908.963673892984 11.808405806946983 0.24041162556012372
0.6355908282426523 13.012445494897586 28300.759550224564 12.377926965714742 0.24381942532150197
0.6567618481372863 13.003027527521322 24376.41429997122 12.971555025396096 0.24726981892976696
0.6782919292927486 12.995982797734483 21033.18416082398 13.590594006291797 0.2507673384872276
0.700178072914573 12.991056069468863 18040.97183713838 14.23625205239744 0.25431474365303786
0.722409929348366 12.988004851541064 15733.94303472356 14.909718505010453 0.25791401838549444
0.744995665698105 12.986642518012022 13637.60066810431 15.612036909961601 0.26156520011629336
0.767913712179843 12.986759983711437 11838.949476644051 16.344445450894337 0.26526990613654117
0.7911569145619597 12.988128531202028 10291.949059852815 17.108573029680397 0.2690329616911932
0.8147289036930678 12.990652586754525 8958.821043000633 17.905874234796617 0.27285679845806543
0.8386092030271448 12.99412614896765 7809.758541870965 18.7377294361509 0.27674263453354075
0.862786807771496 12.998396802215794 6816.374916826271 19.605452523144574 0.2806906799514736
0.8872608549525595 13.003333172165881 5956.709916590642 20.511143246822616 0.2847074260240205
0.9120195740195157 13.008828352855959 5212.827803988959 21.456595119219596 0.28879588487592084
0.9370374346682593 13.014725478638823 4566.6799343252305 22.443311286176723 0.2929561335657725
0.9623140249855674 13.02091943338293 4005.6526011975266 23.473278345227467 0.29719166326621194
0.9878365809710127 13.027324529906942 3517.7493556316535 24.548936283120987 0.3015087231054056
1.0135766954872136 13.033770427728859 3093.206898235155 25.672249593410413 0.3059091123400462
1.0395381499094605 13.040229005278551 2722.3998610244216 26.845134037237823 0.3103937572609787
1.0656872330501272 13.046552913899347 2399.1034989494474 28.070707007854992 0.31497155377613223
1.0920160323931238 13.052686918027948 2116.5655095964225 29.351048598163917 0.31964312338125106
1.118512742300958 13.058518944623632 1869.2272387288294 30.688862757451684 0.3244127999435341
1.1451416897036462 13.063978196581377 1652.6511223648367 32.087601943484465 0.329288999490545
1.1719031184861026 13.068995094971935 1462.689073366132 33.54914813529185 0.3342690386666052
1.1987557462681755 13.073451837223548 1295.8612627596474 35.07807025136783 0.3393666671091426
1.2256995913193536 13.077318391668662 1149.482270831661 36.676424816868874 0.3445788527969582
1.2526937403229432 13.080490282816944 1020.5138762737733 38.3492041970594 0.34991967318743444
1.2797332105341288 13.082930423601834 907.0461818510964 40.09869035459468 0.3553859682392692
1.3067759217543473 13.084521375542518 807.0732936255406 41.93034724033333 0.3609922566316319
1.3338105710131218 13.08523164619525 718.8233753346021 43.847599452601905 0.3667401475650309
1.3608181930081937 13.085034582295133 640.8681782867488 45.85522537783963 0.37263790080031794
1.3877474857953223 13.083780280446456 572.0239111909203 47.95851062994734 0.37869521655828325
1.4146032021295691 13.081497228710669 511.02517921073274 50.16215425157274 0.3849174606916478
1.4413252391693308 13.078048817796525 457.0700910743103 52.471481029573575 0.391312157165665
1.4679179319904545 13.073453241827886 409.1842141690706 54.892850956227036 0.39789071482697974
1.4943264717446303 13.067593283163335 366.6870001295958 57.43245027745893 0.4046621886246395
1.5205371911994852 13.060455859880893 328.9680148608977 60.096903024022545 0.41163634309627484
1.5465195001375622 13.051974063013704 295.40788295635303 62.893310418371 0.41882371078542235
1.5722359466179188 13.04209877441292 265.57579335297254 65.8292940539874 0.4262356554269713
1.59765872524273 13.03077916037779 239.02110038560537 68.91304323007049 0.4338844404588305
1.6227457789299096 13.017966720942628 215.31203349750592 72.15336687207375 0.44178330348626543
1.6474970314498232 13.003636291934779 194.17783577479346 75.55975052255847 0.44994653740105006
1.6718462154104972 12.987710543608062 175.30767317462636 79.1421972648281 0.4583886531637949
1.6957843842386344 12.970169486574036 158.43292869666527 82.91075166706209 0.4671223200535185
1.7192493615284048 12.950931759120344 143.3427858463931 86.87821202984212 0.4761693676280762
1.7422522092724633 12.93003963902147 129.83409595431044 91.0562360046611 0.485544474050742
1.7647325439657642 12.907398866132967 117.72884243578693 95.4587318357247 0.49526885737613957
1.786660237108002 12.882974646735113 106.86591636293018 100.09953849190197 0.505360733999192
1.8079995816543273 12.856729897136072 97.12529099410976 104.9950824101629 0.5158454384543505
1.8287123693123677 12.828607775693307 88.36847215206232 110.16189339712027 0.5267454918534693
1.8487938953628618 12.798653160857329 80.4994606105899 115.61749079641163 0.5380838857533105
1.8681818263706735 12.766759175369335 73.41174168158666 121.38226667546365 0.5498906604471256
1.8868549688665934 12.732920803649177 67.03700756291907 127.47753169831 0.5621952317899928
1.9047800965506663 12.69711900587262 61.28281313720824 133.92581846676964 0.575027256722698
1.9219257060913526 12.659318662834487 56.099099815296825 140.7525698292917 0.5884222185271715
1.938242550304493 12.6194462595558 51.41528354130323 147.98555789954202 0.6024187651194612
1.9537535201181344 12.577651312999288 47.18224851695148 155.65339666549 0.6170530993148952
1.9683635067958383 12.53370353084167 43.35821691035092 163.7895776653185 0.6323723324380174
1.9820827280225446 12.48772152017773 39.896099673665766 172.42771142903922 0.6484175341954126
1.9948788911091788 12.439659468128193 36.76115365669011 181.60732876166375 0.6652427464342909
2.0067123448181454 12.389501917485699 33.91881331522671 191.37026575157083 0.6829018918943693
2.0175723927862346 12.337259759980178 31.34209071351678 201.76251904332756 0.7014541549484073
2.027413809637957 12.28289138883924 29.003189281475894 212.83414753955674 0.7209626521781267
2.036230775642006 12.22644358261396 26.881307655661043 224.64029198400885 0.7414966710455457
2.043981315145137 12.167868308640212 24.951992562472544 237.2423707461894 0.7631342820317194
2.050647982026752 12.107182700408481 23.197562321295024 250.7069656904388 0.785957268480006
2.0562211981678233 12.044432993691146 21.601542657483428 265.10719280052245 0.8100539723944864
2.0606823408848776 11.979624454145197 20.150458902875208 280.52494849656415 0.8355247415094782
2.06400218915697 11.912761186986963 18.829239457408953 297.04949569251426 0.8624751876413386
2.0661643182178566 11.843866623226443 17.62513005951536 314.7812909094434 0.8910262408082777
2.067166365125614 11.772993809356349 16.529567008816926 333.8298063923849 0.9213041961982222
