M[M_sun], R[km], Lambda[1], P_c[MeV/fm^3], rho_c[fm^-3]
0.24162668629717493 15.618656898711224 2160425.4255784233 3.5677272577965504 0.1711233750220791
0.25364417773386166 15.277266664002358 1723290.6709902573 3.784824273851648 0.17388823123560648
0.26604032026513724 14.981252758917405 1383039.8981352972 4.011411299054867 0.1766667797254357
0.27881616610935744 14.723477017926333 1116496.835714248 4.247744280563911 0.1794577005594298
0.29197066897820906 14.498378991160978 905811.1555429932 4.494448437744307 0.18226756061589378
0.30550566440498494 14.301209059784654 738670.776507208 4.751679159710189 0.18509206192936875
0.319422235114865 14.128141095420046 605101.008294888 5.020119117306209 0.18793783173638096
0.33372179073220065 13.975941134000191 497675.4892524269 5.299991801132288 0.19080148199993818
0.3484024253709531 13.84201562921408 410999.4480769641 5.592026520396312 0.19368932334873884
0.3634658643116073 13.723965171300623 340637.68634380784 5.896389688473013 0.19659640275478277
0.37891872918443603 13.620000975229555 283296.12640812964 6.213945758983414 0.19953040875811381
0.39475171916049334 13.528437722038332 236411.8588600318 6.544952365613793 0.20248752354242866
0.41097715500812676 13.447858531338241 197866.5839358925 6.890111501035267 0.20547145138376052
0.4275853295442526 13.3770415257968 166076.09084177745 7.250128478552526 0.2084852695706589
0.44458051849052427 13.314934574804537 139798.4165796762 7.625262673982498 0.21152453113995506
0.4619622187083785 13.260577340732034 117974.74503919602 8.016462303174723 0.21459538572309028
0.47972746841970687 13.213139971859302 98735.51117258632 8.4244327748878 0.21769948676500198
0.4978844508621593 13.171976807431964 84640.12288540856 8.849615607619368 0.22083431151073665
0.516422319096311 13.136412088531545 71932.15804652016 9.292882817184392 0.22400324948875158
0.5353421404065646 13.105834544686108 61274.45767211461 9.755119881795649 0.2272092292091858
0.5546490969195562 13.079819054892592 52298.047481139605 10.23713643016929 0.23045360167336473
0.574331236926496 13.05785162682902 44728.12061229524 10.73940427639005 0.2337330715790158
0.5943894689895561 13.039535819203582 38326.396227497506 11.263166873838383 0.23705381122791025
0.6148256783181195 13.024518760152093 32900.538974266616 11.809362485825776 0.24041744376389024
0.6356312612154816 13.012426980429009 28059.421218367188 12.378970174815791 0.2438256022399985
0.6568014814393187 13.003012128658057 24370.092300325206 12.972679974144327 0.2472762486755049
0.6783336100221928 12.995986765022606 21027.13052534576 13.591816668993873 0.2507741459455818
0.7002206032419922 12.991062495892653 18171.49779134808 14.237578984648426 0.2543219423252604
0.7224571523482449 12.988003616756604 15729.047122507103 14.911156683609702 0.25792162257787415
0.7450446700482759 12.986646601908289 13633.039538421326 15.61357972789891 0.26157308597819734
0.7679651009158286 12.986764235995636 11836.074461568824 16.346113800820063 0.2652782224424843
0.7912103071346223 12.988143795002312 10288.299771529899 17.11037528453616 0.26904172544626204
0.8147860163409036 12.990657344466147 8955.856787940142 17.907819322632992 0.27286602776076857
0.8386680837790489 12.994136780820835 7807.011992622167 18.739808729807756 0.27675218781203853
0.862849945949207 12.99839690537962 6814.272242566115 19.607693057994215 0.28070073181831257
0.8873294616162775 13.003367042748087 5955.176407881023 20.513555806279978 0.28471799823363586
0.9120859904897882 13.008856617920646 5210.960831864077 21.45919122511289 0.28880700064955744
0.9371061777518397 13.014740701660008 4564.98191245759 22.44608012421505 0.2929676337426464
0.9623904431228377 13.020952626753632 4004.271146798319 23.476254661608536 0.2972037509713852
0.9879114660889784 13.027331766469128 3516.366259542903 24.55213408675647 0.30152142646118074
1.0136529012899949 13.033795488154453 3091.790995072478 25.675656506226627 0.30592226027273833
1.0396175401778132 13.040244885046505 2721.290778232851 26.84879170842415 0.3104075752840854
1.065769180971747 13.046573074952367 2398.1828653095777 28.07463255838908 0.314986076094518
1.0921014476973931 13.05270054014255 2115.6561098773423 29.35522811545768 0.3196581670772719
1.1186006312416967 13.058538203626766 1868.5029672015423 30.693346139335905 0.3244286153636466
1.1452307191357403 13.063995964514646 1651.9872474011734 32.09237455743737 0.3293053977220036
1.1719942965191836 13.069006431236824 1461.9902853718952 33.55426596183309 0.3342862862697191
1.1988508186668991 13.073468954039475 1295.4021829816677 35.08355744471835 0.33938481176997126
1.2257965068512549 13.077331932108246 1149.0010718354945 36.682265453999264 0.34459769378822963
1.252793038241632 13.080493976303037 1020.1025773032609 38.35544958145109 0.3499394143090946
1.2798346771418339 13.082940341130426 906.6604328237883 40.10535595254945 0.3554065893725089
1.3068783875431644 13.084521840790503 806.702748613681 41.93744470987392 0.361013713357315
1.3339159183982348 13.0852333017828 718.5357860200794 43.8552083652463 0.3667627651884499
1.360925225341082 13.085033584490322 640.5940158017881 45.863329790855666 0.37266146733246724
1.3878554894875037 13.08377328327096 571.7764659285585 47.96714515838825 0.3787197932135125
1.4147126766531328 13.081485777102866 510.78689015635007 50.17141357210276 0.38494340632817114
1.4414355680443318 13.078030581877744 456.8265074767357 52.481350443761784 0.39133925487927584
1.4680306565867687 13.073430386590651 408.99370024690904 54.90337416304187 0.3979190414071678
1.4944397065988324 13.067566569636368 366.5056216074739 57.443674515458966 0.40469182679697097
1.5206516427291208 13.060421351940331 328.8096217419952 60.108879388257684 0.4116673820098584
1.5466354096335573 13.051933533752228 295.27297561281466 62.90609420890352 0.41885624654868403
1.5723519632918868 13.042051331727365 265.4466160645982 65.84294515955366 0.4262697916969208
1.597775697920821 13.030723168678769 238.90162503439583 68.92762655083443 0.43392028908961544
1.6228634364684302 13.017898995207048 215.2220992082307 72.16895278590538 0.4418209852434914
1.647615027880619 13.003561680599041 194.08377727211646 75.57641539982355 0.44998618274913416
1.6719635036517362 12.987626826851105 175.21954824126703 79.15993702383903 0.4584300398186114
1.6959004123770993 12.970077931345786 158.34929583325234 82.92973937840813 0.4671659537588905
1.7193809080115567 12.95086744023456 143.26879224250845 86.8985454322495 0.4762154127803046
1.7423615884344992 12.929922193401715 129.77277727926085 91.0779235619427 0.4855927208827907
1.7648464092648903 12.907279964501358 117.67124860650391 95.48198246082606 0.49531987443922426
1.7867729495411988 12.882841901310846 106.81318466331538 100.12437242946122 0.505414324559055
1.8081113940354558 12.85658605211672 97.0802419153856 105.02162843029996 0.5159018089837543
1.8288213442551682 12.828451140637949 88.32586538160147 110.19029195650562 0.5268048656869069
1.848899726352535 12.798486365227454 80.45633297041908 115.64801124291276 0.5381469304639853
1.8682778834095597 12.766546247746641 73.37994455027501 121.41496453687414 0.5499572213105279
1.8869565196146505 12.732727069964756 67.00340642322867 127.51258963420746 0.562265591364745
1.904880079650927 12.696911162336605 61.254147066222124 133.96331029871263 0.575101277240064
1.9220214471920223 12.659093872736701 56.06930225225246 140.79283878326058 0.5885006777630121
1.9383348419852349 12.619206875504542 51.38819704452314 148.02884511073592 0.6025020302238657
1.9538318103188852 12.577362981177258 47.15877009744059 155.69982441489435 0.6171410845474996
1.9684486930141292 12.533434405600664 43.338538741347385 163.8394272867071 0.6324654519450504
1.9821629945638137 12.487434557442015 39.87613129716263 172.48144188317625 0.6485167416042102
1.9949551095316358 12.439358326920216 36.743261901810484 181.6651348156725 0.6653480409631942
2.006789171302125 12.389199362253388 33.900599081286785 191.43252276581316 0.6830138120755335
2.017636518045297 12.336926632759315 31.324652172253007 201.82964108250692 0.7015732899469076
2.0274732852186705 12.282540661983118 28.990216630901408 212.90642261034898 0.7210890930903976
2.036283314200788 12.226077077601873 26.86752296823895 224.71838900724913 0.741631663609443
2.044028633202702 12.167482970771427 24.940911322372486 237.32667016883187 0.7632780202912016
2.05068868457274 12.106776958908513 23.18680759434801 250.79815146375304 0.7861108173709398
2.0562613108272645 12.044031598614252 21.59244605681826 265.2059781921503 0.8102183570254654
2.060708601780894 11.979183222368077 20.140663937064904 280.63178392552055 0.835699976478695
2.0640145663268856 11.912288631371323 18.820445682801985 297.1654039005027 0.8626629797068418
2.066175331804982 11.843388986305298 17.617348541201785 314.9072025711658 0.8912278006137775
2.0671682928501274 11.772498056406247 16.522268612544764 333.96655190175665 0.9215201748071207
