M[M_sun], R[km], Lambda[1], P_c[MeV/fm^3], rho_c[fm^-3]
0.24162668629717493 15.618656898711224 2160425.4255784233 3.5677272577965504 0.1711233750220791
0.2536383561305518 15.27742909457038 1723372.5034624718 3.784729757262107 0.17388705313191416
0.2660292916465153 14.981490907260039 1383366.6282889857 4.011212609272313 0.17666437867667223
0.2787980002040243 14.723880979496977 1116710.9708688043 4.247434698642585 0.17945410987567242
0.2919478557495175 14.49877964708296 906212.5677655499 4.494019843162916 0.18226278811575836
0.3054766169120264 14.301595065237844 738965.928010329 4.751117003349169 0.18508598956777816
0.31938772764564877 14.128497588452614 605332.3012462334 5.019419261500014 0.18793057046227216
0.33367863841463385 13.97633539453382 497970.07920930337 5.299135824928956 0.190792863739892
0.34835233540454386 13.842424182619018 411260.82687021635 5.591012290050822 0.19367951039114106
0.363407928761706 13.724369922562518 340885.212475678 5.895194423078142 0.19658517656924904
0.37885283013628607 13.620423126170904 283519.63947134675 6.212554999167941 0.19951772670318055
0.3946749653405399 13.528888935682406 236594.61102217686 6.543367558740814 0.20247362692712184
0.41089223619411164 13.448276203561766 198041.03989227224 6.888302059411981 0.2054560414195939
0.42749080891221214 13.37742624291012 166216.2552675879 7.248077428718704 0.20846830176102274
0.4444774611491729 13.315268983615148 139939.31501883338 7.622975687954333 0.2115063252606437
0.4618489843742958 13.260882419407523 118106.59838979586 8.013899499645568 0.2145755603658546
0.47960463673899484 13.213468855120375 99924.92435409753 8.42157417689195 0.21767799410431987
0.4977518122990282 13.172249939937426 84740.07145240775 8.846471757815285 0.22081154869489142
0.5162794494675383 13.136650182863136 72031.94018235119 9.28940285044444 0.22397875030595168
0.5351842123738345 13.106083341441977 61356.04406403026 9.751280211945144 0.22718294079693355
0.554480549241556 13.080032278390116 52369.54215351226 10.232912038234465 0.23042546887101945
0.5741516615525507 13.058002774285871 44788.7937061592 10.734813518621076 0.2337035974921002
0.5942027910762484 13.039676448944968 38381.71494877006 11.25814072944914 0.23702240778681166
0.6146233861365015 13.0246347748231 32950.53167059655 11.803871274244472 0.24038404803559169
0.6354134921438536 13.012533894792771 28335.82538714104 12.372982364264338 0.24379014796941004
0.656568856008842 13.00309201791949 24409.754053558583 12.966223060837116 0.2472393436068228
0.6780920638198874 12.996043009413278 21062.056789180635 13.584798988377939 0.25073507338006146
0.6999671818481727 12.99109867494986 18201.10519639622 14.229962923953359 0.2542806248242877
0.7221883422713179 12.988027190548289 15755.811388450209 14.902902213994363 0.257877978085472
0.7447627160333405 12.986661930377617 13657.785259382137 15.604724766969955 0.2615278252916562
0.7676695558461285 12.986738281587508 11856.378375544755 16.33653846928514 0.26523049181635877
0.7909003912598781 12.98811973036316 10307.330778228628 17.1000315452547 0.2689914273448203
0.8144614547804943 12.990623588241796 8973.572893983448 17.896655954471132 0.2728130583770596
0.8383285286595743 12.994085781866799 7821.514133854253 18.727875239044796 0.2766973595965367
0.8624953941921754 12.99834158194687 6827.686582000479 19.59483432977224 0.2806430428143561
0.8869563204101908 13.003281079632906 5967.089173932891 20.49970997764915 0.2846573236657459
0.9117027862562879 13.00876052588384 5190.532222831236 21.444292197981845 0.28874320732994674
0.9367086561570367 13.014647856872005 4574.856112122579 22.43018994975379 0.2929016350044277
0.9619722321584004 13.020840202249252 4012.666818415653 23.459173998262013 0.2971343813223754
0.987483943166079 13.027226484816962 3524.034433782823 24.53378257214181 0.3014485246054897
1.0132119602323904 13.033690111767916 3098.416075859238 25.65610515956001 0.30584680786057505
1.0391612309683862 13.040132729610425 2727.31389807566 26.82780159803367 0.3103282784267098
1.0653009273265492 13.046473838595896 2403.3761482578857 28.052105473985442 0.31490273861378193
1.0916153309136167 13.052595053464916 2120.352642498625 29.33124387526294 0.31957183853896937
1.1181007781407248 13.05843002666489 1872.6302768290836 30.66761850699796 0.3243378594734655
1.1447173592812079 13.063893500336361 1655.9245196786567 32.064895128508184 0.3292107009841567
1.171468197482735 13.068911814009851 1465.5058071827962 33.52489831764743 0.3341873142808826
1.1983147431119605 13.0733971833124 1298.5306006950402 35.05207069234102 0.3392806936159373
1.2252432692239839 13.07726232736545 1151.7571585505004 36.64875093583315 0.34448958114056166
1.252226399846207 13.080439749562956 1022.6235447464286 38.31953775397257 0.34982569639926625
1.2792568018903443 13.082894931298698 908.9299380727125 40.0671086520466 0.3552882650023506
1.306289772063638 13.084501680101463 808.731472801967 41.89671979966337 0.3608905957839517
1.333315024635728 13.085227154306425 720.3339748134434 43.811549458009104 0.3666329883374168
1.3603129970123475 13.085049834148323 642.2899454568421 45.816828331900055 0.3725262474065701
1.3872345363838763 13.083818784372454 573.2755402195039 47.91760261582406 0.3785787791446941
1.414074851132842 13.081530291590676 512.1324778106518 50.118286955441334 0.38479453969361166
1.4408048529471151 13.07814349123196 458.0491464129646 52.42472405542701 0.3911837800329829
1.4673851585784805 13.0735581925993 410.0817663823423 54.84299738590948 0.39775651798165396
1.4937879777455658 13.067726197241345 367.50761721725166 57.37927643790308 0.4045217803920024
1.5199927342645554 13.060621429659026 329.6734629416051 60.040166987707984 0.41148930139867224
1.5459725558287356 13.052169260824398 296.08775053983703 62.83275035421299 0.4186695806074016
1.5716850576156693 13.04232594209657 266.1784428541211 65.7646264120073 0.4260739460274713
1.597100883992386 13.03103577861441 239.56146829024394 68.84396074117257 0.43371462230298724
1.622193601592932 13.018260590983687 215.8181382051702 72.07953634195634 0.44160480486617804
1.6469433277650836 13.003975364970831 194.62882256633083 75.480810396192 0.4497587407111722
1.6712974877888678 12.988095455860977 175.71874675493333 79.0579766181406 0.4581918165704365
1.6952193416601962 12.970577024372945 158.8051069512206 82.82081163111121 0.46691563811285125
1.7186982723757551 12.951406848168968 143.68032687794292 86.78189970555991 0.4759512676001421
1.7417166674780535 12.93058155776736 130.15138059339498 90.9535112911429 0.48531594937477185
1.7641958629855148 12.907983468323069 118.00989454585289 95.3486058373531 0.49502721634577174
1.7861259005491967 12.883604056357871 107.12918514481568 99.98191534004675 0.5051069083404245
1.8074720052914577 12.85740916375101 97.35322307951432 104.8693525639962 0.5155784508624754
1.8282025332909486 12.82936527002315 88.58132414808794 110.02686605737561 0.5264623272213789
1.8482857379656237 12.799447467474065 80.6934088877418 115.47294307774226 0.5377853000461225
1.867685069092258 12.767615630452843 73.59288420212671 121.2274097547846 0.5495754285053535
1.8863637615143611 12.733819659581819 67.19673061663039 127.31149675989721 0.5618620009934143
1.9043084906762646 12.698104057715625 61.429181448013104 133.74826463428434 0.5746767103273964
1.9214588234643684 12.660340291732066 56.232750710420376 140.56186850289976 0.5880506598233106
1.937803924824406 12.620564474932797 51.538679208540444 147.7805679233297 0.6020244567013295
1.953322760132081 12.578814936407113 47.29578798935753 155.43353925592638 0.6166364475157351
1.9679632922007986 12.534970105709707 43.460378151569394 163.5528649234784 0.6319291546538699
1.981706693086942 12.489067270213898 39.990868960764715 172.17328474564425 0.6479477631429619
1.994519461420423 12.441074326667163 36.84679304281629 181.33360986803325 0.6647441636742156
2.0063806063520393 12.391000556478508 33.9980144005385 191.0754785414308 0.6823719493912598
2.0172714612911213 12.338858774400185 31.416430827962095 201.44470435262426 0.7008900652222432
2.0271301579696193 12.284544516217304 29.07195729074849 212.49173962132147 0.7203633200368701
2.035965337533819 12.228151690745934 26.94247776548373 224.27053197747165 0.7408575320715088
2.0437594847660914 12.169700221491794 25.008960991376487 236.8432556685288 0.7624537541609725
2.050461383743368 12.109120863726673 23.248310290785813 250.27474886958382 0.78522864861786
2.0560638257711017 12.046434306508685 21.64978406183761 264.6395222718628 0.8092757414637117
2.06055801803589 11.98171248672051 20.194369100711334 280.0184238651792 0.8346926904228095
2.0639129574940966 11.914941302670425 18.868757598738412 296.50079581570566 0.861586195524253
2.066111941849291 11.846133615393546 17.66274926635243 314.18525549604146 0.8900721053425645
2.067147775330635 11.775429435371759 16.565405669719365 333.19516318704257 0.962797031166994
