M[M_sun], R[km], Lambda[1], P_c[MeV/fm^3], rho_c[fm^-3]
0.24162668629717493 15.618656898711224 2160425.4255784233 3.5677272577965504 0.1711233750220791
0.2536398421743784 15.277388806260033 1723163.474709538 3.7847631033474056 0.17388746877478073
0.2660331267746543 14.981404848432337 1383159.3358314687 4.01128270755348 0.17666522577303095
0.2788049702049622 14.723699307326235 1116585.6277078062 4.247543918754167 0.17945537666437558
0.2919562024586353 14.498616988318238 906146.8453924538 4.49417104915888 0.1822644718296165
0.305487024615952 14.301462722863251 738852.1114994603 4.7513153270933985 0.1850881318427224
0.319399077522047 14.128398375308823 605215.5795188602 5.019666161823786 0.18793313214842608
0.33369279638552835 13.976203646616096 497859.34043844277 5.299437799342709 0.1907959041211723
0.3483703377513351 13.842257783417516 411148.0873688641 5.591370090379714 0.19368297220775058
0.3634276300965219 13.72424141873975 340800.08035557496 5.895616084581791 0.19658913690332439
0.37887462047885745 13.620284381969498 283442.14175554435 6.213045621425305 0.19952220058742004
0.3947026693668863 13.528706009315362 236514.15891090443 6.543926630240994 0.20247852922890983
0.4109221831254555 13.44811204087246 197974.0815390199 6.8889403687206485 0.20546147752952262
0.42752367024399235 13.377302195890612 166192.50293069886 7.248800961869179 0.20847428736535095
0.44451443922878076 13.315151929929476 139895.25511922623 7.6237824432254016 0.21151274755134333
0.4618891247940911 13.26076813686041 118057.90078537098 8.014803543099505 0.21458255387285854
0.4796479012194681 13.213337314614948 99881.67639819461 8.422582553562247 0.2176855756871958
0.49779846500049996 13.172157043312405 84705.28074381816 8.847580748060528 0.22081957825810206
0.5163298587796056 13.136564466131816 71993.11145055122 9.290630393682859 0.22398739228687856
0.5352415528835954 13.105979651214355 60732.35900976024 9.752634625748172 0.22719221383076207
0.5545408241716602 13.079937805011713 52343.141533231275 10.234402145339967 0.23043539240304942
0.5742165989717426 13.057955811486401 44768.79239996923 10.736432843719825 0.23371399406083831
0.5942651521564819 13.039616328518614 38361.82819900507 11.259913614024159 0.237033484801719
0.6146955516483117 13.024579555238708 32932.82449902905 11.805808184572093 0.24039582768204715
0.6354889785153744 13.012512569714318 28320.89942215945 12.375094419283922 0.24380265360390174
0.6566531694292321 13.00307447421053 24395.025843691034 12.968500562125861 0.2472523608702559
0.6781768974855771 12.996021499695349 21049.21546117124 13.5872742615401 0.250748855037863
0.7000570036505549 12.991080878430548 18191.15202030256 14.232649231827127 0.2542951981756082
0.7222826357013686 12.988020334918987 15745.759770652234 14.905813671197953 0.2578933720571895
0.744860634252313 12.986666035919699 13649.265331280112 15.607848000453531 0.2615437891895016
0.767773075693748 12.98674611179159 11848.726815909813 16.339915752415134 0.26524732672570994
0.7910102006565106 12.988127934875648 10301.817226453173 17.10367981592419 0.2690091676496779
0.8145756412538072 12.990631051562804 8967.2945165278 17.900593273035653 0.2728317406721165
0.838448982478366 12.994102196598233 7817.138224351906 18.732084146651083 0.2767166973492403
0.8626220182713349 12.998360208364794 6822.9481943159035 19.599369522079268 0.2806633893620416
0.8870867503668486 13.003303423001062 5926.857798774143 20.5045932665535 0.2846787229948907
0.9118362534190638 13.0087939740119 5217.480731650855 21.44954688833861 0.28876570639236443
0.936848969509855 13.014681810278844 4571.141198087447 22.43579416023654 0.2929249117042194
0.9621170536116173 13.020878688836877 4009.5775917061196 23.465198015609005 0.2971588466467315
0.9876335273411627 13.02726755983563 3521.3248131077016 24.54025472953179 0.3014742354143227
1.0133740484129914 13.033725933059996 3096.4311409877823 25.663000414549096 0.30587341797752904
1.0393216570030337 13.040178599382745 2725.24579285915 26.835204193060193 0.3103562440977381
1.0654675132981453 13.046514118542298 2401.5295598432635 28.06005003357362 0.3149321289942579
1.0917870304429034 13.052630392156587 2118.814193805065 29.339702255765182 0.31960228351530534
1.118276277123839 13.058471766554007 1871.3068584318678 30.676691625136154 0.32436986548562136
1.1448995303450478 13.063935796749972 1654.3765158598142 32.07462551937223 0.32924435246097983
1.1716530430173786 13.06895202811184 1464.321910035842 33.53525492688144 0.3342222171218124
1.1985000466625775 13.073409761262255 1297.3753703949778 35.063174493858426 0.339317410877308
1.2254389075746146 13.077287946457426 1150.7522688539946 36.6605697253539 0.3445277067260463
1.2524266877038772 13.080460879258423 1021.7801378856353 38.33220741277121 0.349865831100875
1.279461199093435 13.082902460002407 908.1543356450744 40.08059617253299 0.355329990884846
1.3064976154824275 13.084507567689657 808.0233987563201 41.91108089236246 0.3609340115428771
1.3335224606209315 13.085236993702724 719.7076501800979 43.826945009272876 0.36667875187776555
1.3605266153373843 13.08504659030218 641.7092431180375 45.83322610396675 0.37257392990027105
1.3874532963793524 13.083800441367124 572.732172031718 47.9350725941126 0.378628504342335
1.4143031013489182 13.081528709506639 511.64561326161555 50.13702054656969 0.3848470332804377
1.4410302749793753 13.078108654011663 457.6270533450384 52.4446915413471 0.3912386032681489
1.467612137011278 13.073515247016445 409.6898012374531 54.86428710874919 0.3978138260866653
1.4940172446518296 13.067667865364221 367.17276749518743 57.40198389209395 0.4045817405817735
1.5202259580820916 13.060549722510961 329.39242567478925 60.06439545999859 0.4115520938658121
1.546205645639324 13.052085530165742 295.7925348176618 62.858611627509404 0.4187353996040034
1.5719201246853418 13.042231081604937 265.9498790272742 65.79224154014304 0.42614300105485764
1.5973369430502449 13.030926189524411 239.32931834438196 68.87346090257599 0.43378713942109526
1.6224280994700382 13.018141330718402 215.59920069984625 72.11106378116412 0.4416810281356646
1.6471799035939318 13.003829238356786 194.43881697228045 75.51451946326304 0.4498389337828861
1.6715335997637333 12.987931074512835 175.54241341697247 79.09403491728403 0.45827626443869085
1.6954689088208272 12.97041835557976 158.65456288055984 82.85921724846175 0.4670038941096675
1.7189325376878493 12.951203005070187 143.54467977886182 86.82302598996542 0.47604439839980367
1.7419472961896398 12.93036029826384 130.01721683306937 90.99737536825252 0.4854135308005543
1.7644270681211487 12.907738156879113 117.8928811612108 95.39562984310443 0.4951303975143404
1.786354226169331 12.883331328871208 107.01405131706929 100.03214020657582 0.50521529142345
1.8076968305491872 12.857113128508768 97.25733986995371 104.92303849048118 0.5156924530398964
1.8284256195784059 12.829055629062061 88.4942501088854 110.08452373400608 0.5265832445040681
1.8485015769966406 12.799107912036582 80.60840377433323 115.53466287698873 0.5379127918535004
1.8678985204039171 12.767250726987449 73.51452542524153 121.29353078032266 0.5497100266826963
1.8865770907514352 12.733452992547921 67.12637513437403 127.38238986601705 0.5620042828917308
1.9045106506930252 12.697682777007305 61.36739074604874 133.82407534189204 0.5748263842032298
1.9216652331572999 12.659922509175534 56.17469622630029 140.643291947091 0.5882093036563661
1.9379976275520325 12.620115619766938 51.48396900822772 147.86809118285478 0.6021928120455797
1.953495130333283 12.578273124344394 47.2486460326455 155.52740939218833 0.6168143408204847
1.968134448627005 12.534427648752503 43.417018359273406 163.6539448415332 0.6321184201321602
1.9818684915057863 12.48849175858435 39.94961030094952 172.2819120251848 0.6481483315375725
1.9946723978817273 12.440472503407696 36.81042316562897 181.45047258015683 0.664957030724742
2.006524840670404 12.390359233069384 33.96660268047115 191.2013347275285 0.6825982025664256
2.017395444146786 12.33816448682767 31.38274097035375 201.58039016670554 0.7011308941579355
2.0272536449272005 12.28384374224953 29.043522817859298 212.63803963603573 0.7206195731336799
2.0360867103270586 12.22744394587901 26.91586923401566 224.42839097855034 0.7411303951129632
2.0438543978921 12.168920365166919 24.983817070267857 237.0136448069128 0.7627442832941301
2.050534181856256 12.108286407670024 23.222458983985696 250.45926703288657 0.7855397045329054
2.056131834081452 12.045578224937433 21.629591467636324 264.83917320568605 0.8096079722170684
2.0606101748784913 11.980821570519694 20.175971105054874 280.23472394684273 0.8350481052607848
2.063952860324719 11.914009526360317 18.852501802786616 296.735031798922 0.8619656997877281
2.0661349325242813 11.845167251753827 17.64722116042286 314.4396946365103 0.8904794123621278
2.067157971101045 11.774348608777892 16.549810889361286 333.4588260050018 0.9207182623100548
