M[M_sun], R[km], Lambda[1], P_c[MeV/fm^3], rho_c[fm^-3]
0.24162668629717493 15.618656898711224 2160425.4255784233 3.5677272577965504 0.1711233750220791
0.25363573943033774 15.277465688872192 1723489.4480047196 3.784667475609208 0.17388627682115645
0.2660217261831042 14.981664079340609 1383471.6901186986 4.011081686601107 0.176662796553456
0.27878834839071237 14.72401742856295 1116865.8959051003 4.247230711598234 0.17945174393335986
0.29193272047797475 14.499004991507764 906401.5605962062 4.493737445138112 0.182259643548211
0.3054569753620073 14.301861322516679 739180.3375974657 4.750746612776516 0.18508198864269249
0.3193630858334646 14.128787370289716 605531.4371995251 5.018958156485563 0.18792578631977705
0.33364971742331717 13.976651081912351 498128.6279203875 5.298571874295213 0.19078718569277353
0.34831822239375004 13.84267716127204 411417.25264420576 5.590344092431462 0.1936730453953589
0.3633674676885649 13.724693825232427 341035.48599914863 5.894406976565524 0.19657778070496107
0.378807717198593 13.620685293523682 279736.3724122083 6.211638784306452 0.1995093719268383
0.3946267500908893 13.529100927745697 236735.96006803325 6.542323533440253 0.202464472235645
0.410837259771991 13.44849775505198 198152.56896439183 6.887110082178808 0.20544589004128236
0.42743022898245797 13.377656548375736 166349.23409434382 7.246726325990246 0.20845712443440817
0.444409908434999 13.315494024705746 140032.0373575612 7.621469200153777 0.2114943326490828
0.4617730191516074 13.261123671555243 118187.88866709261 8.012211367730407 0.2145625013006948
0.4795235105649609 13.213650813294601 99999.83060863292 8.41969125128338 0.21766383713602516
0.49766295709070313 13.172442921486928 84803.72776533551 8.84440098616918 0.220796555423401
0.5161820101381942 13.136808666929348 72092.02374195737 9.287110744595424 0.22396261373787846
0.5350844599156857 13.106208800845362 61407.16928569444 9.748751247928345 0.2271656261706159
0.5543741910252619 13.0801501703849 52415.079578645185 10.230129749543938 0.23040693991371486
0.5740337409447055 13.058128484881658 44831.83089426558 10.73178999679393 0.23368418554540007
0.5940761484647226 13.039788070739695 38417.21087284249 11.254830538799455 0.23700172565573022
0.6144899633297044 13.024720603711321 32980.380870186586 11.800254881793252 0.2403620543356707
0.6352709237709537 13.012618762662207 28363.60636461232 12.36903901935781 0.2437667991316106
0.656420783983855 13.003147312030949 24437.311166205527 12.961970870478316 0.24721503983042462
0.6779339245524282 12.996092420068033 21085.498838584375 13.580177618517345 0.2507093428308167
0.6998000862429239 12.991143791460145 18222.362462155856 14.224947624122992 0.25425341657793615
0.7220109034612952 12.988052607761832 15773.61353266784 14.897466644652456 0.257849238181408
0.7445762051733787 12.986666037688655 13672.863285895706 15.598893892192795 0.2614980217275675
0.767474052801568 12.986738243129027 11871.336275140464 16.330233394450257 0.2651990625996743
0.7906966183798214 12.98809388704269 10320.080709553453 17.093220663834135 0.26895830833483003
0.8142474405277585 12.990601167747464 8984.50669130506 17.889305566015885 0.27277818130941744
0.8381063052747045 12.994034950616964 7782.724401703238 18.720015724546595 0.27666123977077334
0.8622636069077088 12.998293994947417 6836.428447596 19.586368031927886 0.2806050598753431
0.8867122090846462 13.003232590560767 5974.811209050677 20.490593991526296 0.2846173760010996
0.9114509519062398 13.008696287498541 5228.76252184232 21.434483040014502 0.2887012073561351
0.9364473051113835 13.014585464220865 4581.28085211944 22.41972845712118 0.2928581839199024
0.9617013854627265 13.020766565611854 4018.291042602122 23.447929017325027 0.2970887121135809
0.9872019985224009 13.02717043456157 3528.988358398315 24.521701240043903 0.30140053120834237
1.012920592825868 13.033618165709857 3103.028525794459 25.643234209241815 0.305797136384492
1.038860553361068 13.040065424215989 2731.378417432908 26.81398384517207 0.31027607744455515
1.0649915381802102 13.04639695395397 2407.2451947272593 28.0372763212355 0.31484787912955003
1.0912955012937553 13.052519337448286 2123.6124388461203 29.315455838622263 0.3195150113009668
1.1177713692186049 13.058364644825582 1875.6877099636783 30.650683303092897 0.32427811944431656
1.1443836796687363 13.063835197618129 1658.3003321138838 32.04673340632263 0.3291478906837552
1.1711198770574176 13.068857711877412 1467.7874596218487 33.505568019899414 0.3341221691844347
1.1977204736493599 13.073168711533917 1301.829250458267 35.037264153810355 0.36563615281314193
1.2229401935564932 13.075143190861635 1162.0350988299222 36.670588094033604 0.415592344826875
1.24682799810044 13.073953719638485 1042.7889780918852 38.41331835770073 0.46460819909303525
1.2695505298783314 13.069406563166398 939.8290088667588 40.269949558158594 0.5127882858789805
1.2912413720630087 13.061373591554643 849.6022958756961 42.243963686771735 0.5600316866353776
1.3120482719898117 13.049974267466858 770.0499157753421 44.341768361098936 0.6067340514076002
1.3320651652182984 13.035224736313893 699.4275644478728 46.567189040182804 0.6528132762603545
1.3514015412551184 13.017310089395997 636.1268239274693 48.926858419851506 0.6985273697867762
1.3701215213967062 12.99626748287491 579.3393247232459 51.42714407301998 0.7440146589433564
1.3883114161082728 12.97234519642186 527.9954757011333 54.07456546527455 0.7893913266466908
1.4060256456017932 12.945625043501275 481.55289216688277 56.87630925093948 0.8347912952144105
1.4232946032824856 12.916220992561943 439.398820316843 59.84033396204576 0.8803605102837697
1.440151079788547 12.884219375692211 401.14459733738386 62.97546040526878 0.9262532136973596
1.4566235100087401 12.849754706880299 366.25338631310547 66.29145560987847 0.9726296597807574
1.472740392050602 12.812990784268594 334.5407044113199 69.79847652119884 1.0196305426932182
1.4884995788905855 12.773975544411513 305.59042017299373 73.50644723641877 1.0673605306175262
1.5039372776798545 12.73288896289793 279.2037142204336 77.42890132843566 1.1160250010073849
1.518994780095854 12.689594564041668 255.1319461334845 81.57841550884423 1.1657539092541578
1.5337356625517558 12.644446306469375 233.21147112412996 85.96805014253299 1.21666288206615
1.5480951621926498 12.597301087881894 213.19354864601976 90.61423276874223 1.2689188590217508
1.5620712472220537 12.548225165718586 194.98054908834234 95.53352637834458 1.3225523397056314
1.575671869243279 12.49744679887415 178.34333615342783 100.74295502272263 1.3776497252161521
1.5888507045390186 12.444826464324652 163.21602884563163 106.26297269134236 1.4349415530667662
1.6016043185010074 12.390572615093586 149.43502140960112 112.11550962926968 1.4946446960173667
1.613875716034118 12.334517330193565 136.88291124816234 118.32330467895852 1.5569671133672265
1.6256579857811648 12.276809911850897 125.45310263707375 124.91179669194112 1.6221448436561323
1.6369338564818439 12.217593947141323 115.06678589572857 131.90939047678532 1.6904418456881272
1.6476409176561169 12.156654367035449 105.60692718472902 139.34652150589093 1.7621319779435791
1.6577614009628885 12.094068597339392 97.01609567878086 147.25504964901899 1.8374896598431438
1.6672561113307456 12.02991449941198 89.18988467407306 155.67304270187714 1.9168601229384903
1.6761179977001932 11.964230841917459 82.08863320080172 164.63840827277195 2.000560799860694
1.6843055748855107 11.896963327124583 75.62058157277538 174.19557138965015 2.088977652155506
1.6917878773999515 11.828247076452886 69.7486539638431 184.39187640720843 2.182509371790396
1.6985069993107198 11.757766206806064 64.39867231418923 195.2790016390964 2.2815852695421426
1.7044813031082569 11.685881203438258 59.53516689418399 206.9141906036406 2.3866783105969827
1.7096580916206354 11.612458701541698 55.11468542996729 219.36007713049108 2.4982989004374927
1.714017560518896 11.537590830881776 51.093707933670785 232.68591091260456 2.617006724136637
1.717533762984648 11.461103970259314 47.43075560184311 246.9676164806048 2.7434070277836
1.7201887116156802 11.38321060618374 44.09728682156483 262.28758327468614 2.8781436319599556
1.721967769078608 11.303927065720435 41.06489292755483 278.7389119816756 3.021948090314479
1.7228482583076299 11.223157190365749 38.29894888067139 296.4226196019509 3.1756262931903843
