M[M_sun], R[km], Lambda[1], P_c[MeV/fm^3], rho_c[fm^-3]
0.24162668629717493 15.618656898711224 2160425.4255784233 3.5677272577965504 0.1711233750220791
0.25364521957424063 15.277259067269968 1723046.6275691255 3.784847430982419 0.1738885198780702
0.2660426324130312 14.981204588918825 1382932.3001706544 4.011459980315862 0.1766673680097451
0.278819672256115 14.723444028748506 1116398.797215232 4.247820133278633 0.179458580336613
0.291976391853457 14.498325348582071 905802.9657407921 4.494553452718659 0.18226872998200588
0.3055128196479779 14.30114557676258 738547.0043816606 4.751816903119278 0.18509354982107415
0.3194304797241823 14.128048540659869 604971.2377403735 5.020290604191981 0.18793961097900871
0.3337315248473756 13.975816362617474 497598.20464616484 5.300201546775466 0.19080359379053402
0.34841488554795425 13.841910263960333 410935.52829154616 5.59227504887917 0.1936917279301783
0.3634805135997165 13.723847762279105 340606.99673964555 5.896682583922458 0.19659915369082726
0.3789350818920477 13.619893597167996 283244.1443712348 6.214286566415786 0.1995335165115382
0.39477057095754914 13.528334528563839 236362.16034040516 6.54534073158114 0.20249092898730556
0.410997439308561 13.447783560154274 197820.71792456863 6.890554923683563 0.2054752277571085
0.4276088389378134 13.376948961788802 166033.14853413514 7.250631119577419 0.208489427791042
0.44460594927484404 13.314828097369572 139766.50991493068 7.625823144502679 0.21152899284567706
0.46198745656049445 13.260477523114945 117942.84420113842 8.01709038013478 0.21460024440615472
0.47975692625567884 13.21308211382852 99780.76777651873 8.425133356737897 0.21770475416111923
0.4979175413652686 13.171904987062705 84615.09646294915 8.850386111507135 0.22083989028809506
0.5164592466040807 13.136324039740611 71916.95861188111 9.29373571357472 0.22400925393251137
0.5353799044646302 13.105780729620893 61254.44034606356 9.75606095450618 0.2272156722911009
0.5546898393854968 13.079769426919805 52284.692458708494 10.23816720501689 0.23046043766042004
0.5743760031146335 13.057815348185771 44713.736775592304 10.740529473768019 0.23374029569472488
0.5944360737069337 13.039496832184152 38314.15169095809 11.264398807472464 0.23706150837154943
0.6148757944973984 13.024474980772887 32889.95921463134 11.810708434621148 0.2404256293782321
0.6356833861343638 13.012404846795645 28279.96799361786 12.380437871842402 0.24383429258300054
0.6568573425495733 13.002991462889792 24360.528115781573 12.97426267942413 0.2472852947698654
0.6783922386677312 12.995969510393605 21018.791892478395 13.593536859954073 0.25078372350798145
0.7002845777995571 12.991055415180787 18164.36773139092 14.239445886265077 0.2543320703576449
0.7225231058109876 12.987994499643024 15608.071081516306 14.913180113647321 0.2579323212152208
0.7451136650516031 12.986642537119085 13627.629887146282 15.61575039025631 0.2615841809643111
0.7680374787714604 12.986759193358736 11830.754614484551 16.348461094508885 0.2652899231128015
0.7912863945479061 12.988147509999427 10284.99022421129 17.112910992218723 0.26905405573405966
0.8148653251897113 12.99067160828041 8951.668854954909 17.910556008234305 0.2728790131382644
0.8387525446670449 12.99414451744068 7803.6772351691725 18.74273425424654 0.27676562908312774
0.8629355197492923 12.99841575741074 6810.4030311507395 19.61084546530563 0.2807148746817996
0.8874203046785071 13.003371720661256 5952.13137905626 20.516950271658807 0.2847328733072461
0.9121797302817315 13.008866094430187 5208.383349973062 21.462843963030398 0.28882264061553486
0.9372040607193595 13.014764677094876 4563.16063794199 22.449975917407592 0.2929838146496399
0.9624910510237839 13.020976625529054 4002.2369639397025 23.48044240648783 0.29722075864764025
0.9880158595888721 13.027357998831308 3514.893895454234 24.55663349826458 0.3015393004871315
1.0137622002677056 13.03382081528267 3090.3783966579053 25.68045016603944 0.3059407599291627
1.0397288700337814 13.040281724134003 2719.781151791701 26.8539382287564 0.31042701791116906
1.0658844238744918 13.046605818827311 2396.757547965934 28.080156034400883 0.31500650983407713
1.0922205655195873 13.052738291995631 2114.510239035574 29.361108968812573 0.3196793345384872
1.1187224716612902 13.058571458322422 1867.2246486472056 30.69965459239949 0.324450868840606
1.1453572581775733 13.064020066778479 1650.8672324945283 32.09909001829856 0.32932847138407645
1.1721247296658426 13.069025997909256 1461.1331114028442 33.5614672146612 0.3343105552342301
1.19898287801283 13.073485484620875 1294.5823679853354 35.091278484283244 0.3394103431546338
1.225932673795036 13.077347535848084 1148.3166679765632 36.690483871551834 0.34462420513107056
1.2529311011355098 13.080512383072188 1019.4847293452299 38.36419873488718 0.3499669645545137
1.27997643587232 13.082950804206968 906.0842801624609 40.114735302084554 0.3554356059465323
1.3070307761246416 13.084550560502473 806.2446314550754 41.94743181728272 0.36104390589605195
1.334061729046999 13.085241197655675 718.0497129362186 43.86591522215773 0.3667945915043693
1.3610731496050592 13.085033307131598 640.1683745025333 45.87473395953314 0.3726946291058421
1.3880150755368523 13.083778329311171 571.3878951294014 47.979295357829514 0.3787543766032921
1.4148597979243462 13.081452748916782 510.45944132279357 50.184443057581426 0.38497991638236134
1.4415928479858313 13.07800613149785 456.55502775950856 52.49523852805018 0.39137738635531627
1.46818851520785 13.073400988685504 408.7122962155185 54.91818235215585 0.3979589023890679
1.4945997973877734 13.0675284817767 366.26854705810825 57.45946929802956 0.4047335337251174
1.5208127609667772 13.06037315266264 328.60606686841805 60.125732681693634 0.4117110603673538
1.5467977732128533 13.051874768955553 295.07310598472435 62.924083850077075 0.4189020316157106
1.5725155034657665 13.041983068646646 265.2650164232503 65.86215544497065 0.4263178293804343
1.5979289544734443 13.030639704203704 238.73248633976522 68.94814883184867 0.4339707368365211
1.6230370298085655 13.01782570854875 215.06160742539709 72.1908861252249 0.44187401304643714
1.6477794100677394 13.003461384078491 193.9373667199896 75.59986729632917 0.4500419742551506
1.6721281162637576 12.98751439622525 175.10810050852618 79.18490172865341 0.4584882821893286
1.6960645585248422 12.96995233069182 158.23973737800412 82.9564605115855 0.4672273588451075
1.7195435942108304 12.950726091419213 143.16848020674178 86.92716057554456 0.47628021200094955
1.7425256191130998 12.929774097035178 129.6812870778932 91.10844462512834 0.4856606190139792
1.7650061910606218 12.907108418653268 117.58356818542043 95.51470352792745 0.49539167176670396
1.7869169567416454 12.882627469916782 106.739532142332 100.15932199361401 0.5054897442022528
1.8082680808079215 12.85638419161514 97.01003559698091 105.05898775907475 0.5159811415967157
1.828970743788422 12.828229293759513 88.26788409665788 110.23025877106973 0.5268884256646775
1.8490517839872969 12.798246753376725 80.40174660465118 115.69096472065135 0.5382356575268876
1.8684238287423762 12.76629146755287 73.32621728152151 121.4609828410599 0.550050897714023
1.887100095293995 12.732453156734932 66.95615383781164 127.56175618527575 0.562363994324008
1.9050191781118293 12.69661816363422 61.209085723250396 134.01607645067796 0.5752054540077883
1.9221553237653686 12.658781490457008 56.030032280104436 140.84951401642633 0.5886111026697208
1.93846521754391 12.618873201243197 51.3522971955524 148.08976890101488 0.6026192201656149
1.9539555864727844 12.577009171045894 47.12938683226756 155.7651689003051 0.6172649188884283
1.9685648244362062 12.533055506902556 43.30648886440946 163.90958854011717 0.6325965137495011
1.98227600570334 12.487037550129047 39.84922475553717 172.5570660789843 0.6486563734131913
1.9950579553038443 12.438934201286914 36.717477288998474 181.74649615111787 0.6654962417638467
2.0068886164758406 12.388752633865858 33.87794917081792 191.5201497147977 0.6831713400926501
2.0177269971083835 12.336457024231889 31.302232155957576 201.9241166213004 0.7017409747090225
2.027556917445814 12.282052531527558 28.969627348270585 213.0081522155865 0.7212670629484718
2.036357894470435 12.225558969258794 26.849621088600742 224.82831452513224 0.7418216724840594
2.0440939312748423 12.166941206473712 24.92427719700783 237.44532724453592 0.7634803415053018
2.0507450503802493 12.106208925918748 23.171023820211925 250.9263975784829 0.7863266067343051
2.0563077933092497 12.043436666212054 21.578757266965063 265.34488875451933 0.8104492890891393
2.0607447093701263 11.978562176371469 20.12771285696597 280.7821675811431 0.8359466406754053
2.064041804807158 11.911638998411238 18.80904646296231 297.32856078731356 0.8629273230981083
2.066187876259019 11.842710281756892 17.60740718060908 315.0844432006648 0.8915115280010566
2.0671721129070315 11.771795637017618 16.511843330024426 334.1590455583858 0.9218242031614816
