M[M_sun], R[km], Lambda[1], P_c[MeV/fm^3], rho_c[fm^-3]
0.24162668629717493 15.618656898711224 2160425.4255784233 3.5677272577965504 0.1711233750220791
0.25364148654422564 15.277381865650701 1723472.5578990204 3.7847937322073437 0.173887850548744
0.26603718521524505 14.981320019720254 1383108.816149574 4.011347094607112 0.17666600385257544
0.27881078040607576 14.723611457312428 1116541.7549028657 4.247644241365808 0.17945654025548766
0.2919634305866816 14.498506274892675 905949.1268515588 4.494309938887411 0.18226601839897832
0.3054965605672389 14.301344561225578 738773.3905524113 4.7514974987467795 0.18509009964425877
0.31941110719437255 14.128258633272358 605183.0606652746 5.019892956286334 0.1879354852285096
0.33370641230708337 13.97607348585619 497754.1532402882 5.29971518613601 0.19079869694591292
0.3483861167789733 13.842151745608968 411075.50467287406 5.591698761001927 0.19368615218643465
0.36344607016022784 13.72412165425657 340722.95796198444 5.896003421452835 0.19659277485318644
0.37889813871216926 13.620108729211342 283360.8537566447 6.213496310295537 0.19952631032725185
0.3947278013550753 13.528554039516534 236457.24781287138 6.5444402021173875 0.20248303256046418
0.41094964620274277 13.44800611998981 197921.43175543667 6.889526735915813 0.2054664712786161
0.4275541223094826 13.377177286486758 166127.91872872843 7.249465624866597 0.20847978595199007
0.4445476714900523 13.315020293679918 139847.77004537627 7.624523563987618 0.21151864734914966
0.46192568838254827 13.260663601113404 118017.21508739199 8.01563404566618 0.21458897848164427
0.47968765771364763 13.2132501569742 99840.03570277432 8.423508911754444 0.2176925406057761
0.49784115472938006 13.1720738023138 84673.44835380292 8.84859954545008 0.22082695478650105
0.5163765501276949 13.136482160519922 71964.41995080796 9.291758113780737 0.22399533150667278
0.5352922181629651 13.105905617844941 61298.63751761731 9.753878912002738 0.22720073287309994
0.5545948506209544 13.079890818866101 52321.34429422735 10.235771105523762 0.2304445091438404
0.5742728876262011 13.057923353241751 44748.10642121211 10.737920529304573 0.23372354546311971
0.5943284689936112 13.039568922999832 38346.48438237526 11.261542392149327 0.23704366143691993
0.6147610163092735 13.02455267079977 32916.040720423225 11.807587673684724 0.24040664994486396
0.635559398647815 13.01245420780992 28307.291022002693 12.37703483774834 0.24381414296561438
0.656727731050934 13.003040953337678 24381.825526941502 12.970592999470913 0.2472643203840759
0.6782554548907289 12.996001247911003 21037.965122749487 13.58954842299891 0.2507615169595813
0.7001396869959257 12.991067849378705 18181.79412095507 14.235117306421984 0.2543085876007397
0.7223690059900119 12.988015186934625 15736.887717128504 14.908488630924415 0.257907515577597
0.7449525553020608 12.986658428284525 13641.54252059994 15.610717557615976 0.26155845646226356
0.7678692039915996 12.986750654323663 11841.737804667267 16.34301875573575 0.26526279441900313
0.7911105480310668 12.988122756066623 10294.722776272774 17.10703183264044 0.269025467371881
0.8146814693658151 12.990652167559647 8961.435517377764 17.904210902220246 0.2728489060639245
0.8385584378318945 12.994109162656233 7811.48087488164 18.735951345090218 0.27673446512512595
0.862735461450301 12.998383023147081 6818.527369933061 19.60353655724215 0.28068208422080587
0.8872062877878841 13.00333623026401 5959.020512524132 20.50908018620274 0.2846983853725016
0.911962162709435 13.008816037696269 5214.291719625015 21.454375112719685 0.28878637945097324
0.9369776741686717 13.014712776556044 4568.0773788126235 22.44094358071861 0.2929462994652665
0.9622527182361406 13.020908009344685 3984.4472351627323 23.47073323219673 0.2971813268059673
0.9877726000361691 13.027300620107086 3518.7876232819785 24.546201785105083 0.3014978602429156
1.0135117335023769 13.03376054902984 3094.10796468771 25.669336294189478 0.3058978693572828
1.0394694456989535 13.040215653428325 2723.2850309480405 26.842006326768026 0.31038194133402913
1.0656206954193284 13.046545707227288 2399.7971620669314 28.06735024821704 0.3149591356626005
1.091944203420634 13.052670638954673 2117.282881754255 29.347474684905404 0.31963025948791435
1.1184384198575814 13.058506554808812 1869.8902444063754 30.685029028867664 0.32439927621753456
1.1450652351333233 13.063966456370553 1653.123760005211 32.083520910467605 0.3292749774630647
1.1718243717563677 13.068980974647415 1463.1560387509849 33.544771936252516 0.3342542904246376
1.198675728075835 13.073438266054666 1290.4353598529501 35.07337823582921 0.33935115188576465
1.2256185660359897 13.077308013500973 1149.8586330712726 36.67143059876556 0.34456274222244526
1.2526103860590168 13.080479383953826 1020.9376617260001 38.34385032605283 0.34990271329777084
1.279647670649284 13.082926322296213 907.3828587017902 40.09299078505915 0.35536833567522946
1.3066883458109106 13.084512811356012 807.3553228039774 41.924278417040895 0.3609739096593962
1.333721430503191 13.085230818259372 719.1570151406836 43.84109334752499 0.3667208080560326
1.3607253258438587 13.085038485783622 641.073031196932 45.848295621168404 0.3726177500092543
1.387654793056074 13.083786924558469 572.2373041193152 47.951127628541066 0.3786742021529963
1.4145085783605993 13.081502972681836 511.23258766829406 50.15423706551533 0.384895275863823
1.4412294951252822 13.078063713470545 457.2083703677385 52.46304222490897 0.39128898736980283
1.4678230846355413 13.073470396995074 409.34490894480956 54.88385317464925 0.3978664944171881
1.4942290981616635 13.0676143711481 366.83100232215725 57.42285313497287 0.40463684688091567
1.520439862253184 13.060481323181769 329.109730538095 60.086662840084415 0.41160980380788187
1.5464212629952356 13.052008336122993 295.52889795350944 62.88237991800445 0.4187958917929762
1.5721357994592362 13.042140798151392 265.6837045914915 65.81762203986897 0.42620646811881757
1.597558826423739 13.030827786361282 239.1174577687936 68.90057422120775 0.4338537892167568
1.622646702602045 13.018026082070076 215.4172957913669 72.14004070528695 0.44175108507501043
1.6473974662164448 13.003697503566945 194.26161164382808 75.54550191250564 0.4499126402954024
1.6717468671593292 12.987781820814611 175.38146449827718 79.14233335928141 0.4583833388140184
1.6941930069043856 12.969944200333243 159.32601731954585 82.98565602494085 0.5987655572276931
1.7121555627679435 12.947429894923415 146.70484580560418 87.28761317342634 0.7576033909272232
1.7261371360135864 12.918699225645783 136.44545281188599 92.05351634738118 0.9123051165597991
1.7367479662909353 12.883476544466456 127.87456247870907 97.30139601373158 1.0634402628808675
1.744430264050603 12.841682959450985 120.52668796011851 103.05093941301712 1.211651669582656
1.7496737785237175 12.793730126441687 114.0647304648653 109.32361247061283 1.357852877754294
1.7527921310828352 12.739792161087989 108.26964230910662 116.14416719985695 1.5029227983196456
1.7540970667934248 12.680228325520417 103.01735468783465 123.54011781227962 1.64786119203449
