M[M_sun], R[km], Lambda[1], P_c[MeV/fm^3], rho_c[fm^-3]
0.24162668629717493 15.618656898711224 2160425.4255784233 3.5677272577965504 0.1711233750220791
0.25364477682339687 15.277241618958934 1723064.2662158369 3.7848356439302173 0.17388837295815074
0.2660409836459458 14.981258878177215 1382958.9375697272 4.011435201348508 0.17666706857054817
0.27881713352369086 14.723502079516006 1116455.7804823336 4.247781523847134 0.17945813252539075
0.29197282884622194 14.49836010819081 905793.5170459389 4.494499999436113 0.18226813476729886
0.3055093312443909 14.301177096027246 738614.5083719717 4.751746790714927 0.18509279247329563
0.31942797465315265 14.128035574649873 605043.81170551 5.0202033159428945 0.18793870532973425
0.33372406925211756 13.975935331749824 497649.0021628043 5.300094784289391 0.19080251886945024
0.3484084017848218 13.841928182665516 410956.8813344244 5.592148545332526 0.1936905039735646
0.3634719307918737 13.723926806120101 340629.1723694655 5.896533496845871 0.19659775343345376
0.3789263917390811 13.619957997216071 283266.78628238203 6.214113091267556 0.19953193462706403
0.39476059656321755 13.528398859136683 236377.1287367696 6.5451430482100745 0.20248919557119846
0.4109869465415084 13.447836228835664 197844.29504804278 6.890329215314145 0.2054733055299197
0.42759616949625956 13.377006499235621 166060.6901773047 7.250375267741188 0.20848731119437006
0.4445925240076617 13.31487680241088 139781.2844131828 7.625537856105349 0.21152672176659448
0.46197582337541193 13.260518623196043 117960.35601328372 8.016770678396277 0.21459777125473967
0.4797411456734813 13.213141128002015 99794.93406769076 8.424776748136185 0.21770207296296404
0.4978999360389883 13.171948786843986 84625.09648940832 8.84999391071416 0.22083705058677944
0.5164410712450036 13.13635857847994 71924.44843992952 9.29330157268112 0.22400619755355491
0.5353606588781175 13.105808599605755 61263.41575517132 9.755581929281462 0.22721239263084964
0.554668588554682 13.0797794634104 52296.08411700092 10.237644781790662 0.23045698709685447
0.5743534855613337 13.057817769431288 44720.95026518356 10.73995672341162 0.23373661846002095
0.5944134037847264 13.039487312765996 38322.47221320709 11.263771724881726 0.23705759034817464
0.6148512732008881 13.024493509517878 32894.44967259994 11.810023314466676 0.24042146270459516
0.635656858172693 13.01243154176727 28285.93245180813 12.379690777593535 0.24382986898251638
0.6568290605261214 13.003014721240882 24365.515847374623 12.97345704191028 0.24728069007620346
0.6783621072154683 12.995976346385254 20861.2740757881 13.592661237156248 0.25077884827483654
0.700252551055524 12.991047148901702 18167.12548087301 14.238495582167992 0.2543269149115386
0.7224890167312175 12.987990499151923 15724.904389130596 14.912150130463383 0.2579268753058722
0.7450784633178469 12.98663895334154 13630.517802516326 15.614645460028298 0.2615785332939147
0.7680006131606767 12.986765769223958 11833.127740578106 16.347266251676334 0.26528396712095814
0.7912476986345189 12.988142520220702 10287.425788672359 17.111620238716196 0.2690477792368627
0.8148248032330436 12.990667602160133 8953.61676934798 17.909162948273885 0.27287240316836076
0.8387090143657634 12.994137702833104 7805.390854613751 18.741245067138188 0.276758787038891
0.8628904101606445 12.998415642910565 6812.1507503241755 19.609240784549247 0.2807076754912649
0.8873736708616883 13.003369754723568 5917.6355068111025 20.51522237212697 0.28472530138358254
0.9121281875735763 13.00887722479674 5209.348981713565 21.460984590519843 0.2888146793208947
0.9371544906748946 13.014747064868919 4563.828775178869 22.44799281825961 0.29297557798478463
0.9624400647789865 13.020959659221248 4003.3323391160707 23.47831068949293 0.2972121011115291
0.9879621084813311 13.027346365857133 3515.421703393449 24.55434312719154 0.3015302019301485
1.0137062507746406 13.033803273444777 3090.893544528097 25.678010007764982 0.30593134288843365
1.0396728249367486 13.040263846030689 2720.556181608184 26.851318445909776 0.31041712084331763
1.065826211424161 13.046587831003178 2397.3501384983 28.07734436084305 0.31499610823097735
1.092159827304998 13.052721108074728 2114.993976253201 29.35811537108032 0.31966855942472944
1.1186590294055283 13.058554300772364 1867.750680391359 30.696443322523372 0.32443954087803284
1.1452923424642767 13.06400692720049 1651.547855059431 32.09567155885142 0.32931672589412075
1.1720579189975764 13.069016400995505 1461.5211793130702 33.55780145891372 0.33429820125940585
1.1989151411838672 13.073482376494596 1294.9247927779345 35.08734812629176 0.33939734652627845
1.225863245576574 13.077343138336236 1148.6134572906044 36.68630031888266 0.3446107096377598
1.2528603574474917 13.080503756043315 1019.8507597077993 38.359745005879475 0.34995294018883205
1.2799041387145766 13.082938614111596 906.3738196074986 40.1099607638647 0.3554208351203502
1.3069502124817487 13.084525721022635 806.522020255154 41.942347892532624 0.3610285364213212
1.3339887747238803 13.085240325329748 718.3509004935725 43.860464898220954 0.36677839032292925
1.3609981853374171 13.085029904803331 640.3811008574636 45.86892865891635 0.372677748080239
1.3879304686652651 13.083768080420416 571.5981558316162 47.97311027859475 0.3787367718712029
1.4147810435484873 13.081462602483812 510.63677746514594 50.177810361577265 0.38496133083721945
1.4415124171816238 13.078018219789787 456.7082084814713 52.488168746746126 0.3913579753846735
1.4681083248863411 13.073415512364738 408.8595083842093 54.91064417370985 0.3979386109684031
1.4945183237387851 13.067547642941722 366.3824219297249 57.451428873923554 0.4047123025755933
1.5207309702816412 13.060397497471913 328.7200249958335 60.117153399580076 0.4116888256063776
1.5467151863474258 13.051904462185314 295.1792404087159 62.91492608395641 0.41887872437285883
1.5724314827428678 13.04201899324286 265.3565986682428 65.85237628017428 0.4262933753750243
1.5978455822046242 13.03067874024286 238.81611087472496 68.93770176199543 0.4339450559126756
1.6229429785761482 13.017857994593905 215.15127218623093 72.17972071797047 0.4418470186609917
1.6476958636147447 13.003512920897839 194.01592529955568 75.58792882433366 0.45001357291319494
1.6720420819126753 12.987577311724017 175.15666874034187 79.17219311916243 0.45845863314878205
1.6959802188160924 12.970015746846354 158.302774044342 82.9428577375257 0.4671960997099358
1.7194613573490338 12.950797398000635 143.2212893898953 86.91259359378182 0.47624722495434835
1.7424430511798767 12.929852239976707 129.7246249310719 91.09290737300199 0.485626054347055
1.7649248366966228 12.90719484194196 117.62628756365875 95.49804628552094 0.49535512205748256
1.7868511110373624 12.882755413807368 106.78258931827041 100.14153025562966 0.5054513504035553
1.8081886197477348 12.85648721780053 97.04487037549808 105.03996924118513 0.5159407557341127
1.8289018817884737 12.828355712164083 88.29656926005123 110.2099128119448 0.5268458876763303
1.848974524890546 12.798367193414174 80.42956007108508 115.66909827593334 0.5381904889976302
1.868350127382706 12.766420441678193 73.35468854680965 121.43755611772522 0.55000320949025
1.8870251300665322 12.732594356179229 66.97827490919268 127.53672671454262 0.5623138998200127
1.9049477742796632 12.696768074150421 61.23084751917087 133.98921444018666 0.5751524200584983
1.92208626381256 12.6589413762019 56.04972053718804 140.8206619042113 0.5885548877832222
1.9383990607948254 12.619043450942259 51.37190780168457 148.05875385305347 0.6025595611777663
1.9538927002797648 12.57719053796221 47.14464342139193 155.73190327942982 0.617201877206934
1.9685064678684798 12.533251788903005 43.323106353110376 163.87387069700745 0.6325297925217362
1.9822188049736278 12.487240188680381 39.86251733301117 172.51856702762944 0.6485852891242638
1.9950040479462714 12.43914888099831 36.730100049975555 181.70507629226609 0.6654207949166293
2.0068375269732757 12.3889811321884 33.88880922189266 191.4755399869834 0.6830911446499451
2.0176806811555537 12.336696096038938 31.31474517408104 201.87602021283797 0.7016556083283212
2.0275147133119944 12.2823025332065 28.979599235416796 212.95636268811927 0.7211764602686368
2.036319925470497 12.225822083926115 26.85862091583374 224.77235234776626 0.7417249405282117
2.044059642269063 12.167217807183988 24.932169466017612 237.38491970326726 0.7633773410983073
2.050715228614051 12.106497910593847 23.177967580626408 250.86110809521406 0.7862167494021067
2.05628474024476 12.043739052071176 21.58615879970712 265.2742329918523 0.8103319281764154
2.06072594073901 11.978878836379199 20.13471658267791 280.705607421032 0.8358210641936019
2.064027040237148 11.911972270819255 18.814157340747204 297.24549746606056 0.8627927456342999
2.0661840248787957 11.843057439518724 17.612194056093685 314.99420946878837 0.8913670815439315
2.0671702345697787 11.772154781837353 16.517238514781525 334.0610460751531 0.921669420805859
