M[M_sun], R[km], Lambda[1], P_c[MeV/fm^3], rho_c[fm^-3]
0.24162668629717493 15.618656898711224 2160425.4255784233 3.5677272577965504 0.1711233750220791
0.25364529866532326 15.277262623303749 1723112.9560097584 3.784848538297921 0.17388853368022372
0.26604273942028195 14.98122332060375 1382996.5522816353 4.01146230814139 0.17666739614014282
0.27881961372336367 14.723432443063068 1116336.3026163888 4.247823760396288 0.1794586224057118
0.2919765625095733 14.498317099459946 905814.9601820189 4.494558474335883 0.18226878589887913
0.3055137913296933 14.301098645235692 738594.5001222414 4.751823489776867 0.18509362096954693
0.31943167567005015 14.12802818262636 605015.0679633194 5.020298804439395 0.18793969605974062
0.3337323723514344 13.975813607641069 489616.38070262136 5.300211576542131 0.19080369477364195
0.3484154773566122 13.841906065437147 410932.13213038875 5.592286933238204 0.19369184291462124
0.3634811710370908 13.723847245065617 340602.77348271833 5.896696589919003 0.1965992852381108
0.3789351620723164 13.619900677977286 283235.67231681576 6.214302863587098 0.19953366512211748
0.3947707717338643 13.528333147062567 236344.7981335694 6.545359303037715 0.2024910918338909
0.4109984440335077 13.447782880952367 197817.29720375512 6.890576128007029 0.20547540834202518
0.4276088805450333 13.376954708706814 166039.39279380682 7.250655155800121 0.20848962663655243
0.4446071936902803 13.314817578719989 139759.21113292756 7.625849946219653 0.21152920620457763
0.46198864649981736 13.260474315751805 117941.41806636167 8.017120414911886 0.21460047674943772
0.47975874073601804 13.213072342065937 99775.29623273792 8.42516685884588 0.21770500605013618
0.4979185879010772 13.17190390646001 84612.85433002003 8.850422957442085 0.22084015706840718
0.516460942059006 13.136321072809613 71915.32032144468 9.293776499723723 0.22400954106954307
0.5353822189918249 13.105772750492815 61254.71084389272 9.756105957486744 0.22721598040532728
0.554691280524649 13.07977244638185 52284.928596318205 10.23821623671229 0.23046076120766146
0.5743777701479327 13.05780293061776 44712.73740272202 10.740583282147261 0.23374064116118737
0.5944379929550316 13.039477064678481 38314.057260487156 11.26445772034047 0.23706187646021484
0.6148780379670099 13.024466963872676 32888.63015198725 11.810772800105683 0.2404260208277695
0.6356857186691228 13.01241508004434 28279.71545296505 12.380508059794286 0.2438347081710718
0.6568603633225517 13.00300252922699 24360.96186345729 12.974338367522705 0.2472857273719995
0.6783950753404637 12.995965020314438 21018.22991410589 13.593619123201162 0.2507841815277016
0.7002876239589235 12.991050946926087 18163.67434332461 14.239535165870699 0.2543325547038627
0.7225257102716225 12.988000095174865 15721.51363618841 14.913276879175374 0.2579328328510436
0.7451169489330215 12.986638605924837 13627.306026432652 15.615854197130867 0.261584711556196
0.7680401098303693 12.986768437581137 11830.106838199852 16.348573348791433 0.26529048267224564
0.7912894600353566 12.988155043933428 10284.661061785511 17.11303225745744 0.2690546454058517
0.8148673070003748 12.990683692736326 8951.464441874423 17.910686885346834 0.2728796341408052
0.8387554014639319 12.99414211223576 7803.636116184295 18.742874162676532 0.276766271889973
0.8629391025474318 12.998424646779661 6810.26054146777 19.610996224617047 0.280715551043751
0.8874243998282599 13.003382916140536 5951.799358023833 20.51711260767275 0.2847335846888298
0.9121842353909042 13.00887579043561 5208.276718067956 21.46301865127976 0.28882338858003115
0.9372082526369496 13.014765352002122 4563.034397604971 22.45016223009956 0.292984588486492
0.9624959916252398 13.020975655234544 4002.128896904157 23.480642682283264 0.29722157202715327
0.9880199216861593 13.027362759918091 3514.7978683152833 24.55684868013568 0.30154015530255374
1.01376714175648 13.033815812180073 3090.2580178006624 25.680679420906415 0.30594164466784635
1.039735161787695 13.040279338834464 2719.75189330056 26.854184360022973 0.3104279477507734
1.0658897270261882 13.046602564612511 2396.676374520014 28.080420194562954 0.31500748707738224
1.0922261175556447 13.052739450702283 2114.4209881782817 29.361390221462614 0.3196803468753373
1.1187274361052775 13.058569009403124 1867.154322813001 30.699956296309033 0.3244519331206968
1.1453627358743674 13.06403296274784 1650.8866488493713 32.09941118856864 0.3293295748934904
1.172129263350633 13.069029365349161 1461.0408800325843 33.56181161962246 0.3343117159144592
1.1989893113436159 13.073489961394024 1288.6180536740453 35.091647749980815 0.3394115642161875
1.2259388788004812 13.077348301008305 1148.2412286648846 36.69087692616678 0.3446254730644148
1.2529376607935456 13.08051239449709 1015.0421739657556 38.364617173988385 0.34996828217912906
1.2799832014137902 13.082951088774383 906.0580221899405 40.11518388307432 0.35543699370625337
1.307036711856378 13.084551512506236 806.2183621216494 41.94790946691017 0.36104534990323933
1.3340707056138659 13.085237482936332 718.0333248907172 43.8664272972972 0.3667961136565096
1.3610810093019212 13.085032522998528 640.1342727429268 45.87527938694206 0.37269621513465656
1.38802243503044 13.083778804123044 571.3478879595889 47.97987646789244 0.3787560306301176
1.4148672320878932 13.081452219015581 510.4495628056387 50.18506622439423 0.3849816625644452
1.4416004448436526 13.078006359143362 456.53078701487595 52.495902762080064 0.39137921009309534
1.4681957920488293 13.073400391267004 408.7121042347832 54.918890595484925 0.397960808852735
1.494607770703349 13.067523020428617 366.25487145447823 57.4602247310986 0.4047355284846266
1.5208204873680793 13.060370302946762 328.5990367214559 60.12653874464653 0.4117131494252554
1.5468051078600396 13.051873319846672 295.0655483211927 62.92494426623763 0.41890422144324535
1.572523167903209 13.041979749293985 265.2564446351267 65.86307424668497 0.42632012695722743
1.5979362945416182 13.030636432353743 238.72107955840374 68.94913038896324 0.4339731496942758
1.623046354206598 13.01781767228053 215.05534625090476 72.19193517649587 0.4418765493170554
1.6477869082991121 13.003456237679911 193.93034857140475 75.60098898410097 0.4500446427237776
1.672135961807084 12.987509696372909 175.097499576723 79.18609577781899 0.45849106789237104
1.6960723405537779 12.96994673736437 158.2350840305882 82.95773857619311 0.4672302958338535
1.719551603240904 12.950719212074455 143.1623489819818 86.9285292371308 0.47628331134604807
1.7425341968751233 12.92976924866056 129.67890160096505 91.1099044532988 0.48566386659431504
1.765013530809094 12.90709989370589 117.57888631309085 95.51626859109783 0.4953951058647614
1.7869249864145107 12.882618229705704 106.73751271020997 100.16099365469583 0.5054933515743444
1.8082749728938943 12.856375433901285 97.00453165948548 105.0607746895481 0.5159849361473214
1.8289794280012757 12.828216990820067 88.2653362237136 110.23217042959884 0.5268924224341458
1.8490592029252062 12.798235937374521 80.40198319364055 115.6930192469388 0.538239901469235
1.8684313886652797 12.766279669552032 73.32520231933125 121.46318397421432 0.5500553784145001
1.8871070356328372 12.732438623134405 66.95370748463058 127.5641079157595 0.5623687011263758
1.9050260037214783 12.696603979010844 61.20708352850467 134.0186003714765 0.5752104370111152
1.9221631006783997 12.658766453768772 56.028813301745956 140.85222493322868 0.5886163845665614
1.9384724271020706 12.618856662248906 51.34968259274851 148.0926830546662 0.6026248256851514
1.9539618339628315 12.576991564076593 47.12566055451403 155.76829452569493 0.6172708422614215
1.9685716783520373 12.533036788086624 43.30532796794478 163.9129445858722 0.6326027828708622
1.9822813044667056 12.487017591671338 39.84795335075298 172.56068345981754 0.6486630525113837
1.9950626846753257 12.438913655694384 36.7161116226994 181.75038798486452 0.6655033307929795
2.006892664883541 12.388731641694813 33.8759940494587 191.52434128509856 0.6831788753288502
2.0177322295974127 12.336433883204682 31.303941361157687 201.92863581963385 0.7017489958402823
2.027560747389862 12.282029749215463 28.969926700830143 213.01301844074268 0.7212755761182454
2.0363617962893112 12.22553471689959 26.849261039091566 224.83357283952984 0.7418307616056783
2.0440974260749725 12.166915829687762 24.922797417233824 237.4510032751959 0.763490019658986
2.0507471457538764 12.106181895808422 23.170036476724647 250.93253235154742 0.786336929220696
2.056310674621386 12.043407710686328 21.578570032701496 265.3515277844598 0.8104603166767557
2.060746078748832 11.978532739981755 20.12705862013657 280.78936143666886 0.8359584402728227
2.0640416884471384 11.911608920370115 18.80792622032239 297.33636573658 0.8629399685144193
2.0661885954661883 11.842678291006187 17.606942750664206 315.0929219481279 0.8915251008081038
2.0671727641667363 11.771765593758273 16.511519769075786 334.16825405062167 0.921838747239399
