M[M_sun], R[km], Lambda[1], P_c[MeV/fm^3], rho_c[fm^-3]
0.24162668629717493 15.618656898711224 2160425.4255784233 3.5677272577965504 0.1711233750220791
0.25363740873551793 15.277457331592371 1723447.0150950241 3.7846922422621656 0.17388658552553773
0.2660241207864711 14.981654945917466 1383392.1025083377 4.0111337483786755 0.17666342568931312
0.27879187698480484 14.723969572595227 1116844.7653242543 4.247311827083419 0.1794526847507496
0.29193866443856165 14.498900003720818 906348.4368330477 4.493849740020569 0.18226089397778944
0.30546414994258836 14.301804154487872 739119.4838939715 4.750893896691419 0.18508357959006902
0.3193724595738279 14.128699091624487 605461.6083125162 5.01914151137016 0.18792768869747323
0.33366050518383517 13.976521555717659 498140.21967207885 5.298796123486891 0.19078944351003702
0.3483316284706767 13.842607553820772 411363.17635415465 5.590609792747961 0.19367561611901268
0.3633838333569098 13.724556829232542 340969.3530851455 5.89472009269147 0.1965807215578784
0.3788263782020649 13.620550909404866 283602.0831702456 6.212003100895311 0.19951269405546293
0.3946466017869862 13.529001461892383 236691.5508674772 6.542738669177132 0.20246811241523655
0.41085945296412274 13.448397409777687 198115.67502632452 6.887584045087815 0.2054499265083063
0.4274547424536871 13.377557496319412 166310.9155215712 7.247263558247421 0.20846156881919092
0.4444354362729904 13.315420298042447 140000.2895962867 7.622068214087562 0.2114991011851604
0.4618040608018483 13.261022581934876 118154.7435378566 8.012882603427482 0.21456769385148242
0.4795557300097502 13.213567807057794 99963.88869597386 8.420439936395171 0.21766946620142325
0.4976981578231747 13.172368776517036 84783.3055649338 8.845224357866186 0.22080251698628697
0.5162220236676308 13.136750190319612 72065.8977927805 9.288022116842745 0.22396902985531705
0.5351240130674543 13.106162337293767 61385.98437719134 9.74975679219469 0.22717251065892888
0.5544167358344105 13.080092405301523 52400.81713391089 10.231236011952696 0.23041430718980282
0.5740798614882751 13.058082653919305 44815.79281096878 10.732992169486288 0.2336919038664715
0.5941268883850117 13.039746755446677 38404.48601514231 11.256146685205348 0.2370099489622916
0.6145435892520212 13.024678220216984 32968.682573947335 11.801692766934211 0.24037079907638612
0.6353277634465064 13.012580723340497 28352.98488870252 12.370606892263696 0.24377608262342715
0.6564779520164172 13.003138309570364 24424.759919832763 12.963661531901204 0.2472247029578295
0.6779968772990383 12.99607578095709 21076.165283183804 13.58201505414485 0.25071957318011223
0.6998662432900364 12.991119078444537 18213.469844031093 14.226941672844585 0.2542642343895704
0.7220822246959081 12.988039936318513 15766.227115951702 14.899627776977232 0.2578606649026541
0.7446515221284586 12.98664992536276 13667.254853756996 15.601212183078756 0.2615098712927934
0.7675513166178115 12.986740095811443 11864.937429723394 16.332740207306735 0.26521155843303346
0.7907779728449692 12.988105023584113 10246.178699356133 17.095928562659328 0.2689714759298455
0.8143319860113725 12.990600196429215 8980.287369807544 17.8922279470714 0.2727920477985656
0.8381956051504176 12.994057553552373 7827.671730729084 18.723141838892552 0.27667561207196417
0.8623561447866431 12.998311638222415 6832.896072896472 19.58973404211533 0.28062016104022264
0.8868111091590378 13.00325328327697 5972.001832976564 20.49421828159966 0.2846332582021561
0.9115519690710837 13.00873204329315 5225.916686024335 21.43838289464245 0.2887179054043048
0.9365509892786391 13.014605843197819 4578.623850224564 22.423887642055266 0.29287545880623783
0.9618096545099263 13.02079447357328 4016.1265322369654 23.45239966731852 0.297106868751564
0.9873142431982331 13.027186830717845 3526.9650299579257 24.52650436757828 0.30141961175388476
1.0130382490860217 13.033644479261035 3101.1127787249106 25.648351236890413 0.3058168839796719
1.0389798944957895 13.040087440062111 2729.895232024686 26.81947725350169 0.31029683055202895
1.06511438547049 13.046430725752247 2405.6396155232305 28.0431717865072 0.31486968901913487
1.0914234646978302 13.052554019173598 2122.397638474488 29.321732485173683 0.31953760337467135
1.1179019566350565 13.058390620055295 1874.6056737034608 30.657415971330945 0.32430186936779226
1.1445186155846994 13.06385971275654 1657.3556009722104 32.05395363608922 0.3291728610470266
1.171257369337466 13.068878614931203 1466.8889264233278 33.51325277908039 0.33414806761520643
1.1981005131976767 13.073358072526375 1299.8160878498443 35.0395851249272 0.3392394072293448
1.225024933902345 13.077228861366223 1152.9117343743208 36.63546154146096 0.34444671161147106
1.2520023282732826 13.080413523223907 1023.6433984726422 38.30529179844018 0.34978056833516363
1.2790269241135839 13.082874216812604 909.8344597375927 40.05194323879333 0.3552413482801822
1.3060557816298541 13.084479203069376 809.5292069113608 41.880572310164204 0.3608417794768618
1.3330767469576876 13.085224409277291 721.0850881541154 43.79423906137208 0.3665815328863337
1.3600702655595278 13.085054406031306 642.9460852801116 45.79839126400513 0.372472634917618
1.3869891067169888 13.08384257928044 573.8455055389938 47.89796021713938 0.3785228705373333
1.4138237398789608 13.081559431673034 512.7125531051134 50.097224103302636 0.38473551926074473
1.4405517785443263 13.07818793333708 458.530153689303 52.40227415143359 0.3911221410078691
1.4671239086324506 13.073597096256151 410.53197277753566 54.81906114399737 0.3976920859232658
1.4935291896939051 13.067789226137851 367.8986702659833 57.353746535586765 0.4044543673841479
1.5197319628900217 13.060700882539969 330.0589648471637 60.01292734714417 0.41141870494444727
1.5457084879469785 13.052259886581718 296.4032701041143 62.8036753515877 0.41859558241415507
1.5714201479337826 13.042439394898095 266.4979775320137 65.73358000726844 0.42599631067054117
1.596834362601063 13.031157166407302 239.82204098833384 68.81079551916345 0.433633095755094
1.6219283379365088 13.018403733179143 216.064654443226 72.04409245490692 0.4415191128777987
1.6466663711658132 13.004133503117004 194.84615459258558 75.44291439627806 0.44966858702544826
1.6710305045801972 12.98828028642672 175.91615301926907 79.01744016740908 0.4580968809541653
1.6949685978034699 12.97080121545002 158.926641607418 82.77763686935354 0.4668164226360774
1.7184514278018077 12.951670554178733 143.84214995505124 86.73566711730714 0.4758465735346158
1.7414517108684338 12.930832272671942 130.2941143791485 90.9042016204884 0.4852062535078029
1.7639359461007345 12.908258062848201 118.14550284013067 95.29574477020994 0.4949112273611569
1.7858686944769733 12.883898908559825 107.24683091716294 99.92545687038691 0.5049850734122798
1.8072064565703658 12.857708231937709 97.47546020911692 104.80900432934294 0.5154503012596945
1.8279536250498856 12.829724753582381 88.68329607740812 109.96205428377765 0.5263264066639142
1.8480304996417385 12.799802458038494 80.78501086286114 115.40356621154902 0.5376419913806832
1.8674454833157879 12.768026585329372 73.67956227139872 121.15308680410028 0.5494241342140831
1.8861368851538143 12.734287959527556 67.27576991525031 127.23181107077572 0.5617020724511707
1.9040717373734788 12.69854340835839 61.50305448789551 133.66284046824194 0.5745077262053716
1.9212407795495798 12.660847452155656 56.29802868097854 140.47034936551552 0.5878723457407171
1.9375993684788708 12.62113515220998 51.596232485965174 147.6821944110336 0.6018352303560406
1.9531138610844672 12.579357789087583 47.34980133395134 155.32803378245134 0.6164365040822531
1.9677630907521881 12.53556001313852 43.50759242278335 163.43925816920444 0.6317164335011576
1.9815247910344305 12.489713080488963 40.03596541510236 172.05119745372832 0.6477223423071874
1.9943621376693408 12.441801660029144 36.88781338783607 181.2022691143327 0.6645049246702074
2.0062212858057515 12.391720563308274 34.0374097178354 190.93403282856187 0.6821176707368491
2.017111056972668 12.339578874319582 31.450860435897212 201.2922144694806 0.7006194107215498
2.026995449302083 12.285343905190054 29.10457325121444 212.32716831489543 0.7200748256265544
2.0358559468496487 12.229027754184095 26.972502891983716 224.09313001391888 0.7405508885541661
2.0436520820947113 12.17057861836643 25.035200214583323 236.65138446285073 0.7621259869910418
2.0503649767533836 12.110021840553289 23.27526510474887 250.06739637468297 0.7848790991811874
2.0559831712505847 12.04738662026557 21.673496407423315 264.41516931061705 0.8089024051015664
2.060491609780845 11.982702256958898 20.216570849026525 279.7753674626799 0.8342933107681706
2.063864356264853 11.91597372400265 18.88898405500884 296.23752845346996 0.861159551944472
2.066086455786362 11.847223014083033 17.680359996028944 313.89935590914996 0.8896144363360721
2.067144821200911 11.776488075841172 16.58113411838967 332.87203104027833 0.9197914665361251
