M[M_sun], R[km], Lambda[1], P_c[MeV/fm^3], rho_c[fm^-3]
0.24162668629717493 15.618656898711224 2160425.4255784233 3.5677272577965504 0.1711233750220791
0.25363840014662825 15.277437557965182 1723309.4168990948 3.7847325376819803 0.17388708778850656
0.2660295447539228 14.981490291696758 1383255.0919361755 4.011218454082453 0.17666444930775338
0.27879951715046675 14.723816788372007 1116667.5494823824 4.247443805389162 0.17945421550020915
0.2919480843690391 14.498775508947086 906248.3989677638 4.494032450614409 0.18226292850265677
0.30547692770604973 14.301622097261813 738983.2436494567 4.75113353935555 0.18508616818820653
0.3193874180123617 14.128521884743396 605329.7162943677 5.01943984765944 0.18793078405162172
0.33367911226671854 13.976337250996297 497975.4135453097 5.299161002944872 0.1907931172407344
0.3483543525570425 13.84240261357694 411258.161750822 5.591042122570358 0.1936797990289742
0.3634092125485607 13.72436626824913 340863.73729391926 5.895229580003676 0.19658550677053363
0.3788542114226776 13.620392239567703 283513.16880638315 6.2125959056316065 0.1995180997208746
0.3946784075428874 13.528828413239486 236602.07606086976 6.543414172056176 0.20247403566292607
0.4108956302030702 13.448247816778224 198033.00435220933 6.888355279013176 0.20545649466005042
0.42749401661355413 13.377408791623122 166236.61656451927 7.24813775362886 0.2084688008135445
0.444480379305277 13.315277297098708 139939.0945959162 7.6230429512437405 0.21150686071967753
0.46185316124714393 13.260866333296994 118100.92118188977 8.013974873971954 0.2145761434472067
0.4796080056606388 13.213448959257262 99919.77873672578 8.421658249551312 0.21767862621318687
0.49775573766249737 13.172241707749548 84736.97388065874 8.84656421865627 0.22081221815088564
0.5162832380413244 13.136639405798137 72026.88260176212 9.2895051950126 0.22397947081809197
0.5351909936821528 13.106059686871411 61353.992057987416 9.75139313360756 0.22718371391840736
0.5544872761955288 13.080021705097662 52369.50678805017 10.233036272465482 0.23042629622253408
0.5741565230428295 13.058004693590558 44788.64406701654 10.734948525542315 0.23370446427835448
0.594207533730747 13.039676593141657 38379.266527540196 11.258288538274334 0.23702333129902625
0.6146294265942176 13.024636586273454 32949.11630659126 11.804032757441316 0.24038503012285728
0.6354197476658812 13.012536156544959 28333.73624555144 12.373158448701078 0.24379119057842596
0.6565755063171388 13.003090743157676 24407.961595625555 12.966412937953564 0.24724042886655764
0.678099033826006 12.996042264141753 21061.028494593746 13.585005352911564 0.25073622236249626
0.6999751080679624 12.991110229376325 18201.396983904517 14.230186881469049 0.25428183980474056
0.722196611974576 12.988026250214432 15754.91802796435 14.903144941053032 0.25787926147492785
0.7447700734722154 12.986664032499847 13656.794247716232 15.604985148706277 0.26152915619037426
0.7676782816135332 12.98674429491862 11855.82097536749 16.336820029613694 0.26523189532397884
0.7909088271762617 12.988116434395995 10306.76726977141 17.100335696055275 0.2689929063271694
0.8144709515909334 12.99061645917105 8972.686954462317 17.896984201178956 0.27281461588421746
0.8383380686182081 12.994078557155913 7821.073574446216 18.728226126232265 0.27669897174160923
0.8625060278413582 12.998338406980022 6827.143690292849 19.595212416756485 0.2806447390522074
0.8869673185009201 13.003283485644555 5966.6802767972185 20.50011708254818 0.2846591076625361
0.9117140040557614 13.00876234045731 5220.911836651734 21.444730263346475 0.28874508299898005
0.9367203280342218 13.01464923107588 4574.553982004444 22.43065715155111 0.29290357549470936
0.9619853813811452 13.020838692155781 4012.370947509296 23.459676195288154 0.29713642089371584
0.9874963668696387 13.027232968641927 3523.713875201085 24.534322126037335 0.3014506679969784
1.0132255453060717 13.033694808347867 3098.2243724698255 25.65667998283528 0.305849026214299
1.0391745112190582 13.040136611066112 2727.2088638832142 26.828418712623048 0.31033060977450494
1.0653153252546514 13.046471771578126 2403.273703976289 28.052767765876666 0.31490518871947415
1.091629996753709 13.052594750896597 2120.2687045303583 29.33194899851683 0.3195743765497355
1.1181150658674257 13.058438391491928 1872.5780493085952 30.668374873232647 0.32434052760436966
1.1447326028496996 13.063902125251191 1655.745001932876 32.0657062829976 0.32921350627192797
1.171484027254446 13.068922549372115 1465.3839061137821 33.52576167189417 0.3341902238737097
1.1983301559024044 13.07340330939047 1298.3465602327467 35.052996329546254 0.3392837544472342
1.2252594436092263 13.077262495711064 1151.6997255019241 36.64973617169468 0.34449275935893975
1.2522436625442506 13.080440447654183 1022.5313092530607 38.32059391405191 0.3498290420828643
1.2792744439896089 13.08289518287087 908.8573164885535 40.0682329851311 0.3552917433132986
1.3063064038308723 13.084495184660708 808.720674365376 41.8979169491154 0.3608942149481125
1.333332264313043 13.085233838898137 720.2631376846242 43.81283283322724 0.3666368031922779
1.3603313082559927 13.085048459749837 642.2701715204013 45.818195245907894 0.37253022220682364
1.3872536460496614 13.083814328755789 573.218896892352 47.919058901642146 0.37858292420423173
1.4140922753467837 13.081530505890733 512.0934845411996 50.119848565857716 0.38479891549809137
1.4408236448261698 13.078138512158711 458.0186053560542 52.4263885135467 0.39118835001136093
1.4674035034745891 13.073557948333466 410.0513945277433 54.844772054544606 0.39776129507045255
1.4938071174916947 13.067719195103802 367.47507013947654 57.38116927590772 0.40452677852719665
1.5200131751260555 13.060617062698276 329.6646176723613 60.042186603308686 0.41149453559770555
1.5459909009148922 13.052160867000893 296.0575967317378 62.834906063655964 0.4186750670593205
1.571704592686137 13.04231817372755 266.1599151461557 65.7669283041158 0.42607970219205654
1.597120454408843 13.031026671885138 239.53870851101794 68.84641974847752 0.43372066701985246
1.6222139941649587 13.018247737047218 215.79939110703148 72.08216431914519 0.44161115847492344
1.6469626696331066 13.00396294006843 194.61514808779495 75.48362020671495 0.4497654251838185
1.6713173587886196 12.988080016873997 175.70183258755722 79.06098222991477 0.4581988556575027
1.6952406257408845 12.970565592796845 158.79345548683568 82.8240128849837 0.4669229945849267
1.7187177656015928 12.951385209521044 143.67864216729456 86.7853277153283 0.4759590303556546
1.7417341360028888 12.930562751204473 130.13960889575876 90.95716748441062 0.48532408305899616
1.7642149956227415 12.907964898908451 118.00003414625618 95.35252539301005 0.4950358167260773
1.7861455839924762 12.883579582761115 107.1217720588422 99.98610166965375 0.5051159422580975
1.8074912574348876 12.857383856174703 97.3454885467105 104.8738273514128 0.5155879530829341
1.8282220366325088 12.829341750282422 88.57626379418853 110.03167185991634 0.5264724057506975
1.8483043256644414 12.799419494092726 80.68765377667563 115.47808742697895 0.537795926496467
1.8677022562929417 12.767585878200094 73.5872941091044 121.23292090922057 0.5495866471961723
1.8863870541654986 12.733813921532194 67.19086796777401 127.31740562356804 0.561873860035654
1.9043252912003774 12.69806882351333 61.425372473488046 133.75458333475143 0.5746891854040576
1.9214756210530124 12.660303504652466 56.22839347141623 140.56865496527453 0.5880638824327779
1.9378183779893172 12.620524658045412 51.53132436788077 147.78786273549792 0.6020384886354747
1.9533380109089395 12.578772992155208 47.29143248667484 155.4413630064391 0.6166512743061252
1.9679770439653061 12.53492616940187 43.45881294272851 163.56128951508236 0.6319449291458759
1.9817197487295746 12.489017152122843 39.98913968990765 172.18233830911348 0.6479644795580116
1.9945318684814337 12.44102461161296 36.84383856875809 181.3433497378093 0.6647619049820636
2.0063931879010277 12.390947173962465 33.99636603657536 191.08596788149816 0.6823908062036996
2.0172825456040027 12.338802696932557 31.414400420585512 201.456012834788 0.700910136662594
2.0271404657373453 12.284485085124388 29.070102991757658 212.50394419163968 0.7203847147161345
2.035975241884258 12.228088890490413 26.939873142893696 224.2836882137751 0.7408802729391649
2.043767152126783 12.169635323160156 25.006828868193242 236.85745606163408 0.7624779671356874
2.0504706872077114 12.1090511663227 23.247789666716294 250.29012663635075 0.7852545720566555
2.056069453969972 12.04636257034523 21.64790610904376 264.65616104555136 0.8093034293498218
2.060563105326906 11.981638078204167 20.193639904860667 280.0364499870729 0.8347223101582386
2.0639150663109738 11.914867274954492 18.86749654831788 296.52031649727434 0.8616178225261317
2.066113379366369 11.846053101652194 17.661430296888714 314.20645963176867 0.8901060489933312
2.067151371484209 11.775271644594573 16.562946413259453 333.2055347902751 0.9203182090691535
