M[M_sun], R[km], Lambda[1], P_c[MeV/fm^3], rho_c[fm^-3]
0.24162668629717493 15.618656898711224 2160425.4255784233 3.5677272577965504 0.1711233750220791
0.25364072296836376 15.277369517124141 1723235.078899455 3.7847770302343116 0.17388764236670745
0.26603443058058424 14.981406865785628 1383178.5698827424 4.011311984138011 0.17666557956327714
0.2788070969170876 14.723678898578422 1116620.153990249 4.247589534982464 0.17945590574388165
0.29195923510464056 14.49856441171853 906051.9062677935 4.4942342014910475 0.18226517504549208
0.30549107262605424 14.301421612107262 738801.805076664 4.751398159211424 0.18508902658768456
0.3194040312841418 14.12836402274688 605256.6366083972 5.019769283315311 0.18793420207370187
0.33369943629945004 13.976172285722514 497817.3097298893 5.29956392436445 0.190797173990862
0.34837601273058943 13.842244058344685 411151.30110222456 5.591519533243533 0.19368441810856832
0.3634369170865528 13.724167250092671 340760.84744113067 5.895792201832878 0.19659079103381696
0.37888573134900466 13.620200893568454 283408.5795422442 6.213250543462365 0.19952406922965585
0.3947152116525749 13.528623721195377 236496.12225246977 6.54416014371437 0.20248057682661008
0.41093475354002185 13.448074642625905 197952.57612683473 6.8892069804013625 0.20546374810647483
0.4275389652574457 13.37722134545601 166153.90469869008 7.249103172552833 0.20847678747688686
0.4445291291942094 13.315089192565793 139868.0545068926 7.624119417091727 0.21151543007999277
0.46190576889963186 13.260721208241593 118041.58764369496 8.015181156192083 0.2145854750154167
0.4796658447298689 13.213300754999988 99862.70613482909 8.423003749176642 0.21768874248939538
0.4978173440808617 13.172123710952043 84690.93276212775 8.848043972739214 0.22082293220269641
0.5163519836720395 13.13651138873626 71979.76566603564 9.291143141748206 0.2239910020652247
0.535264359154463 13.1059549934883 61314.17848308115 9.753200372230177 0.22719608723064494
0.5545655638295275 13.07991992311307 52335.25263907865 10.23502457635778 0.23043953755081692
0.5742376894729054 13.05798753246155 44758.66236245332 10.737109254590942 0.23371833682815674
0.5942938294946393 13.039591256300604 38353.242956346694 11.26065417396139 0.23703811183360823
0.6147253828040379 13.024560453665357 32925.179279745025 11.806617266469614 0.24040074824990743
0.6355202935081825 13.012481944154358 28315.085792712765 12.375976668765306 0.24380787746854654
0.6566868401490441 13.003072539496612 24389.261461829974 12.969451927892697 0.24725779848685325
0.6782128771946165 12.996023488715604 21044.06779091651 13.588308248881193 0.2507546120023564
0.700094851861647 12.991073481845596 18187.00327192259 14.233771382247749 0.25430128589640666
0.7223219906231181 12.988004328314007 15742.415417008922 14.907029882148494 0.2578998026229392
0.7449038994747665 12.98665223335232 13645.23538772549 15.609152685258387 0.2615504578727924
0.7678174498158595 12.986750236640335 11845.896372265039 16.34132657313978 0.26525435931317626
0.7910558295541172 12.988114695902137 10297.935271354683 17.10520384983047 0.269016578510483
0.8146245130605805 12.990636160530729 8964.466069904809 17.90223806645975 0.27283954509930547
0.8384997788953624 12.994102350434089 7814.096230326422 18.733842405604555 0.2767247756393839
0.8626732511501743 12.998371815775315 6820.853607672 19.60126409967887 0.28067188913688346
0.8871409856408056 13.003312713843115 5961.030242372682 20.50663327691039 0.2846876626365832
0.911893830303763 13.008812292334207 5216.104221155272 21.451742069489477 0.2887751055223565
0.936907145520337 13.014691047010489 4569.677609919158 22.438135370048464 0.29293463575689543
0.9621791740763402 13.020885915747819 4008.4313844580765 23.467714622762983 0.2971690673361406
0.9876980116192271 13.027280072544386 3520.231848131985 24.54295857348718 0.3014849765027825
1.01343747621533 13.033751821809494 3095.2838113369326 25.665881032016628 0.30588453483511185
1.0393885804485299 13.040193580665008 2724.3568329920786 26.838296785132506 0.31036792735370566
1.0655371084175898 13.046525256073101 2400.8922750432657 28.063369069050182 0.3149444075497129
1.0918584963664584 13.05265220288106 2118.0233758883887 29.343235975134167 0.31961500273531895
1.1183501170876982 13.058488201441955 1870.6596179151973 30.680482198331305 0.32438323697819027
1.1449749528475102 13.063953957802505 1653.7631040041301 32.07868079557525 0.32925834730502673
1.1717326969815587 13.06895917398942 1463.7875007510368 33.53958178142424 0.33423679906773895
1.198580655862126 13.073424367335988 1296.9329100836048 35.067813553911456 0.3393327509912513
1.2255199739209057 13.077293817182605 1150.348347826548 36.665507533825235 0.34454363533181853
1.2525097653968638 13.080469535235801 1021.3709140623106 38.33750075347767 0.3498825992438174
1.279545376398541 13.082917145059247 907.7551808296319 40.0862312523403 0.3553474239392113
1.3065841483760232 13.084512495747031 807.7641366945097 41.91708099270001 0.36095215075520865
1.3336157430601585 13.085228974435411 719.4145494358125 43.83337736580451 0.3666978721679474
1.3606194322261664 13.085038227426562 641.4195037698639 45.840077244705846 0.3725938520868832
1.387545228771462 13.083794057766962 572.5155884788883 47.94237176694633 0.3786492801444441
1.414396591546868 13.081516647595578 511.4624352795104 50.144847744793374 0.3848689659524355
1.4411240824298015 13.078095501056726 457.4388720067754 52.45303434543549 0.3912615094823971
1.4677069674506908 13.07349615249821 409.523577086962 54.873182439439745 0.397837770717094
1.4941136947128306 13.067645860944733 367.03002696477165 57.4114716597551 0.4046067935156993
1.5203227668825618 13.060517208454334 329.2563334584212 60.074518832200596 0.411578330415468
1.5463034727265443 13.052050831427236 295.67446931460574 62.869417323283216 0.41876290095883867
1.572018248216856 13.04218788708189 265.80503914714836 65.8037801538985 0.42617185477898184
1.5974401814854409 13.0308842926585 239.23199002458776 68.88578726101308 0.43381744000075656
1.6225267282123164 13.018089467348524 215.5200410990964 72.12423733691679 0.441712877582225
1.6472793777902266 13.00376921755499 194.3643044702022 75.52860472948328 0.44987244229742696
1.6716280165573725 12.987864193543238 175.46777512911925 79.1090428345938 0.4583113042573696
1.6955670283881021 12.970339413682193 158.58080958324007 82.87526524084316 0.46704077234942065
1.7190384448190565 12.95114442391716 143.47391010334843 86.84021099834253 0.4760833139885929
1.742037504015633 12.930249261593685 129.96575943226208 91.01570454777632 0.4854543064782664
1.764523791263988 12.907635742115502 117.83915669097848 95.41527964555188 0.49517351356849776
1.7864500596098845 12.88322242827612 106.96816566665936 100.05312773789568 0.50526058160552
1.807791414870577 12.856997797278767 97.21307602855231 104.94547251295442 0.515740091733642
1.8285176008841222 12.828921015276917 88.45271896469747 110.10861772483177 0.5266337734200779
1.8485932901543862 12.798966406416952 80.57570581922019 115.56045460899614 0.5379660686717852
1.8679860014864764 12.767095670746883 73.48278916763397 121.32116200464763 0.5497662737297079
1.8866637057325213 12.733286904623467 67.10065003110095 127.41201560872666 0.5620637415209611
1.9045937754728282 12.697507335033206 61.33968611270526 133.85575642641504 0.5748889325009676
1.9217295809377197 12.659686218531158 56.14928085649469 140.67731897142914 0.5882756012396002
1.9380765880708972 12.61991445193957 51.46418466464976 147.90466776832986 0.6022631689275397
1.9535744298766322 12.578057559948242 47.2104748963926 155.566638813148 0.6168886845001236
1.9682056219851194 12.53419979008011 43.39729717292978 163.69618785095034 0.6321975173805121
1.9819359810969785 12.488252123606543 39.934603866960494 172.32730974282705 0.6482321534595151
1.994736239117072 12.440217881321075 36.79420732982112 181.4993126667235 0.6650459936196293
2.0065831993199335 12.390093267735823 33.95103055992938 191.2539341024866 0.6826927610936223
2.0174509159387988 12.337883348487617 31.3705205033417 201.63709841381547 0.7012315457027484
2.0273035259436525 12.283547574154403 29.031423909013473 212.69909993687583 0.7207263944768779
2.0361311275995293 12.227135090274514 26.905783409468782 224.4943680168512 0.7412444379943568
2.0438942685020622 12.168593333954973 24.974419521760346 237.08485978321195 0.7628657113706393
2.0505737102387416 12.107938445289681 23.217683014906207 250.53638848898234 0.7856697138754337
2.0561600672394627 12.04522136287629 21.621172122972414 264.9226208159865 0.8097468338888122
2.060633492743977 11.98044797009977 20.16689909968973 280.3251317605264 0.8351966594277779
2.0639676369407147 11.913619785216877 18.845031448352238 296.8329378367392 0.862124325111905
2.066144132551032 11.844760545646746 17.64007136666367 314.5460469804264 0.8906496615468413
2.0671614078084346 11.77392765768635 16.54391956070818 333.5743255347262 0.9209006845912172
