M[M_sun], R[km], Lambda[1], P_c[MeV/fm^3], rho_c[fm^-3]
0.24162668629717493 15.618656898711224 2160425.4255784233 3.5677272577965504 0.1711233750220791
0.25364471307148817 15.277253422555258 1723200.357810935 3.78483231842947 0.1738883315073882
0.26604068395903124 14.981261298937778 1353296.641503891 4.011428210436808 0.17666698408950604
0.27881737010650287 14.72346282712972 1116534.9119926966 4.247770630964331 0.17945800618436547
0.2919722118792296 14.498388433954219 905883.3190046411 4.494484918696319 0.1822679668397612
0.30550784337907927 14.301194179250015 738619.9451608189 4.751727010001445 0.18509257880383795
0.3194254618955558 14.128110032538618 605064.5487467833 5.020178689495581 0.18793844982083846
0.3337225791795685 13.975940657553808 497643.6623469019 5.300064663696565 0.19080221560505958
0.34840675036721136 13.841979134380264 410976.7210563825 5.59211285533885 0.1936901586630578
0.36347101136491483 13.723918775904387 340632.1866236489 5.896491435549926 0.19659735838486112
0.37892522445337784 13.619972502879271 283286.6754618973 6.2140641495949405 0.19953148833793938
0.3947586956047014 13.528392454782582 236382.73396736954 6.545087276923332 0.20248870653235707
0.4109839698323667 13.44782179786803 197840.82323625236 6.890265537653405 0.20547276322423955
0.4275933392379171 13.377014554501633 166066.376895932 7.250303086076512 0.20848671405395677
0.4445893773861154 13.314891143217837 139781.87885972645 7.625457369891945 0.21152608104458331
0.46197187423441527 13.2605297128622 117965.47636739395 8.016680483633587 0.21459707352533092
0.47973798996933126 13.213116017420864 99809.18700890019 8.424676141395997 0.21770131654092348
0.4978957741061139 13.171959257154093 84633.80934558087 8.849883262910094 0.22083624944940183
0.5164360794698534 13.136365526682356 71928.92816558442 9.293179093018196 0.2240053352890922
0.5353554085527215 13.10582290871031 61267.65700989996 9.755446787192493 0.2272114673765737
0.5546632941284444 13.079800418161895 52298.33302377481 10.23749609623418 0.23045599690905072
0.5743472012383913 13.057817775739563 44722.2694694727 10.739795140406464 0.2337355810470757
0.594405228159108 13.039502926153512 38322.49766639618 11.26359481421191 0.2370564850071082
0.6148434505474576 13.024510925228705 32896.245781658115 11.809830030870316 0.24042028721784273
0.6356489798308208 13.012438216693756 28287.606638121088 12.3794800105909 0.24382862101545424
0.6568211023732203 13.003004388764069 24366.359068592308 12.973229759387179 0.247279391022503
0.6783542962691114 12.995968783738371 21023.822150272827 13.592414211308506 0.25077747290109853
0.7002434129809373 12.991060316313943 18168.743595247557 14.238227488278572 0.25432546048910415
0.722479783904777 12.988003402315565 15726.2393372429 14.91185955869109 0.2579253389433802
0.7450685794177252 12.986639199497263 13631.481474028807 15.614333745320478 0.26157694001509685
0.7679904378598692 12.986755499455658 11834.137634851171 16.34692917228864 0.2652822868647529
0.7912368800475448 12.988148353699515 10286.802663778766 17.111256102649484 0.2690460085664771
0.8148116930213327 12.990680110960062 8954.377374470985 17.908769951340282 0.27287053842601144
0.8386959193914272 12.994136183676963 7805.857632603492 18.740824952536922 0.2767568568296713
0.8628790015882766 12.998412328532766 6812.776293655731 19.608788089114864 0.2807056445323509
0.8873623943003536 13.003364508877642 5954.2452812916645 20.514734916695968 0.2847231652783027
0.9121189999860276 13.008855949773624 5210.036371417291 21.46046004669006 0.2888124333761167
0.9371399745967545 13.014750340087746 4564.24534406707 22.447433371254345 0.2929732543604256
0.9624255400840137 13.020955549388937 4003.6621561923 23.47770931775722 0.29720965876222544
0.987947262378769 13.027345927308797 3515.6976158622197 24.553696999660534 0.301527635172199
1.013691408534923 13.033798005156608 3091.331642221124 25.677321625729814 0.30592868628958503
1.0396561807007274 13.04025823643524 2720.7858236527186 26.850579392641787 0.3104143288331522
1.0658091627370538 13.046587912814486 2397.525286146892 28.076551176286145 0.31499317389639825
1.0921428663417172 13.052711746009896 2115.1266008333405 29.35727086669679 0.3196655197274771
1.1186423654999185 13.058553670317853 1867.99168898005 30.695537414390827 0.32443634522839393
1.1452745409946141 13.064009875815769 1651.674743210155 32.0947072039761 0.3293134124657543
1.1720394039947004 13.069013737698983 1461.70762939731 33.556767343919624 0.334294716185254
1.198897278433678 13.073469359287506 1295.0558817136405 35.086239369561305 0.33939368016835547
1.2258425185589217 13.07733874164871 1148.6350076011558 36.68512013831053 0.34460690255792215
1.2528405919592183 13.080496677622449 1019.8834991791255 38.358488611296615 0.3499489839227368
1.2798843509499038 13.082943426756671 906.4461075512205 40.108613872876006 0.3554166682895984
1.3069284094372489 13.084522700724873 806.5694455988872 41.940913727255314 0.3610242007224128
1.3339667020944022 13.085237789559361 718.4295275093642 43.85892737679133 0.36677382001409287
1.360976452240713 13.085029675005076 640.4435736236471 45.867291003374795 0.37267298600038284
1.38790890172533 13.083767906190184 571.6484037767685 47.97136549295969 0.3787318056480565
1.4147588411343264 13.08146244137993 510.6656181320831 50.17593931060762 0.38495608794620845
1.4414899538447028 13.078023775141256 456.75075002235184 52.48617440110081 0.3913524996587482
1.4680856435838614 13.073421091594813 408.9005137162393 54.90851770123433 0.39793288688693673
1.4944945442663629 13.067553298695897 366.4202141953336 57.44916072697756 0.4047063134180168
1.5207083658144445 13.06040106810423 328.7381154320761 60.1147332509713 0.4116825533536261
1.5466917063785288 13.051911748621242 295.2020287926264 62.912342756480925 0.4188721495990501
1.5724079601446623 13.042028015598891 265.38848214610897 65.84961766905101 0.42628647712831946
1.597822103394205 13.03069067756297 238.84259551665664 68.93475474939727 0.43393781158415407
1.6229195360416449 13.017868626405882 215.16195303387565 72.17657107875438 0.44183940384022646
1.6476725486480093 13.003527679391977 194.03875106770587 75.58456112196131 0.45000556122906
1.672020251350326 12.987592304763439 175.17209338586767 79.16860817910896 0.4584502695246517
1.6959581620983455 12.97003224050788 158.31806186161492 82.93902057671438 0.467187281925567
1.7194380168813217 12.950817522259987 143.23538914188433 86.90848445592259 0.47623791977883145
1.742414715893988 12.929842274378858 129.75100800273646 91.08852454783197 0.4856163041743117
1.7649017400996636 12.90721832382211 117.6379801017063 95.49334754364534 0.49534481196862945
1.7868275038354897 12.882778601749665 106.79071220337265 100.13651150547074 0.5054405201584447
1.8081664903456895 12.856514655170752 97.05725458008956 105.03460445337345 0.5159293635959495
1.82887473079401 12.828375251432586 88.30186856153539 110.20417359447067 0.5268338884992683
1.8489532234877195 12.798401321388695 80.43891915748955 115.66293018057533 0.5381777478410666
1.8683278707250153 12.766457661606506 73.36244858828515 121.43094792048856 0.5499897576223103
1.8870064196047138 12.73263233603242 66.98720036332168 127.52966643645865 0.5622997692324162
1.9049282524919735 12.696809252413445 61.23725665136693 133.98163726896126 0.5751374603698086
1.9220671367678723 12.658987105224819 56.05496838338738 140.81252339994487 0.5885390308819944
1.9383807953804904 12.619091059533027 51.3762008289659 148.05000526869043 0.6025427328404748
1.9513522299187647 12.57995993486361 47.65643609728589 156.24420797508046 1.162879517106979
