M[M_sun], R[km], Lambda[1], P_c[MeV/fm^3], rho_c[fm^-3]
0.24162668629717493 15.618656898711224 2160425.4255784233 3.5677272577965504 0.1711233750220791
0.2536434765298831 15.277284634627202 1723198.5538821963 3.784810763257342 0.1738880628325662
0.26603831921161897 14.981309728653944 1353506.098329094 4.011382897079967 0.17666643650433073
0.2788130561991192 14.723563826920262 1094013.8359963798 4.247700026315889 0.17945718727684248
0.2919666508390653 14.498462650226752 905917.0380858433 4.494387169948291 0.1822668783847656
0.30550168935093297 14.301277206772488 738684.3632769439 4.7515987980305745 0.18509119386985634
0.3194171184892343 14.128202386156389 605130.4107340723 5.020019069770171 0.18793679370457977
0.3337142866739609 13.976023987751791 497708.74701450666 5.299869433754218 0.1908002499634852
0.34839515629767487 13.842075994764171 411035.494734315 5.591881527646992 0.19368792050400302
0.36345723414979647 13.724032868824446 340668.68955823476 5.8962188128833155 0.19659479785508321
0.37890927904645877 13.620057559763266 283320.23201209644 6.213746932713387 0.1995285957019336
0.39473884094716993 13.528558537467147 236426.28684522456 6.544725795087846 0.2024855368249979
0.41096467967725875 13.447938760843765 197886.00258963383 6.889852812323881 0.20546924828213986
0.4275731569082236 13.377071587920378 166091.96622813857 7.249835244155378 0.20848284371764084
0.44456514709232436 13.314982301041518 139811.94120842218 7.624935704361266 0.2115219282515293
0.46194635556798297 13.260613177561428 117992.4178091371 8.016095895206243 0.21459255126122595
0.47970929099324644 13.213194994997203 99834.19072004427 8.424024071385736 0.21769641388602345
0.4978660307051878 13.172011527959217 84655.5062704753 8.849166115530165 0.22083105699595765
0.516402550032449 13.136429045946217 71948.50131735211 9.292385262340648 0.2239997466716327
0.5353203223628259 13.105862692146587 61284.9443435849 9.75457089065821 0.22720547052526094
0.5546259958102535 13.079822082241805 52308.2247520615 10.2365324242091 0.23044957922929338
0.5743061979306358 13.057861015388706 44738.142741499585 10.738747880007915 0.23372885731091633
0.5943619415948752 13.039550740908139 38334.17990636477 11.262448215811412 0.2370493210395527
0.6147972263898476 13.02451665237558 32906.9528106333 11.808577320683899 0.2404126686498085
0.6355972012218819 13.012457506689719 28299.82244219306 12.378113992225588 0.2438205327193506
0.6567679924318308 13.003043705797946 24374.97520142457 12.971756705830542 0.24727097165242728
0.6782982610210364 12.995990091691185 21031.98103434775 13.590813204389379 0.25076855892350824
0.7001860349094705 12.991054229462346 18039.55491516678 14.23648994336388 0.2543160342231411
0.7224181022833303 12.988004186996966 15733.474758074506 14.909976339556527 0.25791538165393096
0.7450045300132875 12.986654171219262 13540.677995255102 15.612313503611288 0.26156661387955876
0.7679227166960985 12.986761152212178 11837.705368396453 16.344744549063602 0.26527139706589853
0.79116668205786 12.988129888787672 10291.33639796454 17.108896133351816 0.2690345328349352
0.814739583633196 12.990664690645454 8958.315845941072 17.906222944460684 0.27285845306048745
0.8386197575934078 12.994116273680207 7809.156019444776 18.73810220519479 0.27674434721442154
0.8627981669207236 12.998390028708224 6816.107225391958 19.605854198129997 0.28069248201381003
0.8872724536935658 13.003338263959806 5956.738865116473 20.511575760828578 0.28470932136745697
0.9120309458380907 13.00883317214626 5212.461160420334 21.457060537690662 0.28879787766303483
0.9370502403866304 13.014721317105947 4566.419890652076 22.443807670438822 0.2929581952633989
0.9623262196750696 13.020928131664178 4005.5872447975844 23.473811924066467 0.29719383028841884
0.9878507350114663 13.027319189420833 3517.5196776166376 24.549509567805686 0.3015110004933069
1.01359084919095 13.033784165701222 3092.643144504025 25.67286036495386 0.3059114694250603
1.0395519186346105 13.040237285729964 2722.1807598959404 26.845789761822754 0.3103962344703845
1.0657017590447375 13.046556374464153 2398.940435907457 28.07141075460171 0.3149741572413609
1.0920311921085175 13.052684980189994 2116.3723387364066 29.351797873025284 0.3196458203106949
1.1185286765655307 13.058523865475646 1869.0964243377211 30.68966650520566 0.3244156352158178
1.145157631999679 13.06398803956747 1652.4779203470262 32.088457541044455 0.3292919392394882
1.1719193601192726 13.068993323663877 1462.5611728688953 33.55006561776491 0.3342721306771358
1.198773138642093 13.073459322249688 1295.7698341388304 35.079053948598656 0.339369919929204
1.2257175792979633 13.077322877861995 1149.3546046301972 36.67747187446134 0.3445822304426705
1.2527115314310113 13.080492319743113 1020.4261366209295 38.35032666074108 0.3499232289063095
1.2797518871734241 13.082929236827752 906.9859047103374 40.09988529856219 0.3553896649966997
1.3067952958513038 13.084515245114394 806.9771463587809 41.93161960348909 0.36099610317821396
1.3338298837895688 13.085233933499914 718.7520507627773 43.848963498702105 0.36674420221547344
1.3608376450339021 13.08503574982909 640.8213626239981 45.856678249010784 0.372642125552326
1.38776659786499 13.08377924026031 571.9835327216946 47.960058531155745 0.37869962238479576
1.4146222528987737 13.08149595093429 510.97786672757223 50.163814154098255 0.3849221119214493
1.441345186819596 13.078046256707959 457.01074340711966 52.47325029862583 0.3913170149155947
1.46793770122645 13.07344966538317 409.14526412148655 54.89473742504057 0.39789579286175175
1.4943467694800607 13.067588317465972 366.6478584470209 57.43446241372706 0.40466750177297695
1.520557938245511 13.06044683383018 328.9535553278956 60.099049986697544 0.41164190733827916
1.5465402720260857 13.051968584674814 295.38363817461817 62.89560212013132 0.41882954334860073
1.572255971367273 13.04209151562153 265.54447658965233 65.83174123000397 0.42624177489185344
1.5976797306501556 13.03077027015319 238.99649683566133 68.91565751377865 0.4338908668752098
1.6227672715866346 13.01795643370341 215.308150368664 72.1561608787464 0.44179005850122727
1.6475185320677181 13.00362368405158 194.1585794815717 75.5627379415726 0.44995364440008784
1.6718672728003734 12.987693704546752 175.28967869145126 79.14537736469408 0.4583960723003995
1.695805399595474 12.970154107353556 158.41830273722044 82.91415547039774 0.4671301419836703
1.7192702759910874 12.950915452766063 143.33137595313232 86.8818570560923 0.47617762181914586
1.74227255820666 12.930019468131986 129.82346048959855 91.06012377113206 0.4855531229001045
1.7647524873581881 12.907379020075027 117.71880083353068 95.46289978923816 0.4952780027968069
1.7866800702576735 12.882951286077729 106.85585762888466 100.10399026144556 0.5053703407247325
1.8080199375176826 12.85670388640145 97.1199393544119 104.99984107729233 0.5158555434939744
1.8287320108351015 12.828579735406898 88.3601625714438 110.1669841380463 0.526756135238569
1.8488132565226876 12.798622550686131 80.49302559694672 115.62296188981317 0.5380951871443488
1.8682011595771844 12.76672387835726 73.40555704480707 121.3881280745862 0.5499025921077759
1.8868732566788013 12.732886507920302 67.03176965952558 127.48381630647124 0.5622078449484266
1.904798240842028 12.697081914735717 61.27734596538865 133.93253919061013 0.5750405255183254
1.9219427460418317 12.659278633898628 56.09274426083497 140.75978835160595 0.5884362829537049
1.9382584308162334 12.619400374749906 51.408427289970575 147.99331744142944 0.602433690984343
1.9537590455132061 12.57757198084133 47.1782663740802 155.66171914513228 0.6170688712469092
1.9683785246047758 12.533655495122419 43.35373698029678 163.7985135088187 0.6323890246679378
1.9820983101067982 12.487669395540385 39.89299409819697 172.4373428989049 0.6484353176514364
1.9948921171321006 12.439605902845233 36.75827531698432 181.6176907680003 0.6652616209725103
2.0067246606281866 12.38944265561024 33.916226656455585 191.38142557259545 0.6829219540384672
2.017583257349277 12.337199901498321 31.33834643509617 201.7745508940426 0.7014755102965824
2.027423888829323 12.282829005557224 29.000676379318087 212.8471030417049 0.7209853170540319
2.036239616918756 12.226377701438562 26.879036324587105 224.65429102967423 0.7415208687292483
2.043990367916094 12.167798412330859 24.950660034441576 237.2574815248653 0.7631600472974616
2.050654741537682 12.107110221520625 23.19542275013236 250.7233301551883 0.7859848552685681
2.056227776463578 12.04435690697017 21.600077259553178 265.1249000544036 0.8100834382937143
2.06068721722505 11.979545543571684 20.148698750796296 280.54409863795524 0.835556152198516
2.063943196030062 11.913057504731716 18.837344906129747 297.13436685057053 1.010005028412882
