M[M_sun], R[km], Lambda[1], P_c[MeV/fm^3], rho_c[fm^-3]
0.24162668629717493 15.618656898711224 2160425.4255784233 3.5677272577965504 0.1711233750220791
0.25364221882009413 15.277338423727116 1723125.2200876502 3.7848061616563906 0.17388800547583022
0.2660383195897684 14.981282390804893 1383043.3845377804 4.011373223626074 0.17666631960634932
0.2788118253296556 14.723602270053743 1116551.3057277084 4.247684953771622 0.17945701245804282
0.29196573577386753 14.498485506514559 905923.1897096616 4.494366302830269 0.18226664602456344
0.3054996545954146 14.301301777038976 738672.5894008444 4.751571427840556 0.18509089821956734
0.31941558380795715 14.12820439571073 605148.4868949897 5.019984994926344 0.1879364401649234
0.3337128551701699 13.976031105841269 497724.9475272142 5.299827757204377 0.1907998303497822
0.34839245143769115 13.842040933465078 411055.3518295016 5.591832145370112 0.19368744271688962
0.3634523185848882 13.7240907088479 340682.5816194046 5.896160615492943 0.19659425125287694
0.3789061471159849 13.620065955260882 279412.5966778596 6.213679215992608 0.19952797820697632
0.3947378621342326 13.528532197206395 236437.76498185666 6.544648629378796 0.20248486018597528
0.41096078699362104 13.447950117534546 197902.5032952847 6.8897647080226365 0.20546849794893893
0.42756745434567106 13.377109045673386 166103.56377242992 7.249735374569318 0.20848201752214973
0.44456098566549934 13.314974569953675 139829.15626498376 7.624824345551595 0.21152104176380082
0.46194124289073824 13.260640168933294 118000.65817619719 8.015971104911577 0.2145915859074081
0.4797032188573591 13.213213265070308 99832.60984343012 8.423884876592663 0.2176953673357703
0.4978588280514581 13.172040614196673 84659.76503162712 8.8490130294976 0.22082994858767324
0.5163956341922232 13.13644226595885 71951.10892255371 9.292215807796047 0.22399855370107444
0.5353124374039772 13.105875919790476 61288.870848451596 9.754383918755828 0.22720419041664722
0.554617453749366 13.079856006786562 52312.91910732606 10.236326716298983 0.2304482092948589
0.5742975432093492 13.057882657182267 44740.7925145725 10.738524329903408 0.23372742204999825
0.5943532727284571 13.03954469274682 38337.922750047255 11.26220346184142 0.23704779181231903
0.6147870150960347 13.024526397693815 32910.193543780624 11.808309917088776 0.24041104238979713
0.6355872350964897 13.01244441343089 28301.399480682034 12.377822403054028 0.24381880619822904
0.6567576891981054 13.00302963177326 24377.39873214387 12.971442270097596 0.2472691744667182
0.6782874669479833 12.995984716953611 21033.88150501783 13.590471457323387 0.2507666561674043
0.7001735697709521 12.991072213768305 18177.92543953578 14.236119052741325 0.25431402212341236
0.7224055768765163 12.988007164938207 15734.171196142346 14.909574355437131 0.25791325621236266
0.7449911596359616 12.986646545419264 13638.400643417091 15.611882272681736 0.2615644097130937
0.7679087200775773 12.986762393652596 11839.239697151726 16.344278231964655 0.2652690725921167
0.7911510712895982 12.988130075213219 10293.240013986057 17.108392389955107 0.26903208330137884
0.814723487030151 12.990663125644351 8958.945531176036 17.90567927949932 0.2728558734091197
0.8386032389259723 12.994124015372373 7810.031329003193 18.737521029948642 0.2767416770148736
0.8627816343343718 12.998389842243418 6816.904211299089 19.60522795648937 0.28068967246251847
0.8872539347098486 13.003332594467453 5957.127339272415 20.510901439002517 0.2847063663846599
0.9120144026427005 13.008832091388314 5213.064814367947 21.456334915523225 0.2887947707590446
0.9370308344665639 13.014715954438039 4566.961567426725 22.443033770455344 0.29295498092345934
0.9623067431340475 13.020918315110267 4006.169814325578 23.472980035193007 0.29719045174052544
0.9878281730238285 13.02732712481751 3517.7694345376362 24.54861577482217 0.30150744987808686
1.013568457184934 13.033770403872655 3093.3485929516746 25.671908127407775 0.30590779455697936
1.039530051137769 13.040227620366892 2722.474297015037 26.84476743947291 0.3103923723206359
1.0656789901961226 13.046548709324977 2399.204684775675 28.070313562508435 0.31497009825071215
1.092007830231136 13.052681401817459 2116.4926108745526 29.350629699567637 0.3196416156035095
1.118504386627851 13.058520145129162 1869.3009305531261 30.68841340493718 0.3244112148234219
1.1451326831501163 13.063980067452668 1652.5666519429712 32.087123603521384 0.3292873559615465
1.1718931366328453 13.068992015721193 1462.7195194191552 33.54863519766422 0.33426731001391397
1.1987468888135053 13.073446870840328 1295.9158388462542 35.07752029544882 0.33936484855401183
1.2256907530255219 13.077318278409765 1149.5523633800196 36.67583943843806 0.34457696445675506
1.252684608102588 13.080483957973952 1020.5889506496578 38.348576661869465 0.3499176852935221
1.2797229492748576 13.08293016436811 907.065208414491 40.09802229834179 0.355383901496406
1.3067657306352065 13.08451990834176 807.1078848701533 41.929635901894514 0.36099010614776406
1.3338009458243623 13.085226600376373 718.8448259165497 43.84683685775297 0.36673788073875485
1.3608075321258073 13.0850353387144 640.9027580442577 45.85441312429376 0.37263553887734285
1.3877370056805065 13.083782111085657 572.0458038319729 47.95764524879226 0.3786927534041648
1.414591472830215 13.08149543134762 511.03221458202165 50.16122625496401 0.3849148603428828
1.4413139817529919 13.078048571659739 457.07657640031755 52.47049189050268 0.3913094413603747
1.467906302220235 13.073457330398142 409.18795671321453 54.89179629550635 0.39788787586999624
1.4943148996100597 13.067594177620363 366.69383282143997 57.43132536121116 0.404659218225971
1.5205254360820846 13.060457396559372 328.9827234942094 60.09570273192705 0.41163323232226234
1.5465079281278513 13.051978165318113 295.42271260879494 62.89202920874236 0.4188204500050568
1.5722234826381376 13.042106650653622 265.5848126507232 65.82792592533306 0.42623223425285145
1.5976470239848437 13.030786093176024 239.02740548683255 68.91158167873218 0.4338808476821819
1.6227268414432734 13.017946988410214 215.3304348422472 72.15180484550692 0.4417795270053669
1.6474859199061844 13.003642603104868 194.1884854077471 75.55808036775323 0.44994256414234823
1.6718342003575688 12.987718104020281 175.31137054649088 79.14041939069307 0.45838450540377806
1.6957727664125801 12.970179381450052 158.4380181732299 82.90884873053416 0.46711794711091953
1.7192381106023644 12.950943645838956 143.35200170068765 86.87617423676137 0.4761647530293616
1.7422406128325367 12.930049730750623 129.84061288799944 91.05406250674929 0.48553963881792406
1.7647211392396052 12.907411075445385 117.7340575776112 95.45640169858684 0.49526374453496474
1.7866492731705488 12.882988896448927 106.87169943687776 100.09704968673525 0.505355363265616
1.807988328361952 12.856744091447354 97.1318199163164 104.99242203337401 0.515839789138663
1.8287013382803285 12.828623093472773 88.37278542226086 110.15904171613094 0.5267395205185834
1.8487826364371638 12.798670302684952 80.50098583153714 115.61443213752112 0.5380775676195046
1.868171409921006 12.766777029566207 73.41611479452321 121.37898981635223 0.5498839899628096
1.8868447449019348 12.732940458241812 67.04124661908054 127.47401824471213 0.5621881803166562
1.9047702996321538 12.697139599898188 61.28806306881722 133.9220612032688 0.5750198387179275
1.9219159072595566 12.659341241404642 56.10106692807436 140.74853427291796 0.5884143557287108
1.938233291542487 12.619467211433122 51.4168593710929 147.98121988810234 0.6024104207386275
1.9537449893989867 12.577676481617335 47.185190433390105 155.64874394580931 0.6170442819453564
1.9683545476044706 12.533730768248388 43.35944688260268 163.78458204737603 0.6323630005821843
1.9820758450028304 12.487751753199118 39.89855230139875 172.42232692536757 0.6484075922981123
1.9948713653842345 12.439690051768665 36.76317678939264 181.6015358562166 0.6652321945766958
2.0067060250579356 12.389534201423777 33.921082256254635 191.36402683360558 0.6828906761167187
2.0175660298573312 12.337293026756514 31.342804606860383 201.75579262429258 0.7014422162181269
2.027407430951532 12.282927166596345 29.005293521591042 212.82690476110267 0.720949981370543
2.0362254501657975 12.226479736635174 26.882517007775427 224.63246582304498 0.7414831433400052
2.0439765827379808 12.167906483130787 24.95326099719925 237.23392308261884 0.763119877989316
2.0506441019205273 12.107222807080667 23.19872275471765 250.69781716878794 0.7859418461404245
2.056218842109156 12.044475125354195 21.603135566353718 265.09729360960824 0.8100374995656743
2.0606794741471997 11.979668866998386 20.151342031885225 280.51424267853264 0.8355071814761492
2.063998778233095 11.91280765423378 18.82973949587884 297.03788077677825 0.8624563693966727
2.066163460487041 11.843913955333482 17.626501172641078 314.76867364995775 0.8910060430574652
2.067165287902529 11.773044843891853 16.530461173233594 333.81610358981703 0.9212825537161384
