M[M_sun], R[km], Lambda[1], P_c[MeV/fm^3], rho_c[fm^-3]
0.24162668629717493 15.618656898711224 2160425.4255784233 3.5677272577965504 0.1711233750220791
0.25364452062958553 15.277256583864178 1723194.929685297 3.7848293214278095 0.17388829415120832
0.2660402528709209 14.981274873186182 1382917.377482471 4.011421910107707 0.17666690795374707
0.27881683333913465 14.723478068095165 1116422.0707571951 4.247760814123403 0.17945789232380438
0.2919714314365005 14.498385030372408 905818.809114275 4.494471327706586 0.18226781550093624
0.30550837601628494 14.301162617096004 738590.6906813334 4.751709183344815 0.18509238624192367
0.3194246204345029 14.128108968924945 605073.9078133835 5.0201564958193625 0.1879382195528817
0.33372253359184384 13.975927802912455 497656.20625364163 5.300037518654551 0.19080194229952827
0.3484051390261638 13.841992732252319 410985.18546429113 5.592080691118582 0.19368984746537865
0.36346919013190665 13.723925529596116 340650.66499474057 5.896453529481861 0.19659700236304808
0.37892271001115096 13.619968924024011 283285.4400549227 6.214020042908548 0.1995310861380674
0.394755553063993 13.52844691319442 236398.34012190116 6.545037015374849 0.20248826580647689
0.4109811716888146 13.447835273144234 197851.89112701645 6.890208150874952 0.20547227449435282
0.42759038463826016 13.377025746668139 166078.15077385056 7.250238035494678 0.20848617590716428
0.444585805212998 13.314899678826464 139793.8814992442 7.625384835264916 0.21152550362231257
0.4619682316709351 13.260550776309866 117972.6421692212 8.016599199690823 0.21459644472831838
0.47973349769179263 13.213131896737005 99804.69602422483 8.424585474222853 0.21770063485053182
0.4978916740073385 13.171959373846269 84633.4965356267 8.84978354678177 0.22083552746202734
0.5164313156553787 13.13638397220016 71931.58918736585 9.293068714094863 0.22400455821459062
0.535350254974846 13.105833316726612 61268.54683412628 9.755324996987108 0.2272106335363603
0.5546582488701034 13.07980497686538 52301.18997867596 10.237362100774478 0.2304551045515609
0.5743416103093065 13.057823370003334 44725.679559335316 10.739649521888042 0.23373464613108044
0.5943991097354216 13.039523074112351 38322.01805028843 11.263435382568417 0.23705548887531452
0.614837932181965 13.024484622553558 32897.656317024775 11.809655844141412 0.24041922787190687
0.635642166108329 13.012424454624435 28288.274102832536 12.379290068044863 0.24382749635154488
0.6568139363271924 13.003029112690864 24368.41758028171 12.97302493327774 0.24727822032045435
0.6783464433471535 12.995985147378518 21024.85257096707 13.592191592812556 0.2507762334209561
0.7002353316728093 12.991064750786094 18170.167373770026 14.237985883604027 0.2543241497719532
0.7224705500216543 12.987993281460492 15727.616386966964 14.91159769733622 0.25792395438368765
0.7450599938152838 12.986638362839411 13632.102433626915 15.614052830321947 0.26157550416396264
0.767981055933026 12.9867656220705 11834.64128059758 16.34662539912764 0.2652807726317343
0.7912267283429728 12.988141944830048 10287.485174121637 17.11092794655792 0.2690444128545268
0.8148018825848802 12.990668158181455 8955.042301624899 17.90841578645188 0.27286885793894
0.8386860411669245 12.994137814883597 7806.576738472303 18.740446349786666 0.2767551173459282
0.8628667519572117 12.998407762806377 6813.117071296514 19.60838012527684 0.280703814255899
0.8873499396165087 13.003359806945065 5954.400574614538 20.514295627996646 0.2847212402471095
0.9121063951878888 13.008850018219597 5179.5753240480935 21.459987334870476 0.2888104093609964
0.937127949623878 13.014747518057291 4564.579131638457 22.446929205577607 0.29297116034323284
0.9624124407485989 13.020952017067584 4003.930718734279 23.477167370663743 0.29720745775405066
0.9879341713655532 13.027348782070746 3516.009127759464 24.55311471992218 0.3015253220512197
1.0136774903071977 13.033794019879121 3091.613896823827 25.676701267428868 0.3059262922074274
1.0396432459248652 13.040257108894947 2720.982383330413 26.849913370974257 0.31041181272322244
1.0657947643943528 13.046581826365747 2397.7520903735362 28.075836373216507 0.31499052952902346
1.092127281222009 13.05270860093968 2115.3089562841 29.35650981581028 0.31966278041157326
1.1186265557550108 13.058551185134824 1868.277177919335 30.694721028518774 0.32443346537432977
1.1452577210033814 13.06399981916207 1651.7908433159416 32.09383814785297 0.3293104264745138
1.172022236820979 13.069011541368955 1461.8014126267444 33.55583542248048 0.334291575513919
1.198879774603341 13.073471630185953 1295.1656865697641 35.085240183757016 0.3393903761317806
1.2258259332854913 13.077336780171066 1148.854207072924 36.6840565879624 0.3446034717091332
1.2528224263757628 13.080495933343007 1019.9676463502485 38.357356379754606 0.3499454186341542
1.2798656796706445 13.082941371249992 906.5356693625886 40.107400089619986 0.35541291324970303
1.306910587429841 13.084519488306999 806.6432085160513 41.93962129589605 0.3610202935066113
1.3339485853888422 13.085240497124042 718.4446092422243 43.857541805272284 0.36676970137897347
1.3609577606999488 13.085033699458403 640.5015369327609 45.86581519522695 0.3726686945507623
1.3878877521513984 13.083771747979698 571.6882468312956 47.96979314381691 0.3787273302348308
1.414738510467557 13.08146571207837 510.72948958307495 50.17425317696979 0.38495136321393947
1.4414702553895804 13.078025755432327 456.7743248452232 52.48437715995288 0.39134756510792407
1.4680649407145303 13.073425968233062 408.9410830416555 54.90660139359708 0.39792772853141767
1.4944745130634685 13.067558394848435 366.4461823010097 57.44711674913559 0.40470091619038123
1.520686759963253 13.060410449284975 328.76513389059096 60.11255229674216 0.4116769010163625
1.5466705012893884 13.051919419469943 295.22503334864626 62.91001475372497 0.4188662246469518
1.572386823899506 13.042037508115728 265.41129007343835 65.84713170977771 0.42628026068112956
1.5978114060589281 13.030706311675434 238.87029770877282 68.93209901274977 0.4339312832684104
1.622898002371552 13.017881832713563 215.1787408455688 72.17373274606389 0.4418325416591234
1.6476504193039503 13.003539866422196 194.05316885320437 75.58152628296284 0.4499983414190032
1.6719998838189327 12.987601653811012 175.19449065450817 79.16537757758776 0.45844273256826323
1.6959368709136458 12.97004963233355 158.33404547900346 82.93556268863685 0.46717933570883585
1.7194169250564795 12.95083626821317 143.24849060054754 86.9047814784828 0.4762295343568299
1.742395287220872 12.929885479949474 129.75749294232259 91.08457493978749 0.48560751775021116
1.7648808278762622 12.907242564395688 117.65215491935342 95.4891132513715 0.4953355209859091
1.7868071058368662 12.882802870047934 106.79767454218995 100.1319888418743 0.5054307604466137
1.8081457212755028 12.856541408980231 97.06407533665579 105.02976996293953 0.5159190975453797
1.828854825146102 12.828403461845001 88.31157008622947 110.19900169272067 0.5268230754284751
1.8489340906480998 12.798432658773756 80.44611424523812 115.65737180370415 0.5381662661524992
1.8683099556523552 12.766490870378751 73.36702615416147 121.42499295431284 0.5499776354934282
1.886987323689216 12.732667044905408 66.99333366934867 127.52330408637738 0.5622870354924597
1.9049103903992763 12.696847459811766 61.24305856006964 133.97480913227344 0.5751239795078692
1.9220506274990004 12.659027124343014 56.06192368419833 140.80518943162775 0.5885247415227455
1.9383636211698665 12.619135177877197 51.38051490584631 148.04212154262646 0.6025275681011509
1.9538588118591886 12.577287453687152 47.15384150095071 155.71406413882164 0.6171680702497583
1.9684742493963399 12.533352163451518 43.33033950106784 163.85471660290798 0.6324940125147768
1.9821874086809586 12.48734659880427 39.87141851950437 172.49792158335322 0.6485471695687339
1.9949764459885526 12.439265670682081 36.73720567369119 181.6828646449699 0.6653803360930974
2.0068109564383225 12.389103007631013 33.89654165753891 191.4516178706459 0.6830481395745025
2.017656226704414 12.336824070034455 31.321814179842633 201.8502284835194 0.701609830552925
2.027491420647066 12.282434426882414 28.985569790720955 212.92859065582655 0.7211278747596886
2.0362995543308573 12.225964708866572 26.863767547823493 224.74234290462766 0.7416730684913232
2.0440426835664427 12.167364547743611 24.937026366988654 237.35252662605978 0.7633221079259899
2.050700280001847 12.106654175318459 23.182475322546725 250.82609730649938 0.7861578395799762
2.0545657197522327 12.048964890086236 21.805581474309243 266.22171679371456 1.465743808203263
