M[M_sun], R[km], Lambda[1], P_c[MeV/fm^3], rho_c[fm^-3]
0.24162668629717493 15.618656898711224 2160425.4255784233 3.5677272577965504 0.1711233750220791
0.2536371489289112 15.277451872154423 1723348.053378918 3.784704692360899 0.1738867407100123
0.2660262765045379 14.981565317915555 1383306.8362485084 4.011159919811456 0.17666374195563295
0.2787936239379082 14.723956696211252 1116869.4483548414 4.247352604077048 0.17945315770242606
0.29194227158165154 14.49885497484721 906299.8687725223 4.493906191359866 0.1822615225765542
0.30546870210035815 14.301726440839408 739087.5207154899 4.750967937728989 0.18508437937458422
0.31937731088882565 14.128631015837321 605431.4889837098 5.019233686210701 0.18792864504702006
0.33366697522229566 13.976481596758733 498054.3481882694 5.298908857149286 0.19079057855095835
0.348338280658351 13.842548401035176 411310.6821623781 5.590743365363455 0.19367690847081215
0.36339097826425926 13.724514734966128 340947.424423337 5.8948775031368585 0.19658219999009308
0.37883522655873814 13.620505612755352 283577.1138577763 6.212186252105943 0.1995143641739755
0.3946564988572609 13.52893969150662 236660.08586568735 6.542947369665275 0.202469942436577
0.4108703700693152 13.448345464580738 198088.97030421492 6.887822321131374 0.2054519557670819
0.42746721186817793 13.377506204327746 166292.19566504846 7.247533643436679 0.20846380316474475
0.44445119781093706 13.315345913895769 139976.65866177404 7.622369360711028 0.21150149850591984
0.4618187289665083 13.260978505929009 118132.75028058705 8.013220060658245 0.21457030435598481
0.47957214497996875 13.213525589671926 99959.41148585385 8.420816332827785 0.21767229617640393
0.49771592468225156 13.172329213963522 84767.8737920212 8.845638304664392 0.22080551413797184
0.516240612366784 13.136723681480923 72052.833794521 9.288480308277544 0.22397225555158293
0.5351447611493131 13.106133460045495 61374.143002438235 9.750262331498778 0.2271759718486022
0.5544377961864169 13.080088633738832 52390.00959731155 10.231792190772001 0.23041801112377336
0.5741041385304313 13.058077472288389 44805.47218482511 10.73359657072488 0.23369578430964336
0.594151506041255 13.039742943296737 38396.91774590926 11.256808391436667 0.23701408331479934
0.6145698997559398 13.024666181058407 32683.78146903196 11.802415682789874 0.24037519561094703
0.6353573546096396 13.012570750905658 28348.692548204286 12.37139516578771 0.24378075004945507
0.656508519829986 13.003120815536516 24420.97341493387 12.964511543509158 0.2472295612756169
0.6780287463865449 12.996058554116955 21071.884100717332 13.582938864583344 0.2507247167091301
0.6998997888204946 12.991119569787415 18210.68225633326 14.227944229717354 0.254269673309535
0.7221171484452767 12.988042149942558 15764.070916716379 14.900714345542655 0.2578664100002446
0.7446871861572496 12.986656768272493 13663.531716862577 15.60237777302775 0.2615158290154463
0.767590561359543 12.98674169982123 11862.322404894752 16.334000589631138 0.2652178411228058
0.7908177360608282 12.988103872973756 10312.292918875004 17.09729005548378 0.26897809640841064
0.8143751218479838 12.990608594048194 8977.95052209617 17.893697287093644 0.2727990197119083
0.8382386944204274 12.994073122363499 7825.571161506013 18.724712511940734 0.2766828285019325
0.8624026534518918 12.998320505269243 6831.121816256417 19.591426451876742 0.2806277538154751
0.8868594019076396 13.003261829429698 5970.42830132895 20.49604056371545 0.2846412437249368
0.9116029653660936 13.008736954374136 5224.51394488352 21.440343741446977 0.28872630118248604
0.9366038885481439 13.014625459151851 4577.388590189756 22.425978890218648 0.29288414466053236
0.9618632817911751 13.020814197039606 4014.7917825374675 23.454647534366845 0.2971159980075536
0.9873700429430295 13.027206599823156 3525.881796671769 24.528919420757806 0.3014292056136874
1.0130982476920054 13.033653535875427 3100.2080447514445 25.650924134314206 0.30582681328634237
1.0390407701834876 13.040110019638183 2714.7891873817534 26.822239416205786 0.3103072655053436
1.0651765352280127 13.046440961280306 2404.906896682121 28.046136127450964 0.31488065540528004
1.0914869994616363 13.052563798039161 2121.738143316225 29.324888506443344 0.31954896311343517
1.1179671979132337 13.058404783852152 1873.9093521637126 30.66080131063256 0.32431381137154325
1.1445803375850214 13.063865403546979 1656.9213553972875 32.05758415562653 0.32918541679589347
1.1713278833253442 13.068893871847294 1466.4115014690963 33.517116896144614 0.33416109008812
1.1981720161135185 13.073366036872402 1299.2918186372744 35.04372795454967 0.33925310644378265
1.2250973628020974 13.077244600550658 1152.5492070289524 36.63987107267607 0.34446093607659023
1.25207702605407 13.080425999943783 1023.3066886503734 38.31001870330272 0.3497955421335276
1.2791034087128441 13.082879396533588 909.621903132916 40.05697520739713 0.3552569155099703
1.3061325273885314 13.084482016993045 809.3766191554331 41.885930117035386 0.36085797693873756
1.3331511193332917 13.085235974155907 720.7769924236934 43.799982698961976 0.3665986059476415
1.3601515940083955 13.085051972590142 642.7350331334709 45.80450871049889 0.3724904236210295
1.3870705791807734 13.083829590995071 573.623674495354 47.90447756841647 0.37854142102291466
1.4139067195115242 13.081550092375226 512.5458579012729 50.10421272704487 0.3847551021546327
1.4406354262176662 13.078168894528686 458.3696619279324 52.40972296638606 0.39114259266289875
1.4672092888803 13.073581213938784 410.39520554440236 54.827003088417214 0.39771346420931647
1.4936152332937798 13.067767169844117 367.7719265148861 57.362217213597205 0.4044767346410287
1.5198189691240822 13.060673017734938 329.9462506530345 60.02196526719995 0.4114421283485855
1.5457966096703155 13.052230107041952 296.29425170909866 62.81332218871225 0.4186201343815946
1.5715077857357809 13.042401615574375 266.3840505213008 65.74388089170998 0.42602206930014874
1.5969227154543064 13.031118849627825 239.73438993712074 68.82179935443413 0.43366014531631686
1.6220157414526573 13.018354659272205 215.97837433658702 72.05585226853803 0.44154754434784643
1.646765011408889 13.004084282438408 194.77604294401294 75.45548772703276 0.449698498681347
1.6711200911617594 12.988217156425078 175.8475121599831 79.03088949316707 0.4581283790258076
1.6950503283291878 12.970732322786278 158.93255412093578 82.79196148154881 0.4668493405531821
1.7185395068307026 12.951594452568099 143.78761239742403 86.75100618074569 0.47588130896634134
1.741539398315014 12.93075040897688 130.24896149498406 90.9205615243619 0.48524264827205726
1.76402192063385 12.90816730218704 118.10083909636693 95.31328285503584 0.494949709835329
1.785954687011606 12.88380314727351 107.20893545542935 99.9441883990884 0.5050254952385733
1.8072904722569205 12.857598269324553 97.43539521267739 104.8290262852076 0.5154928179249407
1.8280369950929718 12.829604052179118 88.64932870357138 109.98355699565812 0.5263715012574355
1.848111581673218 12.799676198437888 80.75527987088381 115.42658336830455 0.5376895368839301
1.8675251192751716 12.767889641839167 73.64879087485166 121.17774478607122 0.5494743288292336
1.8862143835791008 12.734140277133918 67.25089168460923 127.25824808665976 0.5617551313311053
1.9041469611104163 12.698386139536419 61.478296373713476 133.69120780554252 0.5745638831925541
1.9213125375514806 12.660680616667623 56.27312817940846 140.50071197598476 0.5879315036522285
1.9376623950187521 12.62092536425478 51.57942249164787 147.71483083937318 0.6018980081497154
1.9531806974888044 12.579170630515137 47.32952794000854 155.36303610865096 0.6165028369941837
1.9678397193409933 12.535390558629379 43.49510752945722 163.4769479093759 0.631787005053227
1.9815857006881008 12.489499594038485 40.020999300967475 172.09170040999888 0.6477971265874394
1.9944184148253308 12.44157558756714 36.872837221628316 181.245841659809 0.66458429266596
2.0062741728759006 12.391482080448247 34.02367845193732 190.98095739547352 0.6822020275935617
2.0171596544482475 12.339330647837034 31.43820162310776 201.3428025803105 0.7007091996281672
2.027039933014034 12.28507884461889 29.092997786981826 212.38176400732425 0.7201705321773201
2.0358974811258608 12.228749064900505 26.963805589744506 224.15198180120785 0.7406526152695575
2.0436877417535464 12.17028666162498 25.026872259012915 236.71504040971027 0.7622347354449228
2.0503965284991246 12.109716537391316 23.267307950779646 250.13618296828403 0.7849950578295527
2.056012945210892 12.047076878609012 21.665123295795897 264.48959500911144 0.809026253787903
2.06051071472068 11.982368572885228 20.209552251299403 279.8559970827886 0.8344257978349646
2.0638780037265576 11.915626883484315 18.882995591777433 296.32490367249096 0.8613012187356949
2.0660951818031585 11.84686143800245 17.674484723123594 313.9941963856191 0.8897662572852131
2.0671456781567707 11.776109405686288 16.575152568526168 332.97502343145936 0.9199541347910214
