M[M_sun], R[km], Lambda[1], P_c[MeV/fm^3], rho_c[fm^-3]
0.24162668629717493 15.618656898711224 2160425.4255784233 3.5677272577965504 0.1711233750220791
0.2536335771132927 15.277526769122067 1723534.948383966 3.784620441485205 0.17388569056349076
0.2660162927924713 14.981807006285216 1383553.3396499513 4.0109828178863305 0.17666160178338622
0.2787794280389196 14.724192476902493 1117082.7874286321 4.247076669998224 0.1794499572829355
0.2919211849849643 14.499180881711725 906619.5407026161 4.493524195298276 0.18225726896175173
0.30544302228644116 14.302035223866243 739328.8993271486 4.750466921778102 0.18507896744611133
0.3193443347869819 14.129025134192808 605685.0473506522 5.018609971227807 0.18792217376334067
0.3336278437791345 13.976844515736463 498307.54638971743 5.298146037345038 0.19078289822127653
0.34829284274008454 13.842935330368926 411575.4372078411 5.589839547953225 0.19366816378873655
0.363339492705327 13.724907370380457 341148.5225188721 5.893812400384918 0.19657219631964706
0.37877464303055175 13.620919631423225 283774.2809209187 6.210946991973655 0.19950306361373535
0.3945894000184804 13.52931585844894 236827.7501859456 6.541535250547688 0.20245756005959525
0.41079513959864933 13.448716136951743 198252.75488408032 6.8862101056856195 0.2054382254638059
0.42738389305216473 13.377839095843573 166432.37558835515 7.245706223632265 0.2084486853890304
0.4443583100241429 13.315695811940941 140110.03956395766 7.620331798138789 0.21148527819769639
0.461719043257222 13.26127895009925 118254.29101785635 8.01093684654563 0.21455264184892442
0.4794632157097696 13.213808342057343 100061.09677732515 8.418269688060633 0.21765314896789903
0.4975971404910479 13.172577004065424 84858.04522818574 8.842837627970527 0.22078523604207115
0.5161100925751883 13.13693881402237 72135.93804172668 9.285380317143195 0.2239504314207352
0.5350075456947371 13.106324178430512 61450.13607956144 9.74684203730598 0.2271525547040911
0.5542899912044917 13.080264006333827 52451.02794900071 10.228029330884477 0.23039295194481885
0.5739443353888619 13.058220215751767 44862.3588130505 10.72950749916893 0.2336695312036183
0.5939819707467947 13.039873548861904 38446.17812142034 11.252331673840235 0.2369861127022448
0.614389519627015 13.024807604729356 33007.20487107341 11.797524911658806 0.24034545156239867
0.635162727642723 13.012682063063936 28386.90862520328 12.366062287782503 0.24374917368307086
0.6563055267831561 13.003201403037842 24455.78430001282 12.958761045473532 0.24719669378694795
0.6778139222290899 12.996118897360212 21101.071032735792 13.576689172659163 0.2506899200988889
0.6996729037335908 12.991152507990295 18236.98214717276 14.221161884361281 0.2542328787549658
0.7218790354339921 12.988050520470726 15787.102712364596 14.893363739467647 0.2578275445750941
0.7444359540601498 12.986663965288079 13684.901082433762 15.59449266263872 0.26147552556153797
0.7673272701844032 12.986739526921724 11881.996775665666 16.32547431301902 0.2651753397723584
0.7905416388307714 12.988084777415574 10329.865925618045 17.088079886758194 0.2689333104767229
0.8140812977414029 12.990568307044482 8992.33479589777 17.883757670422987 0.27275185694152265
0.8379371581594649 12.99401449085107 7839.894600004478 18.71403359084345 0.2766335340592467
0.8620912916842384 12.998271488370412 6843.047695818593 19.579978075039943 0.2805763921687218
0.8865299869763406 13.003191541677813 5980.916554932075 20.483713800472596 0.2845872259371118
0.9112598295070492 13.00865314634788 5234.005980986218 21.427079814401385 0.2886695088879375
0.9362525566702994 13.014543621419532 4585.684900579513 22.411833009504438 0.2928253907254887
0.9614962138215593 13.020719482876187 4022.8820822787393 23.439442408938323 0.29705424547530546
0.9869902817837273 13.027100169035828 3532.694491259127 24.512583597992606 0.3013643111448205
1.0127023582744272 13.033555064512159 3106.4246140351793 25.63347856510025 0.3057593399704665
1.038628342971309 13.039994869138157 2734.5696425319315 26.80355608457291 0.3102366832427337
1.0647567821374744 13.046338956415454 2409.746330753334 28.026085497293096 0.3148064794056439
1.0910534576188151 13.052467272065222 2115.3252215853227 29.303541568427423 0.3194721272436646
1.1175224269054551 13.058315003842619 1877.7428298292689 30.637903572476723 0.3242330381164621
1.1441256069596453 13.06378073816704 1660.3619998796771 32.033028371057966 0.3291004933404201
1.1708575249116338 13.068811332457454 1469.550594274022 33.49098138687684 0.33407301072720386
1.1976843171965046 13.073277128022056 1302.0981728107113 35.0157076854042 0.33916045101003073
1.2246038485313508 13.077173143254647 1154.9595325457756 36.610047257957305 0.34436472906693477
1.2515769358930358 13.080386723002599 1025.5480282342544 38.278048747434134 0.3496942683218471
1.278588331306328 13.082842622644774 911.5705637337354 40.02294234266783 0.35515162919614335
1.305607987001497 13.084468350803055 811.1012924170878 41.849682499215334 0.3607483655245411
1.3326286078956473 13.085253496665024 722.5070576345911 43.761137520027255 0.3664831379866003
1.3596063026500484 13.085067776138755 644.223947356325 45.7631358592796 0.37237011698976086
1.3865176980312854 13.083860910081519 574.9939065956851 47.86035027968538 0.37841570046030276
1.4133444174622363 13.081608716543572 513.7164601207708 50.05694922189427 0.38462266460465483
1.4400675248858636 13.078257378001917 459.46984139761395 52.35934781678115 0.3910042813760212
1.46663278409979 13.073692667966446 411.3726261725406 54.77329362680641 0.3975688879980962
1.4930325500931751 13.067913376673392 368.67085679807997 57.30493275513103 0.4043254721097164
1.519225576491842 13.060826884341322 330.74244894397793 59.96084549849598 0.41128372541579195
1.545204436690479 13.052436720595328 297.0269695510106 62.7480853960392 0.4184541015576867
1.570913497463914 13.042644664222076 267.034530711091 65.67422201072847 0.42584787869309326
1.596329584366012 13.031411516902788 240.31353878689026 68.74738782146218 0.4334772273366036
1.6214251136693534 13.018695007417916 216.51881429732455 71.97632965084827 0.4413552840796242
1.646156742070559 13.00444893033662 195.26682541513338 75.37046510690247 0.4494962318829499
1.6705205111531134 12.988632461739614 176.28228149848826 78.93994457724172 0.45791538771837204
1.694453348506526 12.971193661709817 159.33236730769335 82.69509903438897 0.466626750931718
1.717945690307777 12.952108495918846 144.1555886685445 86.64728561891002 0.47564643292527087
1.7409503094722896 12.931312055665295 130.57872006991795 90.80993963606865 0.48499655528905816
1.763428441134427 12.908758689686007 118.40397303694787 95.19469625957919 0.494689504365797
1.7853760932714167 12.884473143395674 107.47703561409091 99.81753390950284 0.5047521803447972
1.806723814908339 12.85833320650702 97.67991492126991 104.69325874257875 0.5152038695344568
1.8274752945132464 12.830398114962476 88.8737170975895 109.83816955458038 0.5260666007595376
1.847561631969851 12.800532820801628 80.96156194216425 115.270958621898 0.5373680698598255
1.866988003621901 12.768812631260632 73.83853951718493 121.01102865748128 0.5491349558860699
1.885674631888695 12.73508641722824 67.42011220220665 127.07950658718951 0.5613963985678719
1.9036378397988765 12.699453264403711 61.63771066460901 133.49941858927923 0.5741842104567828
1.92082053320917 12.661813305295716 56.42181134105485 140.29543604812181 0.5875315480822613
1.9371954504681395 12.622168248599339 51.71106274316419 147.49418604248797 0.6014735869051435
1.952743889251129 12.580514581122271 47.45475714484577 155.12639586973657 0.6160543735294968
1.9674029154127406 12.536754625012708 43.60831159023369 163.22214839390816 0.6313099097697008
1.981185280915744 12.490985053265584 40.12119987103722 171.81788721714875 0.6472915604649567
1.9940321541610877 12.44310290557989 36.96854036299832 180.95128254486266 0.6640477491537918
2.0059137554492934 12.393098145441344 34.11063385694448 190.6637440976935 0.6816317694437413
2.0168273574329003 12.341033437461624 31.519120360398528 201.00083035590976 0.7001022326626343
2.0267355338390756 12.286873027228173 29.166786969535973 212.01270850416816 0.7195235758392501
2.035616473047864 12.230611497573376 27.02782284869654 223.75416391887697 0.739964977589248
2.0434478183729703 12.172262277250638 25.08822526980014 236.28475772120748 0.7614996497315699
2.050194301771481 12.111799039381552 23.321986582917944 249.6712297172614 0.7842112517458506
2.0558361607910203 12.049226547791806 21.718114617482268 263.98653637659197 0.8081891349963002
2.060375864635538 11.984625129134468 20.256712656208776 279.31101766506225 0.8335303114811852
2.0637863010211555 11.917987268183763 18.926819537757474 295.73384566519184 0.8603420741985054
2.06603755695648 11.849306870667935 17.715609292160046 313.35319614879904 0.8887401419811075
2.067130566973004 11.77864971840409 16.612358700264107 332.27851857019425 0.918853321555939
