M[M_sun], R[km], Lambda[1], P_c[MeV/fm^3], rho_c[fm^-3]
0.24162668629717493 15.618656898711224 2160425.4255784233 3.5677272577965504 0.1711233750220791
0.25364044041609995 15.27737425717527 1723181.978196647 3.784773227070777 0.1738875949621087
0.26603437677618474 14.981401465587082 1383092.9969451353 4.011303989253683 0.1766654829498183
0.2788072791551586 14.72367958121171 1116611.5881030324 4.247577078026062 0.1794557612619596
0.2919587201699332 14.498590863624257 906086.2848363817 4.494216955715076 0.1822649830097741
0.3054898624904863 14.301420398941465 738813.7423851009 4.751375539195853 0.18508878224834543
0.31940293794456454 14.128359894865662 605247.3104018685 5.0197411225753 0.1879339098951552
0.3336976411160214 13.976206858184847 497824.7289738627 5.2995294816875305 0.19079682721025615
0.34837413628087227 13.84226638345806 411151.65535136854 5.591478722778801 0.19368402325609546
0.36343270780348136 13.7242192317025 340768.0668302652 5.8957441069350525 0.19659033931635864
0.3788829344634057 13.620215026569701 283415.95076484786 6.213194582327088 0.1995235589314837
0.3947104039482499 13.528675025471738 236506.21344554095 6.544096374586841 0.20248001765750953
0.4109313844749808 13.448090384406447 197960.57997070317 6.889134172513386 0.20546312804394817
0.427535408024266 13.377241513955747 166157.2886678433 7.249020642941749 0.20847610473056488
0.4445250985079894 13.315103039175494 139876.26368287616 7.624027393992611 0.21151469751695315
0.4619025497363683 13.260721851052079 118042.14747757798 8.015078034889353 0.2145846772887701
0.47966053221941496 13.213314996305488 99865.28174210685 8.422888725857055 0.21768787767483172
0.4978122332367314 13.172131492427333 84692.21400811049 8.847917471619727 0.22082201628054157
0.516345479701726 13.136534760351596 71984.2889616102 9.291003116158379 0.22399001627634274
0.5352587585808399 13.105953118365525 61318.23019212002 9.753045873135001 0.22719502944805822
0.5545593634369901 13.079909617265995 52337.89244731783 10.234854597071552 0.23043840555507977
0.5742329415338542 13.057969183258365 44762.302200505765 10.736924533727116 0.23371715086299163
0.594286424682052 13.039621909635246 38356.50637914329 11.260451934325056 0.23703684823670063
0.6147170472890887 13.024566328275041 32926.81576856263 11.806396313809223 0.24039940448908087
0.6355127792910408 13.012480440642323 28316.069516440337 12.375735734343635 0.2438064508779578
0.6566729059002325 13.003094722265628 24389.717672163195 12.96919211808678 0.24725631352054264
0.6782031776725965 12.996012461554626 21045.61304582489 13.588025875388565 0.2507530398224018
0.7000848999032913 12.991073949489275 18188.305376661334 14.2334649316546 0.2542996233869825
0.7223097158721126 12.988022369200817 15742.574306193563 14.906697743827422 0.2578980464824352
0.7448919423159946 12.986648959718321 13646.490249979612 15.608796384908137 0.2615486367017453
0.7678056602636715 12.986757724475664 11846.864090020093 16.340941287198202 0.26525243875939053
0.7910431874391353 12.988128056494936 10299.56857603349 17.104787645446788 0.2690145546495038
0.8146104364451813 12.990644426023396 8964.968531869192 17.901788882671497 0.2728374137543484
0.8384854119109612 12.994110450272595 7814.675581000283 18.73336223439666 0.2767225695011309
0.8626585938307014 12.998364899396575 6821.3590586681485 19.600746699742594 0.28066956788967645
0.8871266772041572 13.003313506749254 5961.72965438882 20.50607615909839 0.28468522125994855
0.911878905009297 13.008804089733028 5216.413085918918 21.451142574249186 0.28877253865734365
0.9368915327571747 13.014689040278908 4570.090124825178 22.437495994122447 0.2929319801533042
0.9621618941652925 13.020882913111476 4009.0089039875124 23.467027345333868 0.297166276098291
0.9876805568652531 13.0272742118369 3520.452570867029 24.542220161065096 0.3014820431407704
1.0134203700334536 13.033739694568887 3095.63466259062 25.665094342180375 0.30588149884752586
1.039370720696739 13.040193714437677 2724.575869184185 26.837452204120332 0.310364736678725
1.065518206756575 13.046523395656244 2401.1262619920844 28.06246264524605 0.3149410542939181
1.091839043515634 13.052645151755126 2118.2944215729312 29.342270920149705 0.3196115291299217
1.1183303711758938 13.058480964061806 1870.8178632735 30.67944699506333 0.324379585231583
1.1449546177920453 13.063945581697608 1653.9149122532729 32.07757882167218 0.32925456103123585
1.1717101956515261 13.068953253378051 1463.9296084309426 33.53840011632139 0.3342328167345076
1.1985586494959588 13.073425604305212 1297.0034591671058 35.066546623153805 0.3393285615947015
1.2254984605275607 13.07729277935777 1150.462280304082 36.664159012698356 0.3445392852114098
1.2524870421915792 13.080465031836683 1021.4431458693864 38.33605513346314 0.34987801983652284
1.2795231045613726 13.082907485709644 907.9084978000218 40.08469230052218 0.35534266293641664
1.3065609886157712 13.084507721876724 807.8849979371139 41.91544235054483 0.3609471968917204
1.333591441612851 13.085231353553873 719.5246863395984 43.831620670095845 0.36669265035980514
1.3605942444658563 13.085038400160359 641.4702540304315 45.838206174850214 0.37258841126990866
1.3875203917104584 13.083795621295225 572.5703494498837 47.940378334817204 0.3786436061931107
1.4143713713199533 13.08151989325738 511.5137323659865 50.142710102671835 0.38486297604363795
1.4410984258592394 13.078099169682009 457.4929809922514 52.4507558853146 0.39125525368457037
1.4676806308469599 13.073502837066348 409.5591633781296 54.870753077521485 0.3978312313117212
1.494088126301908 13.067650607044714 367.069357016449 57.40888049568523 0.404599951414949
1.5202965832535476 13.060527216761319 329.3090573285321 60.07175407598403 0.411571165049786
1.5462773564644088 13.052061595776475 295.7127073284943 62.86646621491025 0.41875539015340596
1.5719911642087219 13.042201141024577 265.8366607366918 65.80062887486922 0.4261639746178398
1.5974135446402997 13.030898054495205 239.26284449731375 68.88242083684926 0.4338091646772642
1.6225013613280161 13.018100502187433 215.53702681384826 72.12063952964114 0.4417041792343596
1.6472521602786379 13.003785916354191 194.38178594565176 75.52475791891436 0.44986329082624643
1.6716015340347532 12.987880171759535 175.48452346742755 79.104947961273 0.45830175096476056
1.6955403737869792 12.970360141217217 158.6048090087358 82.87088237593242 0.4670307005386207
1.7190118029842756 12.951170232488893 143.49501631179913 86.83551759316829 0.4760726857350725
1.7420184705072461 12.930291937876628 129.97628987431796 91.01069864824822 0.48544317019442174
1.7644968112931303 12.907662064373017 117.8530661918144 95.40991305743906 0.4951617380758774
1.7864237505758174 12.883254864302026 106.98199585280103 100.04739578926427 0.5052482123090469
1.807765876749138 12.857030276565064 97.22847533114069 104.93934549760792 0.5157270810037109
1.8284929018368592 12.82895750428993 88.46536649473404 110.10203733521233 0.5266199733005046
1.8485678024406036 12.799005494722822 80.58391752582115 115.55341052837414 0.5379515180319455
1.8679620475130605 12.767138367459738 73.49245942593882 121.3136155161814 0.5497509118446702
1.8866401585407753 12.733332898392316 67.10696048282466 127.40392436960545 0.5620475024686059
1.9045712682263112 12.697555737511015 61.347598326869615 133.84710382418103 0.5748718495775486
1.9217235049412755 12.659786642420942 56.15800887558278 140.66802563317594 0.588257494282605
1.9380553660249973 12.619972543181582 51.4692920525623 147.89467807763384 0.6022439532604678
1.953550618024946 12.578118744791714 47.23444242407857 155.5559245625188 0.6168683799226697
1.96818640470028 12.534265231955041 43.40293225602979 163.6846505044596 0.6321759144603297
1.9819170176205432 12.488318366561755 39.937739088144745 172.31491075574732 0.6482092600855496
1.9947184082433187 12.440287600325616 36.79897927631514 181.48597346750938 0.6650216960833023
2.0065662088067726 12.3901659659094 33.95506122029655 191.23956812748824 0.6826669352080739
2.0174355092021754 12.337960752275634 31.372164303191134 201.6216101770081 0.7012040556102038
2.027289804272406 12.283629148724678 29.03412253621574 212.6824230159038 0.7206972192013859
2.036118701909382 12.227218204063918 26.907695410454345 224.4763481707898 0.7412132902614479
2.0438836445560984 12.168682548950379 24.977133705931912 237.0654092786691 0.76283254647364
2.0505649968121547 12.108036970047614 23.22088850818994 250.51532471496986 0.785634205113681
2.056152120318071 12.045318855975324 21.623365096731717 264.89982914042594 0.809708907216511
2.0606266725328353 11.98055017996776 20.169385981165266 280.30043899359566 0.8351560853526765
2.063962079291827 11.91372673711355 18.846783431628616 296.8061970195465 0.8620810001966034
2.066141785367987 11.844870208185737 17.642216851099327 314.51699914165175 0.8906031616702333
2.0671598136973146 11.774042944061868 16.545738896168157 333.5427792286476 0.9208508597206672
