M[M_sun], R[km], Lambda[1], P_c[MeV/fm^3], rho_c[fm^-3]
0.24162668629717493 15.618656898711224 2160425.4255784233 3.5677272577965504 0.1711233750220791
0.25364400758957206 15.277276951274773 1723200.483578355 3.7848194590418776 0.17388817122132544
0.26603992548540967 14.981258874500975 1383039.9148388463 4.011401177344001 0.1766666574105333
0.27881487902461705 14.723530868253574 1116459.83934205 4.247728509498345 0.17945751763883572
0.29196911801390635 14.498437802531406 905929.6617009396 4.494426603458251 0.18226731748605107
0.30550432231185565 14.301254576961144 738694.5794511 4.751650520804529 0.18509175257452942
0.3194204698244753 14.128150064367283 605094.9361837951 5.02008346279804 0.18793746180709733
0.3337183724526301 13.975962957590896 497688.09245132556 5.2999481923091984 0.19080104293144978
0.3483998327558206 13.84203647373327 411011.41607640666 5.591974848355979 0.19368882340753413
0.3634620716118089 13.72400635592793 340654.9295210625 5.896328792300683 0.19659583080504525
0.3789157290154489 13.620011213354257 283306.8979572198 6.213874901720316 0.19952976262519206
0.3947477020787712 13.528455188244875 236409.6131785971 6.544871620806108 0.20248681551954614
0.4109722680634061 13.447881063731764 197864.6142010624 6.890019309871874 0.20547066624512655
0.42757991218837127 13.37706918500358 166078.25943357407 7.25002397589051 0.2084844050469178
0.4445751387001194 13.314954635197507 139805.8491435764 7.625146148636177 0.2115236035232728
0.4619564585686325 13.260584048637417 117979.32064325348 8.016331722616641 0.21459437557690367
0.47972130238902827 13.213154715451841 99815.35797640035 8.424287120833052 0.21769839165013088
0.4978775067725902 13.172024300753963 84647.6400333083 8.849455417100357 0.22083315166293488
0.5164155453781244 13.136424649023958 71939.3291647207 9.292705497758861 0.22400200114894128
0.5353338552912508 13.10587120307763 61279.77266130624 9.754924231147816 0.2272078896812868
0.5546404044639958 13.079829046737022 52303.10717178097 10.236921172923674 0.23045216814408107
0.5743230095615339 13.057841602703805 44731.34169825513 10.739170347830406 0.2337315696852009
0.5943791705467008 13.0395403601779 38329.79559629434 11.26291075593297 0.23705221099860244
0.6148155854374555 13.024507966235324 32902.518755607794 11.809082665496705 0.2404157419894196
0.6356193633061802 13.012438862299762 28292.063055421335 12.378665044585686 0.2438237955412645
0.6567899453299195 13.003015268329616 24371.958680597058 12.972350935223151 0.24727436802396022
0.6783213692639863 12.995975303045258 21028.53987677483 13.591459048837743 0.25077215481236464
0.7002089957990498 12.991065698266496 18173.212815683215 14.237190865684463 0.2543198367609387
0.722442753046475 12.98800496632534 15730.641225492593 14.910736025054344 0.25791939839752354
0.7450295347693664 12.986656814293712 13537.97258640163 15.613128462289529 0.2615707794077385
0.7679507814063746 12.986760910487975 11837.046534660349 16.34562581691859 0.2652757899651261
0.7911944561417392 12.988143466175295 10289.310370057292 17.109848133158557 0.2690391620876212
0.8147675314973734 12.990668524227873 8956.73471801265 17.907250392213438 0.27286332822660825
0.8386507554718858 12.994133608534234 7807.81264854018 18.739200543811272 0.2767493935120686
0.8628314220864848 12.998403436100281 6814.993419304731 19.607037708315527 0.2806977916776117
0.8873106618341992 13.003359308066837 5955.70040859752 20.51285013861635 0.2847149058885184
0.9120661197940352 13.008847066473377 5211.456831808021 21.458431869157323 0.28880374930725533
0.9370865833948376 13.014736544797543 4565.507599367063 22.44527024321751 0.2929642699580589
0.9623648956610926 13.020944798906097 4004.614145761516 23.475384091867106 0.29720021532899377
0.987889546411496 13.027326455397944 3516.72737229258 24.551198730428055 0.30151771073452244
1.01363141371016 13.033788819797731 3092.0703129735093 25.67465998401398 0.30591841450160034
1.0395947914567794 13.040239802542107 2721.5944290859634 26.84772183731516 0.3104035335036868
1.0657452822231899 13.046566868175715 2398.463194088611 28.073484330174438 0.3149818282990642
1.092076597967542 13.052698682426566 2115.9180978514332 29.354005599740237 0.31965376677131757
1.118574626046122 13.058535219144927 1868.6936173517192 30.69203474013155 0.32442398931797667
1.145204594571764 13.063993781114895 1652.215846866452 32.09097855496617 0.3293006011950133
1.1719669475083192 13.069003671103648 1462.0484022066423 33.55276898072722 0.3342812412890471
1.1988233013198921 13.07346106484074 1295.5963721140138 35.0819524193269 0.33937950438612513
1.2257690661153893 13.077328016042994 1149.1568540295893 36.68055704207968 0.34459218271583353
1.2527634312047669 13.080497055990357 1020.2398022378435 38.353630849658174 0.3499336872970342
1.2798051587773143 13.082936311680918 906.7775433769035 40.10340622855165 0.3554005575778204
1.3068490157691321 13.08452314576102 806.795069900728 41.93536865744453 0.3610074371363004
1.3338858362771766 13.08523265330855 718.6561153393149 43.852982707793515 0.36675614938347495
1.3575532068704659 13.082736723949507 648.7284368533777 45.971234669096475 0.5583054568493708
1.3736630793705802 13.070276611409144 600.8159285205847 48.4340025724338 0.7530249014839063
1.3843569054267324 13.04740442466345 565.2263386346472 51.242395540887415 0.9351771525420932
1.3910388980353041 13.01485083745298 537.0686523651046 54.39625633220652 1.105454113438295
1.394705888427091 12.973450970529093 513.5341314969946 57.89493408230006 1.2649291465604209
1.3960153404606894 12.923775455947942 493.01163163796923 61.73865454960617 1.4148048937450657
