M[M_sun], R[km], Lambda[1], P_c[MeV/fm^3], rho_c[fm^-3]
0.24162668629717493 15.618656898711224 2160425.4255784233 3.5677272577965504 0.1711233750220791
0.2536421179569301 15.277345872324739 1723098.4167607022 3.7848049663497756 0.1738879905769099
0.266038185101057 14.981280846168866 1383075.2305822677 4.011370710863439 0.1766662892410958
0.27881183202056736 14.723610406025843 1116503.0839697337 4.247681038553058 0.17945696704740757
0.29196512438014177 14.498523966547085 905981.9450924302 4.4943608824286 0.18226658566713283
0.3054997499803925 14.301293959658043 738678.2360617884 4.751564318221032 0.18509082142210756
0.3194171156576751 14.128170700031596 605178.8470229843 5.019976143729579 0.1879363483303407
0.3337119855198707 13.976048874787255 497723.808548403 5.299816931418297 0.19079972135207962
0.3483923831503125 13.84209351842072 411052.86236580304 5.591819317977642 0.19368731860833877
0.3634541465756901 13.724041706882046 340684.7815604122 5.896145498327902 0.19659410926926374
0.37890544612608 13.620070548675328 283338.2426248598 6.213661626134466 0.19952781780864964
0.39473620904004586 13.528530598252987 236430.76990307515 6.544628585102524 0.20248468442475087
0.41096021814801986 13.447952946999202 197898.46557052957 6.889741822400522 0.20546830304537742
0.4275646252651671 13.377145425750529 166102.85561547475 7.249709432868521 0.20848180291310733
0.4445598392941399 13.315000761889399 139829.88059277594 7.624795419483471 0.21152081149369914
0.4619392279716566 13.260622790793548 118004.83144462314 8.015938689971229 0.21459133515163814
0.4797017024416408 13.21321367708053 99831.37139798018 8.423848720041347 0.21769509548905033
0.49785738302702354 13.172033007418777 84660.65358049149 8.848973264659291 0.22082966067325366
0.5163936331872471 13.136445634839932 71952.71175733063 9.292171791198115 0.2239982438214809
0.5353104709576574 13.105893050930403 61287.59335105097 9.754335351988264 0.2272038579028486
0.5546164062343738 13.079827672894572 52311.47690474516 10.236273282820711 0.23044785344873808
0.5742952501417062 13.057878859532364 44740.59074598084 10.738466261887302 0.23372704923534762
0.5943498691327919 13.03955452338231 38336.07306906952 11.262139886095941 0.2370473945899108
0.6147836145496213 13.024547053230036 32910.73967391305 11.808240458082814 0.24041061996315108
0.6355821551038565 13.01248619857056 28301.502808798276 12.377746661829963 0.24381835772882113
0.6567547728802597 13.003044257793523 24377.618605552365 12.971360594468221 0.24726870764231337
0.6782842476970327 12.995986947825687 21033.89062503644 13.590382687573072 0.2507661619212174
0.7001704084925718 12.991070123501775 18041.612008847267 14.23602271295835 0.2543134994753879
0.7224021339531856 12.98799443286795 15734.632748502745 14.909469939133851 0.2579127041240072
0.7449869968279371 12.986648318816231 13638.579131831206 15.61177025953588 0.2615638371761933
0.7679054011439718 12.986745571130914 11839.430682574895 16.3441571052219 0.26526846880568367
0.7911468071573956 12.988135097454162 10293.185705686838 17.108261541780056 0.26903144703101245
0.8147197382643502 12.990657580120768 8959.527070098216 17.905538061760975 0.2728552033410488
0.8385988482372825 12.994121441914908 7809.701441822714 18.737370068973636 0.2767409834273028
0.862777569132893 12.998383375556209 6816.988087172525 19.60506528961287 0.28068894267883227
0.88724818446718 13.003334458540728 5957.4499978693675 20.510726283412357 0.2847055988257055
0.9120085063383571 13.008827645550861 5213.119036623636 21.456146434806385 0.28879396373919664
0.9370250252247075 13.014719517931615 4566.976437406672 22.442832749703037 0.29295414599769815
0.9623016500214521 13.020921932283407 4006.1827808643548 23.4727639520115 0.29718957416252073
0.9878237779464608 13.027316523470095 3517.9122868474105 24.54838361226373 0.3015065276064549
1.013563891538271 13.03377499106089 3093.384308209546 25.67166078407425 0.30590684001141966
1.0395245775714785 13.040227766316187 2722.5566993126577 26.84450189189289 0.3103913691296956
1.0656730242436765 13.0465473459373 2399.2596236425766 28.070028567835532 0.31496904393149194
1.0920025677283725 13.05267882346072 2116.6109091622525 29.350326267785796 0.31964052343540295
1.1184982651302569 13.058517333637134 1869.343345543481 30.688087913829087 0.32441006663244676
1.145127757438983 13.063976369289476 1652.8265468901589 32.086777115322064 0.32928616546222134
1.171886106846996 13.068990467283758 1462.7661078586807 33.5482636486383 0.3342660578553883
1.198740753804607 13.073450590309186 1295.9488970345917 35.07712193223061 0.3393635312748457
1.225683295038702 13.077317470805891 1149.5649272090286 36.67541541692574 0.3445755966289934
1.2526776490770748 13.08048440434378 1020.6351987001473 38.34812210415034 0.34991624535431687
1.2797151089333811 13.082933758199646 907.0927322028708 40.09753838922545 0.3553824044432636
1.3067577770545298 13.084522490273166 807.1334103812472 41.92912064138003 0.36098854843716716
1.3337937983258028 13.085225723365665 715.9201497622747 43.84628446977028 0.3667362387559963
1.360800813116938 13.085036602524626 640.9134667759216 45.85382476613693 0.3726338280117452
1.3877296212526777 13.08378475030628 572.0742956394845 47.95701840778269 0.3786909692123029
1.4145836021458902 13.081500071387902 511.06081181900123 50.160554058667515 0.3849129767747825
1.441306052879762 13.078050496298923 457.04020664642553 52.469775405869086 0.39130747416201445
1.4678981573046086 13.073457368290109 409.2081115776552 54.89103235051348 0.3978858194674679
1.494306642684622 13.067597207372483 366.7189312700177 57.4305105269233 0.40465706661451684
1.5205170823740362 13.060459123176528 328.99199147309105 60.09483329949481 0.411630979030896
1.5464995453568633 13.051981128112185 295.43236206585215 62.89110116410832 0.41881808805768034
1.5722153901916418 13.0421078295108 265.5937323252111 65.82693492138705 0.4262297561254897
1.5976380575373221 13.030790560730486 239.03825256881836 68.91052300462972 0.4338782452559146
1.6227192683959057 13.017951245557397 215.34542072267163 72.15067339282933 0.441776791514489
1.6474776406183254 13.003649142163626 194.19635786536378 75.55687059314623 0.4499396861172278
1.6718268136460055 12.987723039075547 175.32377534916716 79.13913159033139 0.4583815009802677
1.695764632880495 12.970185089695166 158.44408456358906 82.90747034222775 0.4671147795786059
1.7192289810112398 12.950952354229804 143.35762773323302 86.8746981662608 0.4761614104559183
1.7422315819806922 12.930060030972417 129.84190590643215 91.05248813960198 0.485536136430525
1.7647131006881969 12.907420887361726 117.74026100754764 95.454713871315 0.4952600410650568
1.7866404468027437 12.882997695327237 106.87544227648753 100.09524692979139 0.5053514729943416
1.807980989508055 12.856753981025104 97.13665683356224 104.99049500025623 0.5158356970797981
1.8286934194019526 12.828634753087943 88.37432488630114 110.156972060276 0.5267351801223569
1.8487748202398129 12.798681240190218 80.50573141604247 115.61221661323971 0.5380729911108579
1.8681640383641458 12.76679016346007 73.42117631433457 121.37661624132733 0.5498791582338771
1.886837332473853 12.73295466214156 67.04260422179965 127.471473295418 0.5621830726237294
1.904763018140415 12.697154023186513 61.28812684905491 133.9193396533197 0.5750144655332942
1.921908924168599 12.659356808259608 56.10376095864592 140.74561114532642 0.5884086603645533
1.938227107224772 12.619484267044154 51.41845189591442 147.97807768151202 0.6024043765479165
1.9537383117355256 12.577694845071939 47.18666366662258 155.64537378485628 0.6170378951529926
1.968348997921195 12.533749721167208 43.36088851976794 163.78096351325175 0.632356241130368
1.9820719527015334 12.487771033380188 39.89888604382828 172.41842670819844 0.6484003909735504
1.9948650978486102 12.439712634827135 36.7633607222697 181.59733981997957 0.6652245514385087
2.0067010373064806 12.389558192154464 33.92118535551556 191.359507735902 0.6828825520805786
2.017560788185297 12.337317850517882 31.34442197044832 201.7509204139683 0.7014335685254051
2.0274038415428213 12.282952611486822 29.006583072019495 212.82165853529446 0.7209408034123632
2.036221791916616 12.226506459632802 26.883586035128943 224.62679703550046 0.7414733447057797
2.0439732219286095 12.167935176760949 24.954318103664253 237.22780412203852 0.7631094445994292
2.0506412159812992 12.10725236098074 23.199442757209958 250.69119055645987 0.7859306751699116
2.0562155875993544 12.044506239490621 21.603471861968533 265.09012326621547 0.8100255676976805
2.06067843563934 11.979699924860864 20.1513320147285 280.5064880726054 0.8354944621175598
2.063997755226135 11.912843171764164 18.830858532089426 297.0294676871293 0.8624427386839746
2.0661628857500474 11.843949036194948 17.627108035080685 314.75953453690903 0.8909914131349994
2.067165383073789 11.773081758870134 16.530754191857934 333.80617819062553 0.9212668773409507
