M[M_sun], R[km], Lambda[1], P_c[MeV/fm^3], rho_c[fm^-3]
0.24162668629717493 15.618656898711224 2160425.4255784233 3.5677272577965504 0.1711233750220791
0.25364057359219166 15.277370400765275 1723200.3831187354 3.784773486779069 0.1738875981992473
0.2660343856908244 14.981377294665954 1383136.720691764 4.011304535203468 0.17666548954729924
0.27880708973430895 14.72366794206625 1116572.5975359739 4.247577928678576 0.17945577112824687
0.2919583736089017 14.498578099252876 906064.1037045404 4.494218133382637 0.1822649961233757
0.305489987861406 14.301442395575197 738846.1953103867 4.751377083854756 0.18508879893360963
0.3194031262884094 14.128347221341857 605267.0360245513 5.019743045593952 0.18793392984721594
0.33369776724079925 13.976212351567444 497844.84544368327 5.299531833680733 0.19079685089092505
0.34837423363445796 13.842218742754351 411133.2637849729 5.591481509608656 0.19368405021944096
0.36343290762478797 13.724222069794239 340762.52644599904 5.895747391196022 0.19659037016283268
0.37888318332343035 13.620219160290462 283414.13285373204 6.213198403748284 0.19952359377824372
0.3947107844528982 13.528669272532559 236497.55430446268 6.544100729190472 0.20248005584150058
0.41093161419677426 13.448089240399767 197960.00474897947 6.889139144344091 0.2054631703861448
0.42753448914522524 13.377247427739428 166153.26867059706 7.249026278636266 0.2084761513532213
0.44452568720654845 13.315098469507719 139883.97832690197 7.624033677965094 0.2115147475414147
0.46190120525486067 13.260736611342333 118044.63624709158 8.015085076719735 0.21458473176302117
0.47966086310220535 13.213314251768487 99865.21139198887 8.422896580434339 0.2176879367302724
0.49781273088769334 13.172127718393588 84692.22368905618 8.847926109975194 0.22082207882592603
0.5163454121264499 13.136534380223154 71981.45300716875 9.291012678051134 0.22399008359266387
0.5352590173412103 13.105953786135375 61317.66850008794 9.75305642337048 0.2271951016805549
0.5545598483712708 13.079911795260013 52336.51972405884 10.234866204391896 0.23043848285530524
0.5742331517120103 13.057982121966221 44761.12732792858 10.736937147694725 0.233717231848571
0.5942865514970898 13.03961601898542 38355.47500724064 11.260465744583115 0.2370369345234429
0.6147170771600778 13.024569925425546 32926.84211374731 11.806411401907768 0.24039949624989396
0.6355126776330572 13.01248280390482 28316.300766777687 12.37575218691893 0.24380654829487694
0.6566792406235302 13.00305733170767 24390.912561950157 12.969209859588277 0.24725641492368997
0.6782039464135025 12.996018079610987 21045.003952845032 13.588045157674522 0.250753147181004
0.700085741819331 12.991072318161047 18188.17673576361 14.233485858068939 0.2542997369138016
0.7223125687534678 12.988020906605396 15743.866507711917 14.906720424352217 0.2578981664029193
0.744893680437408 12.986656643500343 13646.538741954486 15.608820715359393 0.26154876106287306
0.7678064158391689 12.986744894917823 11846.640995096754 16.340967596955196 0.2652525699069304
0.7910437851259485 12.988122351340255 10299.460154058468 17.10481606649445 0.26901469285143437
0.8146112890937052 12.990647937992984 8964.90837701857 17.90181955574279 0.27283755929587844
0.8384869039029474 12.994103494706998 7814.747975883356 18.733395023467327 0.2767227201499451
0.8626598519869701 12.998359716371503 6821.501124185449 19.60078203100216 0.28066972639875587
0.887126377217676 13.003322561785845 5961.546982785196 20.50611420251812 0.2846853879721125
0.9118799830045723 13.008804714726143 5216.421258274415 21.451183511436337 0.28877271393852416
0.9368924827783764 13.014692393323738 4570.10494800673 22.437539654585688 0.292932161494012
0.9621639461262068 13.020882153196087 4009.0064878275407 23.46707427677523 0.29716646670081903
0.9876817350497115 13.027274694891156 3520.4793506021356 24.54227058428254 0.3014822434482763
1.013420953981372 13.033740726381053 3095.4937916685685 25.6651480620434 0.3058817061628231
1.0393721564595237 13.04019414081511 2710.3236159610137 26.83750987710361 0.31036495455687063
1.0655187911982078 13.046524013031899 2401.1032773120132 28.062524541184164 0.31494128327390764
1.0918403594810415 13.052641616960244 2118.3945245079444 29.342336819737326 0.31961176632797456
1.1183310581737724 13.058486124028164 1870.7869882642492 30.67951768474284 0.32437983459400804
1.1449567688184363 13.063949277905552 1653.9774361323923 32.0776540708009 0.3292548195798303
1.1717119802374287 13.068957835203875 1463.9243015825168 33.53848080717492 0.33423308867100354
1.1985601680358213 13.073417616031408 1297.0364284033947 35.06663313638033 0.3393288476704878
1.2255001244598107 13.077296994905158 1150.437311050718 36.664251097331864 0.3445395822621831
1.2524891783288101 13.080466529890638 1021.4778946962806 38.336153848493986 0.34987833254410006
1.2795242278141672 13.08291052192072 907.8846989193316 40.084797388716325 0.35534298804418163
1.3065627513180555 13.084511227880672 807.8440831132466 41.91555424609062 0.3609475351689074
1.3335927452498013 13.085232273188685 719.5160216344838 43.83174062691152 0.36669300693349843
1.3605957611932455 13.085043334908736 641.448337670184 45.838333941689704 0.3725887827985221
1.387522073827204 13.083796425506947 572.5731689148083 47.9405144571429 0.3786439936411909
1.4143734037134135 13.081519913604222 511.511909171112 50.14285607233467 0.3848633850667194
1.4411001565609287 13.078102144304799 457.4961622337008 52.45091147069493 0.39125568086373197
1.4676824774994304 13.073500696796264 409.5715718312067 54.87091896718116 0.3978316778568505
1.4940889239548196 13.067650222477953 367.0603890721289 57.409057433943076 0.4046004186294341
1.5202981428858666 13.060526897586616 329.2896896323234 60.07194286790658 0.41157165433819226
1.5462790477727015 13.052058431653409 295.7063649845369 62.86666773179919 0.4187559030299096
1.571992973658192 13.042199999859827 265.83970933302174 65.80084406030316 0.42616451271550715
1.5974153183852289 13.030896101182565 239.262957290422 68.88265071334044 0.4338097297582627
1.6225030812128596 13.018100166664869 215.53705109986942 72.12088520597685 0.44170477320120294
1.647253808965871 13.003784858511134 194.37888383967405 75.52502059826263 0.44986391573419093
1.6716026564625373 12.987880411209197 175.48767359066494 79.1052275794139 0.4583024033106843
1.6955417945995983 12.970359433407694 158.60125487513932 82.87118165934181 0.46703138829102386
1.7190148262546026 12.951169593651963 143.49155012047686 86.83583808154374 0.47607341148355964
1.7420130193658283 12.93027373294456 129.98109764526433 91.01104047502616 0.4854439306331807
1.7644990106568201 12.907660783691178 117.85284851532548 95.41027951347252 0.4951625421622404
1.7864251844283447 12.883251833764893 106.97516911437695 100.04778719357272 0.5052490569425641
1.807767234645685 12.857027778365078 97.22814584677855 104.93976387862429 0.5157279694366761
1.8284945887798627 12.828956149368773 88.46367361963385 110.10248667434571 0.5266209156358568
1.8485701136868 12.799003367833201 80.58257005172337 115.55389153008699 0.5379525116155033
1.8679632326791624 12.767136038283066 73.49243492360445 121.31413082417166 0.549751960822899
1.88664176170713 12.73333007141586 67.1061683181404 127.40447687515967 0.5620486113428447
1.9045728393700716 12.697552004889387 61.34899164449982 133.84769466165545 0.5748730160741765
1.921724797944036 12.659783170121035 56.15747444056183 140.66866022235521 0.5882587307036483
1.9380571302481924 12.619964887227173 51.46934880583327 147.89536021614893 0.6022452653878401
1.9535515912792107 12.57811675073519 47.23397460545375 155.55665617646113 0.616869766404326
1.9681874852109351 12.534260224073046 43.40328608247383 163.68543832208672 0.6321773895968641
1.981918887514105 12.488313487840724 39.936316390931246 172.31575740899697 0.6482108233382039
1.994719779460165 12.440283281276667 36.798449363131986 181.48688432142524 0.6650233552163397
2.006567438548382 12.390162771934373 33.95571060599978 191.2405490928243 0.6826686987012234
2.017436540898116 12.337955516932917 31.371871860086266 201.62266777374688 0.7012059327400919
2.027290759267901 12.28362383474959 29.03402177869767 212.68356177951907 0.7206992114002007
2.0361207027125534 12.227211102821913 26.907895281027052 224.4775786331211 0.7412154171448807
2.0438839545609926 12.168676075265543 24.976702361876328 237.06673743033335 0.7628348110942336
2.050564861813409 12.108031050388758 23.21995481118442 250.51676302492382 0.7856366297791494
2.0561525448258555 12.045311857456841 21.623546868571196 264.90138543595214 0.8097114969826855
2.060627406676853 11.980543731458761 20.169366771289617 280.30212510034886 0.8351588558895802
2.063963152080237 11.913721768935678 18.84691251459585 296.8080229721163 0.8620839585669426
2.066141517834399 11.84486288392103 17.641520221469353 314.51898262288836 0.8906063368335724
2.067159843441932 11.774034850523494 16.545781688316435 333.54493331071785 0.9208542619212303
