M[M_sun], R[km], Lambda[1], P_c[MeV/fm^3], rho_c[fm^-3]
0.24162668629717493 15.618656898711224 2160425.4255784233 3.5677272577965504 0.1711233750220791
0.253644187409082 15.277268641035453 1723221.6511926565 3.7848222900090147 0.1738882065079651
0.26604003960231665 14.981250684000294 1382897.3008089135 4.011407128611349 0.17666672932808702
0.27881566281365494 14.723501075522565 1116409.9031647902 4.247737782416235 0.17945762519070926
0.2919700376004113 14.498406501507942 905843.3238392591 4.494439441365127 0.18226746043912365
0.3055066201656248 14.301195463527634 738685.629526662 4.75166735961814 0.18509193446585379
0.31942157057056514 14.128139500781497 605075.8826822124 5.020104426567508 0.18793767931429683
0.3337201228805045 13.975934085796334 497672.57153023826 5.299973832965731 0.1908013010903155
0.3484013588802165 13.842024626971995 411005.05581405223 5.592005229928264 0.19368911735760366
0.3634640344078482 13.72398772939381 340653.219724608 5.896364597367087 0.19659616709380606
0.37891741973741633 13.619999527827298 283311.7216543026 6.2139165635861096 0.19953014253124396
0.39474999626554214 13.528454910122514 236409.76112846046 6.544919096225886 0.20248723181484146
0.4109745371682919 13.447872159909009 197865.770201498 6.890073515372732 0.20547112788191832
0.42758378839233135 13.377040681551252 166074.37381026577 7.250085420144756 0.20848491335948635
0.4445782742716345 13.314934346660591 139802.4107564796 7.625214661827813 0.21152414893233207
0.46195982770357547 13.260565909369982 117980.52013382244 8.016408499800356 0.2145949695104914
0.4797240561291445 13.213187631541157 99806.61225310861 8.42437276072236 0.21769903554237613
0.49788221760222107 13.171977179808973 84640.05793088599 8.849549603935591 0.22083383361586492
0.5164200563567127 13.13640079390617 71937.29263247554 9.29280975580321 0.22400273513207322
0.5353384955423857 13.105846831481953 61274.345436046286 9.75503926731736 0.22720867727979568
0.5546449002670534 13.079809235570812 52297.26219537086 10.23704773709046 0.230453011012059
0.5743275046739132 13.057855618235067 44729.49169559589 10.739307890077436 0.23373245274903207
0.5943849726368737 13.03952072623946 38328.133045595816 11.263061344733682 0.23705315188015438
0.6148221319911041 13.024499850891456 32901.27118594554 11.809247190482166 0.24041674257583506
0.6356256611122192 13.01243678999623 28291.55955776279 12.378844450889895 0.24382485781930419
0.6567965828404377 13.003015571477293 24370.35972078421 12.972544398982334 0.24727547378347417
0.6783301245571589 12.99596407717873 21028.77227055004 13.591669317331522 0.25077332553100373
0.7002169149597715 12.991063726685752 18172.18506923361 14.23741906636976 0.2543210747607938
0.7224508995098545 12.987995490843774 15729.321560819046 14.91098335783053 0.25792070613914403
0.7450383102541326 12.986655397562165 13633.908955116154 15.613393790893742 0.2615721355915638
0.7679596780570727 12.986758787912622 11836.4807333365 16.345912734522376 0.2652772201774195
0.7912043789544838 12.988136619177832 10288.853960155415 17.11015807978302 0.2690406692530992
0.8147798524637372 12.990664722630685 8956.400604864877 17.907584903353012 0.27286491545804686
0.8386607541783174 12.994131692227308 7807.13885430745 18.739558135762557 0.27675103646206173
0.8628424510082868 12.998400134454345 6814.4731927935945 19.607423030730384 0.28069952037627705
0.8873220236764294 13.003362808423551 5955.187382417564 20.513265046094485 0.28471672407742
0.9120779343708207 13.008852763577533 5211.16008809971 21.45887834329918 0.28880566098023763
0.9370980140409092 13.014739099423043 4565.249028262895 22.445746424154407 0.29296624774257446
0.962381729759014 13.02094461948531 4004.5344888478157 23.475895955441526 0.29720229415905897
0.9879034228387746 13.027332175501916 3516.558610240067 24.551748685998753 0.30151989544692864
1.0136437796000817 13.033793364915484 3091.817354202638 25.67524590275128 0.30592067567484915
1.039607912348309 13.040242080186463 2721.4157837754537 26.848350882323892 0.310405909922458
1.0657593130936527 13.046572893045543 2398.2565894948943 28.074159446066737 0.31498432584631264
1.092091525680871 13.052704331499593 2115.7464925083236 29.35472439375513 0.31965635398842945
1.1185887896015623 13.058535789017467 1868.577345578627 30.69280579408892 0.3244267092607743
1.1452200696114505 13.063990985932234 1652.0650893971845 32.09179935227321 0.32930342137371504
1.1719829654029201 13.069009031569873 1462.016264356267 33.5536491493971 0.33428420754821386
1.1988391237045917 13.073464734766759 1289.5599943494688 35.082896113650634 0.3393826249274176
1.225784857254963 13.077335295017873 1149.0656514693933 36.681561523492825 0.344595423017382
1.2527804645707967 13.080493981850127 1020.1426730824936 38.354700194664545 0.3499370545619449
1.2798224466776995 13.08293987483775 906.6842596819821 40.10455259157054 0.3554041040420257
1.3068667984143083 13.084522933095261 806.7373741127541 41.936589296378926 0.3610111273127251
1.3339036366133716 13.0852345918165 718.5772857742817 43.85429130823891 0.366760039220757
1.3609114141692402 13.085034075685716 640.5979136607622 45.86235301194303 0.3726586269920747
1.3878426306419245 13.083776264435329 571.7947384971998 47.966104485293904 0.3787168311219494
1.4146995371102202 13.081482162494119 510.8136267252199 50.17029759303149 0.38494027923183
1.441422469384047 13.078032856355042 456.87800897960597 52.48016093036507 0.3913359889211606
1.4680175829215727 13.073432496658 409.00989382631883 54.90210584806851 0.397915627331361
1.494426032068472 13.06757032838042 366.5288259800276 57.44232170499305 0.4046882546320079
1.520637675911371 13.060425291006396 328.8328819627266 60.107435923516604 0.41166364100996233
1.5466211139987747 13.051938527832808 295.2893416174405 62.90455342422432 0.41885232512917764
1.5723376360972283 13.042057506117168 265.459097255038 65.8412998361439 0.42626567736319176
1.5977617093717935 13.03072996444683 238.91508995354985 68.92586886580894 0.43391596835893037
1.6228483985720277 13.017910290216212 215.240045484308 72.16707425607669 0.44181644355888366
1.6476010681169004 13.003570781412964 194.09691243802365 75.57440681964391 0.44998140438448675
1.6719495891630176 12.987636926009207 175.2337009032377 79.15779888541718 0.4584250515661351
1.695886746557576 12.970089394732561 158.35870107834774 82.9274508199358 0.46716069465818644
1.7193670013423852 12.950878734091784 143.27730842549758 86.89609467232496 0.47620986301487234
1.7423493658925266 12.929939600960797 129.77730962730854 91.07530958047472 0.48558690573619645
1.7648325365068038 12.907293520880266 117.67850565617343 95.47918007524802 0.49531372537952373
1.7867589675098705 12.88285801449243 106.81898333561658 100.12137919962096 0.5054078652989173
1.8080978500936082 12.85660282761163 97.08250354081606 105.01842883413768 0.515895014634597
1.8288081027801077 12.828469585832122 88.32737808818216 110.18686906317262 0.5267977093274637
1.8488883509506007 12.798505781307238 80.46170681221665 115.64433258433641 0.5381393316247741
1.8682652689052828 12.766567137233572 73.38853191204905 121.41102341975832 0.5499491986403384
1.886944366859344 12.732750134372662 67.00782124494827 127.50836483946745 0.5622571136582738
1.9048669039916613 12.696936965971217 61.2548767599966 133.95879132938023 0.5750923553914743
1.9220099667559492 12.659121557410973 56.07425426368727 140.78798506440177 0.5884912208728991
1.9383240142519729 12.619234051506444 51.390487887221866 148.02362757464925 0.6024919940336144
1.953819728623614 12.577394565197183 47.160146043443525 155.69422832156695 0.6171304793904674
1.968437821474947 12.53346697546363 43.337089352333656 163.83341872255096 0.6324542278972721
1.9821539099959706 12.48746862830462 39.87985964911371 172.4749655214519 0.648504783710397
1.994944422973701 12.439395202976355 36.745036726700256 181.65816717814747 0.6653353493148305
2.006780098258582 12.389238310517795 33.90276144708589 191.42501860356165 0.683000321753055
2.0176285909888025 12.3369668648375 31.327153824399982 201.8215504805573 0.701558929926519
2.027465680252623 12.282583305741342 28.99042519310353 212.8977108504302 0.7210738523876278
2.0362768967410685 12.22612149044106 26.869618274733266 224.70897545027506 0.7416153920521082
2.044022890286384 12.16752925786544 24.942552281887387 237.31650895239176 0.763260694483746
2.0506837927967316 12.10682534789268 23.18721592639523 250.7871691722043 0.7860923383573136
2.0562561888993343 12.044083670100683 21.593326824156243 265.1940707672107 0.810198542378559
2.0607056915141992 11.97923646126267 20.142022001704287 280.6189061053893 0.8356788538563934
2.064012442879959 11.912344089661344 18.82108077806647 297.15143238889084 0.8626403433545996
2.0661746441646436 11.843446432376666 17.6186535916344 314.8920251707377 0.8912035045808571
2.0671683621409143 11.77255888653963 16.52364882460492 333.9500685050944 0.9214941405987771
