M[M_sun], R[km], Lambda[1], P_c[MeV/fm^3], rho_c[fm^-3]
0.24162668629717493 15.618656898711224 2160425.4255784233 3.5677272577965504 0.1711233750220791
0.2536435974813311 15.277281857973623 1723238.9788354537 3.7848138810940855 0.1738881016948971
0.26603859221607556 14.98131408499436 1382965.7846560036 4.011389451384402 0.17666651570923175
0.2788140961383575 14.723560477371842 1116439.0305680858 4.247710238819398 0.17945730572649327
0.29196770619282786 14.498453336549067 905907.171238167 4.494401308623375 0.18226703582219408
0.3055038097824534 14.30122623370708 738716.4498213214 4.751617342937344 0.18509139419024292
0.319419073495351 14.12816352463056 605126.7182385284 5.020042157502715 0.18793703324871597
0.33371599424438664 13.975979954841595 497687.51393057196 5.299897672132588 0.19080053427709945
0.34839683286965745 13.842061840323721 411026.8332411895 5.591914987162585 0.19368824423402078
0.3634589608080309 13.724028706385877 340668.6038952421 5.896258245229812 0.19659516821202627
0.37891190431315425 13.620026710889674 283317.74915553274 6.213792815057381 0.19952901409366489
0.3947433763032437 13.528489941891703 236422.6031962394 6.5447780797789665 0.20248599529110586
0.41096711016844023 13.447927918466275 197880.32356837692 6.889912508685553 0.20546975668140646
0.4275748706472074 13.377083674264565 166091.1063699298 7.24990291234443 0.20848340351922698
0.44456903586426705 13.31495793232006 139808.27791450813 7.625011157338199 0.21152252890574177
0.4619496157794425 13.260595155971547 117989.06441179337 8.016180449010667 0.21459320535326198
0.47971365145630024 13.213180306038948 99823.53021001494 8.4241183853226 0.21769712299498023
0.4978699967889394 13.172003436214988 84648.77935752684 8.849269841839877 0.2208318080187588
0.5164071410711947 13.136427185939358 71224.91843635633 9.292500079583547 0.22400055499218072
0.5353251201539818 13.105859050431562 61281.81411685661 9.75469757728496 0.2272063378889668
0.554630400545463 13.079843752439071 52304.8916619752 10.236671805970447 0.23045050745745094
0.574312085746259 13.057856148672526 44735.49750715144 10.738899351285799 0.2337298298034403
0.5943666416977568 13.03955012402128 38331.26000132921 11.262614054434458 0.23705035720227055
0.6148033598145359 13.024517530163314 32906.01212067463 11.808758506295119 0.24041377056062624
0.635605135007097 13.012452247944589 28298.170090073192 12.37831156558328 0.24382170256586205
0.6567758390349088 13.003033686383871 24373.96891413845 12.971969759650031 0.24727218938069268
0.6783067986373424 12.995981513849458 21030.64654081163 13.591044763966481 0.25076984818519504
0.7001944525145452 12.991055848970722 18174.886964301873 14.236741250215392 0.25431739757507554
0.7224268696557268 12.98800799060912 15731.794841486279 14.910248714966146 0.2579168218053943
0.7450138060962482 12.986654108259287 13636.215884812706 15.612605696294139 0.2615681073747344
0.7679331374773394 12.986754953831086 11838.013278730914 16.34506051575156 0.2652729720805908
0.7911760834545559 12.988140286618535 10290.435545029435 17.10923745972739 0.2690361925895168
0.8147498826307873 12.990659992642687 8957.916110303522 17.90659132133147 0.27286020098239916
0.838630743884012 12.994128454607159 7808.821788778191 18.738495998700387 0.2767461564918255
0.8628107549202129 12.99839040677621 6815.754326251599 19.606278528301747 0.2806943857156797
0.8872819933478079 13.00335864129812 5956.230797478798 20.51203266983765 0.2847113236135796
0.9120440371799557 13.008835461521276 5212.048341941009 21.45755220754607 0.28879998285097447
0.9370626589887511 13.01473496199449 4566.1027039846 22.444332053087194 0.29296037325038204
0.962340143132026 13.020929965691295 4005.2267657213774 23.47437559979195 0.2971961195430244
0.9878638305680576 13.027321348363744 3517.1722684327674 24.55011518961125 0.30151340634123824
1.01360379263551 13.03378342397156 3092.320057158682 25.673505588645696 0.3059139594675502
1.039567767773258 13.040238663405836 2721.9510100760976 26.846482474942793 0.31039885141581547
1.065717339145305 13.046561590851985 2398.8115406415427 28.072154199500602 0.3149769075673165
1.0920472851185263 13.052689026915788 2116.0751659561033 29.352589414915386 0.31964866937549
1.1185442210947072 13.058531160178799 1868.9269889406398 30.69051559371035 0.32441863043053765
1.1451744074287307 13.063983232958146 1652.4416059535477 32.08936140504521 0.32929504482716776
1.171936673770484 13.06899900013565 1462.3972786581544 33.55103485878361 0.3342753971193017
1.1987919341438813 13.073452552674391 1295.6721393293265 35.08009314089816 0.3393733562564128
1.2257355273490678 13.077328280611956 1149.2733874097314 36.67857800254481 0.3445857986406428
1.25273029718016 13.080493368351707 1020.3955336468971 38.351512450294116 0.3499269852276626
1.2797710785901784 13.082935799312184 906.8893473695595 40.101147658640414 0.3553935703170545
1.3068143349282157 13.084522232035136 806.9361310709116 41.93296375179778 0.3610001667421887
1.3338502001158243 13.085234438641121 718.7768891186801 43.85040450422838 0.3667484856291307
1.3608573449413237 13.08503365760404 640.7716598211074 45.858213092558515 0.37264658866887007
1.3877866793299762 13.083778423317707 571.9325962333721 47.96169376799213 0.37870427679669805
1.4146433227337278 13.081490248837758 510.93572731538694 50.16556771366741 0.38492702558860836
1.4413656122434118 13.078041247036143 456.973166080996 52.475119397392234 0.3913221467605164
1.4679590957154898 13.073446141185892 409.1140430365915 54.89673033850242 0.3979011574263734
1.4943679263416172 13.067582938622344 366.61073538741533 57.43658808767564 0.40467311472334455
1.520579738555569 13.060442392881349 328.9139148964507 60.101318097227725 0.4116477855568572
1.546562099123793 13.051958916725413 295.35527139407174 62.898023139639385 0.41883570503572837
1.5722782248750335 13.042085077123858 265.5269183763878 65.83432649983888 0.42624823967732806
1.5977019574911457 13.030759706863305 238.9810097642831 68.91841932429655 0.43389765594109925
1.622788218320352 13.01794327491168 215.28787031589894 72.15911255760585 0.441797194717133
1.6475414897562406 13.003608996063972 194.1474128510936 75.56589395121786 0.44996115247224183
1.6718895532046991 12.987678047389121 175.27143884119204 79.14873693225387 0.45840391013308057
1.695826778680599 12.970136600613362 158.40095868159847 82.91775137052323 0.46713840535168577
1.7192924769208888 12.950898371265673 143.32061610966554 86.88570779768558 0.47618634185425374
1.7422940018731412 12.929996008514683 129.8070661352685 91.0642309571043 0.4855622598770919
1.7647738855651687 12.907356283905056 117.70564952231304 95.46730298148452 0.49528766438378047
1.7867029404384636 12.882925815619176 106.85123932300445 100.10869329382409 0.5053804896645702
1.8080429126622934 12.856676222468511 97.11089911656349 105.0048683350436 0.5158662188863468
1.828755036313018 12.828548099593487 88.35414153848721 110.17236221943006 0.526767379376131
1.848833172711316 12.798591637057086 80.4811677395688 115.6287418007975 0.5381071264459485
1.8682210809345132 12.766689811099342 73.39709447195013 121.39432033054574 0.5499151972717009
1.886892321929347 12.7328499159171 67.02470541025322 127.4904556694568 0.5622211700969622
1.904818961247764 12.697041879243118 61.27189509126161 133.93963929614267 0.5750545433312099
1.921960479767196 12.659235038080217 56.08779908668316 140.76741436741048 0.5884511413325193
1.938275814405233 12.619356109666306 51.40422171269808 148.00151503050236 0.6024494594547802
1.9537758381889996 12.577522388428966 47.17318745851876 155.6705114637358 0.6170855335707864
1.9683943738188237 12.533604998843298 43.34944173429575 163.80795383211193 0.632406659270304
1.981362817588826 12.48863478868813 40.02176572355818 172.60971624882302 0.8698259765700963
1.9876287017870589 12.444148788718365 37.80559623090443 183.12982169679407 1.3296962939465113
