M[M_sun], R[km], Lambda[1], P_c[MeV/fm^3], rho_c[fm^-3]
0.24162668629717493 15.618656898711224 2160425.4255784233 3.5677272577965504 0.1711233750220791
0.25364594805891466 15.27722478932589 1723108.1182903773 3.7848530145744155 0.1738885894748508
0.2660430970438193 14.98121171594585 1382912.7533329898 4.011471718288339 0.1766675098562152
0.2788201344455404 14.723419925609837 1116353.8858933235 4.247838422897536 0.1794587924686304
0.29197771023076174 14.498295050862547 905811.7023260859 4.494578774074758 0.1822690119411828
0.30551474589019517 14.301112542394447 738519.9616145928 4.751850116171678 0.18509390858542812
0.31943374536566455 14.127999815115622 604958.6050571317 5.020331953761114 0.18794003999674794
0.33373499159229797 13.975776377635846 497574.7030307902 5.300252121695046 0.1908041029960552
0.34841788221114944 13.84188514389112 410918.3975561165 5.59233497559132 0.19369230773760363
0.3634839359274679 13.723826990379418 340606.46558530955 5.896753209015678 0.19659981701664864
0.378939489409503 13.619864168479898 283222.73243749334 6.214368744796381 0.19953426587942003
0.39477340608421757 13.528327884555079 236335.64674105504 6.545434378095183 0.2024917501407235
0.4110024368461629 13.447735114582326 197802.6597375085 6.890661846500446 0.2054761383566855
0.4276134190473232 13.37693552460396 166031.5370545382 7.250752322337667 0.2084904304704159
0.4446113986611799 13.314836169872695 139759.03382208812 7.625958292369495 0.2115300687095967
0.46199483161319227 13.260466339430035 117936.0112202192 8.017241830842499 0.21460141599982158
0.47976420610931825 13.213060562724245 99774.81386333039 8.42530229162326 0.21770602431529051
0.4979256593916297 13.171911952064896 84610.38966809805 8.850571907808526 0.2208412355327018
0.5164681528626782 13.13630803962951 71914.15632212341 9.293941378624211 0.22401070182728153
0.535389742525971 13.105763103268163 61250.766948575874 9.756287883182361 0.22721722596493837
0.5546991425195744 13.079761906022751 52279.70076064196 10.238414448742096 0.23046206915663062
0.5743855944210176 13.057784055321306 44709.33889976965 10.740800804248998 0.23374203772046043
0.594447137836005 13.039467778621251 38310.12827651728 11.264695877710599 0.23706336447177317
0.6148877704511596 13.024460667641504 32887.07298944452 11.811033000100366 0.24042760327787127
0.6356958130062557 13.012416900485649 28278.002374232605 12.380791797589659 0.2438363882036124
0.6568707120537325 13.003002046997153 24358.46791734382 12.974644340121188 0.24728747618590247
0.6784073150111404 12.995959602239736 21017.011134931105 13.593951676427714 0.2507860330949707
0.7002992998149534 12.991050502368786 18162.130219872623 14.239896083386492 0.2543345126990004
0.722538836564879 12.98799765590483 15721.017554567168 14.913668059268815 0.2579349011676541
0.7451303108296273 12.986643690818289 13626.225374050386 15.61627384256712 0.26158685650530433
0.7680554882732983 12.986756926485937 11829.041566610826 16.349027143770627 0.26529274472640124
0.7913053468919976 12.988139272145647 10283.375679416376 17.113522480221203 0.26905702919314856
0.8148834260941242 12.99067711291269 8950.782921280497 17.91121596521221 0.2728821445869354
0.8387722150095422 12.994141707657558 7802.715262666334 18.743439752679308 0.27676887048339166
0.86295662838507 12.998430186731825 6809.77135697863 19.611605680635485 0.280718285288542
0.887441196789097 13.003380392218709 5951.430278749374 20.517768863977018 0.2847364605057092
0.9122021536129784 13.008877469824581 5207.62899137673 21.463724843112974 0.288826412288957
0.9372277444432738 13.014771664056454 4562.570527819742 22.450915415258425 0.29298771678884333
0.9625159188110258 13.02099172587352 4001.7856060874287 23.481452315224974 0.29722486018709493
0.9880391939799825 13.027366841474507 3514.0370826629837 24.55771857302142 0.30154361097403126
1.0137880954382745 13.033821607009218 3089.9644128232985 25.681606205879312 0.3059452213095455
1.0397568030883586 13.040280489416528 2719.446277650758 26.855179370391184 0.31043170672077347
1.0659128233141038 13.046607648737753 2396.619281251764 28.081488089546387 0.31501143768528234
1.0922480492843898 13.052741581702763 2114.1751472618257 29.36252721546737 0.31968443935563656
1.1187516633382768 13.058571719809816 1866.9715353498316 30.70117596787955 0.3244562355911945
1.1453877655593112 13.064036185085728 1650.7087270817487 32.100709556063784 0.32933403595631966
1.1721547397087433 13.069031706562727 1460.9913938995212 33.56320391735726 0.33431640810137736
1.199015103099745 13.073488782281661 1294.3914118162077 35.09314055164069 0.3394165005065773
1.2259651078238483 13.077358360525702 1148.1457588614066 36.69246589869908 0.3446305988438364
1.2529651106411739 13.080512482378545 1019.388895825608 38.366308767859266 0.3499736088460612
1.2800114076535085 13.082951733465794 905.9609455524804 40.116997331247326 0.3554426039090668
1.3070654712325178 13.084553659362042 806.0993569856988 41.949840430523075 0.3610511874987809
1.3340996830224439 13.08524064949765 717.9523225126395 43.86849743288821 0.36680226717008135
1.361109745401022 13.085028271239702 640.0685608817811 45.87748435567001 0.3727026268841951
1.3880508631489603 13.08377988694183 571.3024603783476 47.98222569095056 0.37876271727728666
1.414896923490074 13.08144768874809 510.3818298389647 50.187585470812756 0.3849887217705366
1.4416306843380355 13.078000474796674 456.48970221158356 52.49858803141398 0.3913865828366028
1.4682265926771716 13.073394284705952 408.64961209819097 54.921753781928025 0.39796851603570693
1.4946381857911133 13.067516861070256 366.212211147901 57.46327869249229 0.40474359262529075
1.5208515622385474 13.060360839627563 328.5523817722611 60.12979738877887 0.41172159479078013
1.5468366605729296 13.051861628270963 295.0354296943089 62.928422645754345 0.4189130741956588
1.5725546044467957 13.041966875098879 265.2076693495131 65.86678866357344 0.42632941531390994
1.5979684596569974 13.030620755020795 238.68214543451367 68.95309850968435 0.4339829041046014
1.6230768762802044 13.017801460836665 215.02899269096628 72.19617615897361 0.4418868026569527
1.6478197708056046 13.003434565635478 193.91002244827664 75.60552361792692 0.4500554305101863
1.6721677417540797 12.987488482277714 175.0797526126617 79.19092295068849 0.45850232963144916
1.696104597620883 12.969923020796868 158.2169805164376 82.96290540352938 0.46724216918802397
1.719584339812071 12.950690730926517 143.14303939717058 86.93406232705661 0.476295841072398
1.7425582440801164 12.929702271801759 129.6526151604443 91.11580610852204 0.48567699560486555
1.7650449694904193 12.907067759742851 117.56505722381586 95.52259568823982 0.49540898892866303
1.7869558013931441 12.882584176109972 106.72904901589969 100.16775170367956 0.5055079351508617
1.8083042953432236 12.85633566095197 96.99405265166865 105.06799874793221 0.5160002764504423
1.8290089681463455 12.82817716105871 88.25068509264165 110.23989873748883 0.526908580270154
1.8490881131354657 12.798190867378025 80.39273703987213 115.70132514113547 0.5382570585805015
1.860989826465784 12.771300854887688 75.53446876089168 122.84850176386091 2.084810281244544
