M[M_sun], R[km], Lambda[1], P_c[MeV/fm^3], rho_c[fm^-3]
0.24162668629717493 15.618656898711224 2160425.4255784233 3.5677272577965504 0.1711233750220791
0.25364501799970013 15.277245766396488 1723265.0420115748 3.7848400997055207 0.17388842849724037
0.2660419041314237 14.981232454994581 1383010.8817204284 4.011444568351989 0.17666718176525723
0.2788180411078146 14.723466725149871 1116425.8664725802 4.247796119055815 0.17945830180781694
0.29197407677611914 14.4983649171251 905825.73500086 4.494520205918675 0.18226835977117187
0.3055113687028362 14.30112514359462 738599.9016985643 4.751773294666592 0.18509307876655715
0.31942838451766586 14.128072742269639 605037.0378781907 5.0202363126813 0.1879390476836308
0.3337285421601258 13.975858154492325 497636.95468892466 5.300135142634955 0.19080292521102346
0.34841095481234297 13.841943465813735 410954.817715204 5.592196366135041 0.193690966652984
0.36347478004821604 13.723915045610859 340625.53754413297 5.896589854591779 0.1965982827573299
0.37893045472824594 13.619914360756223 283266.1139273109 6.214178668086306 0.1995325326086914
0.3947644110352241 13.528371397864994 236373.4340879692 6.545217776100716 0.20248985083384696
0.4109909054093178 13.447788657956218 197835.39513611444 6.890414537057428 0.20547403216568938
0.4275993950317253 13.376999624220597 166058.63425812 7.25047198412952 0.20848811130426445
0.4445973208358256 13.314868745368651 139777.82501545313 7.625645699902633 0.21152758027256421
0.4619792296494321 13.260502131815324 117948.16330790646 8.0168915308698 0.2145987061463274
0.4797473232408508 13.213100683730392 99790.70454366876 8.42491155184668 0.21770308649841483
0.4979063385149067 13.171936196263035 84623.20829278434 8.850142168683588 0.22083812403782385
0.516447561974995 13.136345964906727 71924.1335512445 9.293465684466005 0.2240073529107517
0.5353673322009795 13.105802855583972 61258.02618572068 9.755763007807548 0.2272136323902897
0.5546770311090126 13.079782568411675 52292.269659307676 10.23784258618744 0.23045829558627973
0.5743618697287528 13.057802018510971 44717.62798263456 10.740173230938204 0.23373800850540727
0.5944208205831337 13.039494819165167 38318.74774699004 11.26400877046883 0.2370590714132925
0.6148607795847953 13.02447117216474 32891.663716475625 11.810282298729701 0.24042303776102006
0.6356669714779264 13.012436273340304 28284.45850702536 12.37997318854002 0.24383154115868627
0.6568395845382827 13.002999071820852 24363.10168829261 12.973761582647063 0.2472824307061721
0.6783731553970868 12.99596779653044 21020.679678908004 13.592992232799574 0.25078069116989954
0.700264285422513 12.991045365913774 18166.866935432827 14.238854807803577 0.2543288637281437
0.7225013131748121 12.988000326940401 15723.817278289662 14.912539475243808 0.2579289339184909
0.7450917697038825 12.986641339884276 13629.040943503573 15.61506313520581 0.26158066817236725
0.7680159234209007 12.986755623595386 11832.285745366897 16.34771791424075 0.2652862185455609
0.7912633012272715 12.988134241770677 10217.972704031838 17.112108155914207 0.269050151812974
0.8148401381459858 12.990677129812267 8953.11474740033 17.90968953768636 0.27287490179747004
0.8387248548925589 12.994137043370094 7804.753907053806 18.741807992961494 0.2767613733917834
0.8629096397663799 12.998413994194909 6811.636666616085 19.609847367283876 0.2807103968454435
0.8873924119844401 13.003366003525315 5953.104997424151 20.515875531826975 0.28472816363066195
0.9121513172602218 13.008861119110234 5209.165671830261 21.46168744722237 0.28881768874975683
0.9371735004913725 13.014754339363055 4563.454145264008 22.44874244384264 0.29297869150268446
0.9624595827141564 13.020968116775464 4002.883758442987 23.479116492724675 0.2972153737178807
0.9879826148097096 13.027358904486169 3515.0417445770663 24.555208901688726 0.3015336412412234
1.013727219440245 13.033806480198216 3090.5728267585937 25.678932401863705 0.3059349025849037
1.0396934772401645 13.040268556185502 2720.236386626805 26.852308737948377 0.31042086198831803
1.0658479924381998 13.046598429174924 2397.165277207932 28.07840718730602 0.31500004008821625
1.0921827588860327 13.05273123672637 2114.7110028936145 29.359246964657423 0.319672632466805
1.1186837117435253 13.058559592677733 1867.6126010008625 30.697657195651765 0.32444382289415025
1.145317278586667 13.064011312358403 1651.3643386894264 32.09696374917764 0.329321165732806
1.172082418272416 13.069021581703128 1461.3665326668668 33.55918712639678 0.33430287110169205
1.1989415223666298 13.073484074997074 1294.8492701731193 35.08883381236507 0.33940225928735246
1.2258891062309927 13.077342911447781 1148.5008304905036 36.68788171157693 0.3446158109657972
1.2528866149159053 13.08051028313851 1019.6827079519439 38.36142852406885 0.34995824142621734
1.2799319257041664 13.08294206609519 906.2641323660794 40.111765546150984 0.3554264185138052
1.3069847388245142 13.084548792334195 806.3891196184615 41.94426962125979 0.36103434609840407
1.3340168351761956 13.085237797400314 718.1743981973302 43.86252512338881 0.3667845143775981
1.3610264759702728 13.085031351247988 640.2922786048352 45.87112306295307 0.3726841291090905
1.3879597903494212 13.083768150623582 571.5338506959824 47.97544823627001 0.3787434264534559
1.414811544968218 13.08145645056605 510.60043571132144 50.180317514631064 0.3849683561563702
1.4415433123431693 13.0780167951975 456.65610005550957 52.490841114433664 0.39136531270509384
1.4681371585897482 13.073412748059907 408.79696549373995 54.91349359138322 0.3979462810883232
1.494549350269658 13.067538059918604 366.3369758567162 57.454468135732554 0.4047203279012551
1.5207617450564987 13.060388702159774 328.6782019038675 60.120396344327446 0.4116972302841073
1.5467456261908779 13.051893017636345 295.1318228980573 62.91838768952158 0.41888753443423205
1.5724631241835862 13.042005229589638 265.3262751892624 65.8560727674592 0.42630261889652593
1.5978768065904185 13.03066479369786 238.7868819601702 68.94165070946309 0.4339547631914257
1.6229749424987354 13.017842730383926 215.1208532311696 72.18394118797828 0.441857222408294
1.6477277221635351 13.003492826838007 193.9859334857936 75.59244150261213 0.45002430846787655
1.6720757209696542 12.987552152528107 175.14837263459344 79.1769968994017 0.45846984031312144
1.696012789040002 12.969990430208373 158.27226687385252 82.94799949901764 0.46720791546286905
1.719492552914259 12.95077086617356 143.20244154617126 86.92506201945864 0.4761889458096405
1.737482848310193 12.929122168683383 131.99612576994392 91.45627484223688 0.8504159457187791
1.7458657527749513 12.899113033376969 125.18983717032104 96.9711149652145 1.2159985219336982
1.7471841045079923 12.859139150298356 120.88698044831318 103.46891849143591 1.5668437973953584
