M[M_sun], R[km], Lambda[1], P_c[MeV/fm^3], rho_c[fm^-3]
0.24162668629717493 15.618656898711224 2160425.4255784233 3.5677272577965504 0.1711233750220791
0.2536437960827529 15.277300365215863 1723256.9295530734 3.7848164472287222 0.1738881336805274
0.2660395866900164 14.981253948069467 1383021.0350805514 4.011394845908558 0.17666658089887255
0.27881432513413984 14.723547383701705 1116483.9957147215 4.24771864423512 0.17945740321664896
0.29196792580371045 14.498460873381093 905885.8587565883 4.494412945491961 0.18226716540142657
0.3055047794959345 14.301189503179373 738688.5518056322 4.751632606380416 0.18509155906455882
0.3194218764648024 14.128107644130582 605155.4710090655 5.020061159950926 0.1879372304064504
0.3337182543809655 13.975969824216808 497657.94761636126 5.299920913862933 0.19080076828275902
0.34839821279800537 13.84205019000652 411019.705739106 5.591942526199976 0.19368851068178328
0.3634593758678706 13.724039404671235 340665.19353385 5.896290700269797 0.19659547303663003
0.3789136684109923 13.62001597168421 283313.45589652297 6.2138305788445685 0.19952935845393346
0.39474511410280816 13.528478467502556 236418.14027147277 6.544821113100958 0.20248637263520455
0.4109703699696117 13.44788285340545 197878.18795301166 6.889961642286977 0.2054701751237743
0.42757725742996183 13.377077354418267 166082.80211133705 7.249958607278834 0.20848386426914592
0.44457216305676445 13.314942445630917 139805.41970886895 7.6250732596669915 0.21152302328021064
0.46195311989460286 13.260584569093481 117985.83654864425 8.016250041930878 0.21459374371076329
0.47971534009634187 13.213186711487252 99818.17904480993 8.424196011496253 0.21769770663528668
0.4978732288891992 13.172025543352976 84648.2951595619 8.84935521504439 0.22083242615723664
0.5164127301336975 13.13639950234789 71944.80317922926 9.292594581401476 0.22400122029087044
0.5353294872739466 13.105859151719056 61280.58257186002 9.75480184844697 0.22720705178453587
0.5546368390547898 13.079813528873888 52304.14616832665 10.236786526140019 0.2304512714490278
0.5743168309768883 13.057864674392658 44734.09878859877 10.739024022002663 0.2337306302280607
0.5943735232176506 13.039546358712077 38331.030095081456 11.262750550532925 0.23705121003236385
0.6148092974108421 13.02451101470179 32904.64378552644 11.808907634107511 0.24041467750653986
0.6356135835356028 13.012434935117552 28294.743369046333 12.378474181746066 0.2438226654282285
0.6567820071118242 13.003040642962127 24372.66371140069 12.972145117405454 0.24727319165371384
0.6783131795864173 12.995986626119654 21030.05906118562 13.591235353385468 0.250770909336018
0.7002003497353197 12.991070815721487 18174.228408916566 14.236948093179473 0.25431851970825065
0.7224348419312437 12.988003900058137 15731.056608699522 14.910472899013543 0.25791800715095975
0.7450209364292164 12.986649540570244 13635.268484574854 15.61284619152278 0.2615693366268165
0.7679409942156112 12.986751004660764 11837.579623491445 16.345320578897603 0.2652742684301478
0.7911846141474062 12.988140304300817 10289.78755582754 17.10951839595749 0.2690375586872708
0.8147569027897029 12.990674343869333 8957.075857323587 17.906894522341616 0.2728616396495124
0.8386409279202 12.994126610713325 7808.3440996988575 18.738820119690136 0.2767476456600687
0.8628206325992603 12.998396931707418 6815.405151488442 19.60662778352544 0.28069595260360464
0.8872941767493493 13.003343307648093 5956.195506771286 20.512408740202076 0.28471297161222714
0.9120540597691886 13.008844760937981 5211.825869890859 21.45795688906052 0.2888017155800289
0.9370732665207969 13.014732412251456 4565.780911249513 22.444763660025192 0.2929621658998827
0.9623509620831623 13.020929236180121 4005.0807709310607 23.474839548357007 0.29719800377599964
0.9878757036635732 13.027327866126736 3516.9755093889894 24.55061366349426 0.3015153865413388
1.0136176171997644 13.033780810967745 3092.186108091102 25.67403665836121 0.3059160089678606
1.0395797121547006 13.040238055230475 2721.772433516869 26.84705263271823 0.310401005369223
1.065730305916911 13.046564319601272 2398.6351605360114 28.07276611412887 0.3149791713056073
1.0920618477203496 13.05269983716213 2115.9273632805734 29.35324091771526 0.31965101438554483
1.1185573226211232 13.058534690985077 1868.8019931987317 30.69121446268816 0.3244210957361425
1.1451884305386462 13.063985879152956 1652.3385216280471 32.09010535929957 0.3292976009807092
1.1719519510085379 13.069005151216983 1462.2743717479477 33.55183262447481 0.3342780856719342
1.198805377137933 13.07345866303985 1295.6644684466867 35.08094848314374 0.3393761846413351
1.2257515805771704 13.077329287094788 1149.256987683448 36.67948843928403 0.34458873556863095
1.2527456361430567 13.080491456097324 1020.3251070071548 38.35248845614073 0.3499300770002229
1.279786780956227 13.082936735942258 906.8229922091581 40.102186689424535 0.3553967847311828
1.306828787323862 13.084526963880885 806.8451686075759 41.934070102263235 0.3610035114072571
1.33386606414011 13.085234053214556 718.6990313402366 43.85159057783252 0.3667520112532743
1.3608731394589768 13.085032913737427 640.6946229434901 45.85947640417558 0.37265026220744457
1.387803809713522 13.083781627102647 571.8861945976147 47.96303971334796 0.37870810779166136
1.4146597859285397 13.08149091015837 510.8915245356866 50.16701105076045 0.3849310699782021
1.4413823270203079 13.07803759873649 456.92819337350954 52.4766578350598 0.39132637073394877
1.4679775717233523 13.07344045374037 409.0760118541475 54.89837068844403 0.3979055729534057
1.4943861454811234 13.067579403101345 366.5982756018417 57.43833771333104 0.4046777346990338
1.5205970728384475 13.060438265834975 328.8841138209949 60.10318496317403 0.41165262387753965
1.5465800580550915 13.051952707824043 295.33603151974637 62.90001586591768 0.4188407766825354
1.572296570142924 13.042075204052276 265.5108056693812 65.83645442175676 0.42625356080803556
1.5977202905406982 13.030750132347965 238.9581814567127 68.92069255832597 0.4339032439912236
1.6228070206967562 13.017932524543289 215.27292235686454 72.16154207406404 0.44180306851127454
1.6475591226272166 13.003596574012954 194.12891048647242 75.56849165451015 0.44996733234681296
1.6719082573376671 12.98766590504343 175.26253750534804 79.15150218615531 0.4584103614387961
1.695846041067346 12.970121933808196 158.39350113404942 82.92071115277848 0.467145206922688
1.7193259997438108 12.950915928023411 143.3020578679851 86.88887734351884 0.4761935193161198
1.7423123621916254 12.929978985607733 129.79860332900307 91.06761158585081 0.4855697805316882
1.7647919217612795 12.907336674839971 117.6979540638611 95.47092725783789 0.49529561685536133
1.786718253779006 12.882905296726651 106.83984804532663 100.11256437347967 0.5053888432865248
1.808058924262702 12.856654835131893 97.10043920786649 105.0090062902851 0.5158750058429756
1.8287701776833376 12.828525107195038 88.34217307937645 110.17678894419166 0.5267766344800644
1.848849853963758 12.79856514052028 80.47991706011021 115.63349928008051 0.5381169537564673
1.8682377220644393 12.766662754083026 73.392297719578 121.39941721986062 0.5499255726705444
1.8869078594829503 12.732819066405872 67.01928622444379 127.49592058280746 0.5622321381344516
1.9048315794781652 12.697010893810118 61.26742064813467 133.9454834572868 0.5750660815199042
1.9219754541314045 12.659200010355686 56.08343558798955 140.77369141877813 0.5884633714156255
1.9382909515406292 12.619319954394113 51.399807029874175 148.00826255932833 0.6024624386621875
1.9537893393433998 12.577483164911794 47.16922805544209 155.67774853077324 0.617099248537263
1.9684082831853464 12.533562610214531 43.34595959610017 163.8157242905743 0.6324211745512888
1.982125235871212 12.48757039507671 39.886281809375234 172.4558935285911 0.6484695693608681
1.994917027498051 12.439502687390217 36.75091208846016 181.63764848761463 0.6652979742355173
2.006755837620527 12.389349893881871 33.90816602204551 191.4029199716788 0.6829605947774859
2.017605437302186 12.337085510117497 31.332120092082658 201.7977249241321 0.7015166419140616
2.0274448377244325 12.282707891176367 28.996402606388138 212.87205613465957 0.7210289709972599
2.0362581289014012 12.226251168059989 26.873817866072176 224.68125412198262 0.7415674750762036
2.0440062070570493 12.167666011355948 24.945858486832332 237.2865859618705 0.7632096730361345
2.050669162250715 12.106969902365368 23.191343815284792 250.75482833698075 0.7860379210499489
2.0562445595000667 12.044234090956516 21.59677030197385 265.1590056762782 0.8101401920300085
2.0606952406390993 11.979393734616016 20.144682563022688 280.58098347717987 0.8356166519197155
2.064005361811503 11.912504779789524 18.823988642482853 297.11028916602334 0.8625736839614656
2.066170429392388 11.843616315699078 17.62127354731441 314.84733097797516 0.8911319579689153
2.067167098642667 11.772735332865588 16.525882132454456 333.90152856612804 0.9214174756425226
