M[M_sun], R[km], Lambda[1], P_c[MeV/fm^3], rho_c[fm^-3]
0.24162668629717493 15.618656898711224 2160425.4255784233 3.5677272577965504 0.1711233750220791
0.25364366164059926 15.277280031723478 1723238.7690852736 3.784813460861398 0.17388809645689937
0.26603819026729497 14.981296714059521 1382908.8047769025 4.01138856797242 0.1766665050337193
0.2788148418096685 14.723513953735209 1116419.4604057611 4.247708862341923 0.17945728976142886
0.29196742332065523 14.49845912638239 905933.3214411623 4.494399402961668 0.1822670146022087
0.3055037409136798 14.301224953104894 738647.245131453 4.751614843386592 0.18509136719032435
0.31941872104929026 14.128165633216792 605121.5584657723 5.020039045651787 0.1879370009620615
0.33371562437225566 13.976018317630718 497692.9758071774 5.299893866056549 0.19080049595622917
0.3483966068940863 13.84206374813961 411028.0005221379 5.591910477359845 0.19368820060043868
0.36346353788935987 13.723930874707195 340670.66664607904 5.896252930383402 0.19659511829386406
0.37891165019528245 13.620028671103167 283323.48749250406 6.213786630852171 0.19952895770115964
0.3947428612543395 13.528482680917758 236425.2291838381 6.544771032636977 0.20248593349719082
0.4109672477248437 13.447899211495018 197884.80785782763 6.889904462565041 0.20546968815726777
0.4275744045390021 13.37708624968693 166095.48562152704 7.249893791744257 0.20848332806683917
0.44456879096756935 13.314975341567107 139817.93990719554 7.625000987467853 0.21152244794703462
0.46194927370916533 13.260600355622746 117993.02746446371 8.016169052487458 0.21459311719194127
0.4797132241160766 13.213181849202517 99830.06120472772 8.424105673281488 0.21769702741820215
0.4978697687114541 13.172002474070343 84652.81910184752 8.849255861152995 0.22083170679261227
0.5164064048408236 13.13643164485169 71945.34430737236 9.292484604005432 0.224000446043146
0.5353239333731881 13.105866519467797 61281.08683618898 9.754680501891213 0.22720622098178267
0.554630452342863 13.079819209276272 52304.77925577054 10.236653019461322 0.2304503823466288
0.5743112038310999 13.057856798158744 44735.50759010638 10.738878935289026 0.2337296987264169
0.5943659312604099 13.039548401595463 38332.482702490764 11.262591701931239 0.23705021754342592
0.614803088074509 13.024513461436122 32906.11414177804 11.808734085242916 0.24041362203988323
0.6356040407449618 13.012454090818682 28298.483460325977 12.378284935701995 0.24382154488835894
0.6567749014524165 13.00302557747041 24374.379752699606 12.971941043227908 0.24727202524939954
0.6783059618813091 12.99598886566293 21031.088793171333 13.591013553235916 0.2507696744122091
0.700193233435905 12.99106783986683 18175.0739140645 14.23670737783646 0.2543172138157667
0.7224256986420406 12.988008567482813 15731.932089748534 14.910212002847398 0.2579166276945838
0.7450124478689037 12.98664080110909 13635.755976956358 15.612566313090545 0.26156790607392155
0.7679312668365674 12.986753062610871 11838.426411012979 16.34501792814971 0.26527275979207693
0.7911747037744001 12.98813473303226 10290.222232248692 17.109191453998065 0.2690359688792339
0.8147489581053651 12.990657558212698 8957.860009486358 17.906541669575777 0.27285996538836865
0.8386292586972565 12.994129066257843 7808.918167137386 18.738442921139708 0.2767459126278973
0.8628092504002006 12.998395657100096 6815.820961888678 19.606221334824156 0.2806941291246157
0.8872836423499465 13.003339361569044 5956.519609958234 20.51197108518464 0.2847110537400812
0.9120406775502967 13.008839763385057 5211.995432264863 21.4574859376107 0.28879969910230213
0.937061132792702 13.014728301535738 4566.125128197151 22.44426137391908 0.2929600796893563
0.9623366130205703 13.020933660845694 4005.1437393406595 23.474299624454368 0.29719581098460396
0.9878624469859726 13.027326872463032 3517.1731682069926 24.55003356051274 0.30151308206758104
1.0136035331934627 13.033783759365154 3092.465971245449 25.67341862175221 0.3059136238455593
1.0395658796284228 13.04023928765502 2721.9626829695367 26.84638910711441 0.3103984986889725
1.0657152348252152 13.046561140037705 2398.7647149608633 28.072053993708405 0.31497653686251836
1.0920454332761722 13.052689415269299 2116.3530984826502 29.352482726294383 0.3196482853619616
1.1185428570426867 13.0585268616072 1868.9676628347793 30.690401148569464 0.32441822671788734
1.1451709404366295 13.063984721787314 1652.4269495839471 32.08923957689564 0.32929462623764544
1.1719337302725985 13.068997350206244 1462.408898541086 33.55090421867082 0.33427495684865205
1.198788508097953 13.073454471441535 1295.6836402766946 35.07995307226634 0.3393728930874201
1.22573302696018 13.077323634419615 1149.2858043922968 36.67842891184505 0.34458531769712414
1.2527280920864199 13.080492337789748 1020.4178982133029 38.351352622257394 0.34992647892748
1.27976814851962 13.082931497278455 906.9078724750264 40.10097750988796 0.35539304393365745
1.3068112538869023 13.084520990316042 806.9170635112665 41.932782579045025 0.36099961902950956
1.3338477371851638 13.085239969418495 718.7535247442287 43.85021027635339 0.36674790828343895
1.3608545863755537 13.085033236336818 640.7751554593144 45.85800621651272 0.3726459871014309
1.38778378632086 13.083778254705159 571.9211861546238 47.96147336020199 0.37870364944497814
1.4146405939037592 13.081491709606055 510.9419569999449 50.165331357449936 0.38492636329244
1.4413622885646304 13.078044629396315 456.9580128335059 52.47486746793538 0.3913214550566177
1.4679561806936428 13.073445920430979 409.11394025545104 54.89646172036313 0.39790043435465233
1.4943652323235386 13.067584043295627 366.62535332671285 57.436301575062544 0.40467235817219144
1.5205761720856197 13.06044215397457 328.9144039672257 60.101012385911545 0.41164699325070003
1.5465592569842608 13.051962157377467 295.35644720398153 62.897696818057454 0.41883487452135865
1.572274787937671 13.042084140034394 265.52707886453555 65.83397803930212 0.4262473683088596
1.597698990283383 13.030759888211158 238.97870670357702 68.91804706819909 0.43389674086341484
1.6227858263326154 13.017945199757833 215.2899517212481 72.15871470952335 0.4417962328476514
1.647538170754632 13.003611460686301 194.14653076343396 75.56546856176735 0.44996014048082006
1.6718867239696436 12.987681146335499 175.2772647708851 79.14828410561478 0.45840285369371225
1.6958276845526263 12.970137178910909 158.40408738260803 82.91726668901552 0.4671372915549926
1.7192897454840146 12.950900533354881 143.32223165200566 86.88518876650153 0.47618516650399
1.742291512000786 12.929999878722384 129.8122225906268 91.06367736019341 0.4855610283277369
1.7647713306360542 12.907358415607309 117.70933080951528 95.46670948630398 0.49528636212283333
1.7866993831910802 12.882929474495926 106.85029267868339 100.10805938361496 0.5053791217138403
1.8080374643102661 12.856680267217072 97.10864346699123 105.00419072292273 0.5158647799755878
1.8287504276688342 12.828552617792406 88.35274631350897 110.17163732021896 0.5267658638047095
1.848830430449294 12.798595236432439 80.48503676911936 115.62796273938369 0.538105517173901
1.868218042062489 12.76669531021656 73.39969776321426 121.39348568956625 0.5499134982485285
1.886889547960327 12.732854896856113 67.02620825563989 127.48956076332207 0.5622193740274903
1.9048140822335398 12.69704798102909 61.27372814060779 133.9386822869295 0.5750526538978743
1.921958177518716 12.659240671398262 56.09043320378814 140.76638647111218 0.5884491385996411
1.9382747875953332 12.619362357302796 51.40541355001495 148.00041009216844 0.6024473340509208
1.9537737442080532 12.57752954910994 47.173607315960155 155.66932636213133 0.6170832876846156
1.968392124236417 12.533610992208162 43.350025714526375 163.80668138623184 0.6324042823308254
1.9821109241946953 12.487621812292605 39.88939493757039 172.44614663284278 0.6484515727835723
1.9949036861336154 12.439556301767958 36.75386168140653 181.62716226949007 0.6652788734438038
2.00674291926041 12.38940661998709 33.911296886982306 191.39162634063484 0.6829402920815115
2.0175944963463968 12.337144772004775 31.33584857963757 201.78554876871127 0.7014950304392684
2.02743433790695 12.282771783301408 28.99827630188045 212.85894521023903 0.7210060342193879
2.0362484012514535 12.226317633717755 26.876309636120492 224.6670870864759 0.7415429870180609
2.043998017069898 12.167735346495645 24.948614654748585 237.27129380209348 0.763183598498953
2.0506618778649592 12.10704339334868 23.193457439815706 250.738288414046 0.7860100715118538
2.056238905879952 12.044310191371155 21.598068552760633 265.14108574470794 0.8101103722227495
2.060691335782157 11.97947275335459 20.14668940197105 280.5616032604915 0.8355848638536406
2.0640023040456335 11.912590109371012 18.825859770501612 297.0892631399527 0.8625396180317645
2.066168429108702 11.843702725365862 17.622702538473103 314.824490319151 0.8910953945665496
2.067165891553089 11.772823966175832 16.527505754802753 333.87672264187074 0.9213782966666415
