M[M_sun], R[km], Lambda[1], P_c[MeV/fm^3], rho_c[fm^-3]
0.24162668629717493 15.618656898711224 2160425.4255784233 3.5677272577965504 0.1711233750220791
0.2536418045638104 15.277350709042905 1723211.439432182 3.784799519377125 0.1738879226830235
0.2660379945021284 14.981279213992137 1383088.4361579816 4.011359260301672 0.1766661508678145
0.2788114694754111 14.723578348539522 1116487.1301126422 4.2476631970755045 0.1794567601131545
0.2919646259966832 14.498523862085024 905997.4067477846 4.494336181927213 0.1822663106213172
0.30549932673096875 14.30128129444815 738690.6181847338 4.751531920076206 0.18509047146031066
0.319413295669288 14.128234692462359 605158.5335613277 5.019935809358458 0.18793592984567267
0.3337099129587773 13.976026360362345 497752.3771109814 5.299767599019579 0.19079922465668178
0.34838919409656877 13.84212575094432 411067.7209874938 5.5917608644527395 0.19368675305440533
0.3634504089936306 13.724079491149526 340699.49708003405 5.896076610548529 0.19659346226066166
0.3789022079689616 13.62008992192513 283350.9106899887 6.2135814705694985 0.19952708688641071
0.3947317394815155 13.528555180275944 236443.91065896925 6.544537245045795 0.20248388349584773
0.4109547164248448 13.447958375768662 197905.76514408365 6.889637534688156 0.20546741488745626
0.42756094566910663 13.37713494912715 166112.2794153963 7.249591219011115 0.20848082496016063
0.44455394876682747 13.315007967813026 139831.81941515795 7.624663606277902 0.21151976217582721
0.46193249551910126 13.260646445507092 118011.4752601511 8.015790978482219 0.21459019248385106
0.47969538242320714 13.213222305341832 99843.19587310735 8.423683958599604 0.2176938567133407
0.4978496108773677 13.172079695380459 84667.97182594206 8.848792060819848 0.22082834868003365
0.516385176279257 13.136463161794444 71957.91483704481 9.29197121278642 0.22399683173695795
0.5353014985186169 13.105899036145596 61295.98336204187 9.754114039227185 0.2272023426785386
0.5546052468734118 13.07986200989449 52316.73220688033 10.236029793316067 0.2304462319036227
0.5742859226720828 13.057879544072588 44743.35446034822 10.738201653627272 0.23372535036835285
0.5943388865644201 13.039566278195199 38342.207185039864 11.261850180144405 0.23704558450188298
0.6147725879050882 13.024535045864713 32913.01585342135 11.807923943249838 0.24040869502487325
0.6355724813269257 13.012450352332449 28072.980159552746 12.377401520179582 0.24381631411949867
0.6567417143856648 13.003043716507339 24383.0879495431 12.970988410928713 0.2472665803938226
0.6782702531954135 12.996003551322351 21036.328878618846 13.589978177612394 0.25076390971813106
0.7001554780809667 12.991076639512867 18179.852569542505 14.235583707989825 0.254311117852008
0.7223865501822754 12.9880055805152 15735.405998995102 14.908994131248841 0.25791018834836205
0.7449704042331454 12.986657342358438 13639.575062912543 15.611259834529765 0.26156122822214034
0.7678874407709876 12.986755916452001 11840.589336032148 16.34360515166517 0.2652657174556381
0.7911288512647212 12.988139340276472 10293.509624185977 17.107665289963453 0.2690285476603361
0.814701023643064 12.990652319465196 8960.462287885786 17.904894558364923 0.27285214996344725
0.8385781258904181 12.994127274547978 7760.857090295551 18.73668216801804 0.2767378228783413
0.8627576022559716 12.998385344632199 6817.693673722516 19.60432404782988 0.2806856171944287
0.887228879461892 13.003329445036073 5958.665595292325 20.509928133797413 0.2847021012103378
0.9119862778137849 13.008831940785287 5213.7332792789875 21.455287566119058 0.2887902863121947
0.937003117430142 13.01471746604049 4567.540188922746 22.44191673938746 0.2929503414123444
0.962277167160169 13.020919084384191 4006.610303796595 23.47177930635382 0.2971855752239382
0.9877990272928519 13.02730641127942 3518.310771474884 24.54732569740726 0.30150232501294594
1.0135386536535154 13.033764369563887 3093.7170631016193 25.670533694676582 0.3059024903563689
1.039497592534988 13.040224452711422 2722.898785133022 26.84329185105809 0.31038679781331324
1.065648292693507 13.046553149923303 2399.437880890009 28.068729912392556 0.3149642396403097
1.0919731499498844 13.052677582381113 2116.872758745166 29.34894359990085 0.31963554667997957
1.1184692624753292 13.058513129314345 1869.6033863103007 30.68660472840875 0.3244048345997685
1.1450963050522958 13.06396548887833 1652.980947375108 32.08519825260594 0.32928074064544044
1.1718564437159595 13.06898487730687 1462.9493925047034 33.54657059175979 0.33426035207914623
1.1987077420526582 13.073447578994124 1296.1319806676115 35.07530669183412 0.3393575287669673
1.2256520630766068 13.077317954675902 1149.6494944122906 36.673483260011054 0.3445693637898781
1.2526438861458888 13.080484813971085 1020.7748757206514 38.34605080407134 0.3499096839297407
1.279683407243213 13.082925253249208 907.2618304405778 40.09533334470126 0.3553755827721635
1.3067236455321996 13.084514493933666 807.2363252481343 41.92677273924797 0.36098145037331636
1.3337590447529635 13.085232443456096 718.9806848423967 43.843767390981874 0.3667287566960999
1.3607643448230264 13.085036151926413 641.0239410532638 45.851143784002666 0.37262603207988265
1.3876936310778598 13.08378688798856 572.1612646902319 47.95416207313892 0.37868283916186185
1.4145475537604024 13.081500011102268 511.1451810426551 50.15749105697229 0.3849043939064827
1.441269140267386 13.07805725994692 457.1419630615363 52.466510598743696 0.39129851022486567
1.4678619520059235 13.073466345831646 409.26948368470386 54.88755128453034 0.3978764490638974
1.4942688607435373 13.067604772350624 366.77581974894775 57.42679757804456 0.404647262383822
1.5204792355940508 13.060472870231296 329.04643722114145 60.09087156827827 0.41162071148805435
1.546461683383418 13.051993561278785 295.4820687465336 62.88687236045794 0.4188073254161853
1.5721767191927203 13.042125816154309 265.6404550722333 65.82241923768369 0.42621846410249886
1.597599495643528 13.030808345934961 239.07533139127764 68.90569897593757 0.433866386857798
1.6226807169564372 13.017974343092929 215.3738332603745 72.14551774271096 0.4417643268006326
1.6474386111035462 13.003671894605489 194.228562719546 75.55135806343723 0.44992657193968777
1.6717868545521155 12.9877520479652 175.34585442388607 79.13326353040547 0.45836781086359546
1.6957258162526594 12.970214832364029 158.46636590390796 82.90118951299267 0.46710034625131647
1.7191884787408855 12.950979214762048 143.38599408135354 86.86797224312298 0.4761461795492283
1.7421937450425578 12.930096938363825 129.86774767828996 91.0453143226663 0.4855201773284302
1.7646755659445095 12.907460913203918 117.75903542250181 95.44702306926773 0.49524316572809246
1.7866035209653515 12.883041211751259 106.89340035984158 100.08703244654689 0.5053337464958751
1.807943821348288 12.85680104720041 97.14920234331039 104.9817142491182 0.5158170511363513
1.828657176405721 12.828685901735438 88.39228261687364 110.14754144697362 0.5267154026321551
1.84873917526647 12.798735202167657 80.51954828949782 115.60212134887655 0.5380521377782915
1.8681296934615286 12.766850547325218 73.43091717341008 121.36580081840033 0.5498571419962082
1.8868035707795099 12.733020331393247 67.05704993783452 127.45987700676845 0.5621597989649381
1.9047303823999908 12.697226583034483 61.300024470353776 133.90693868507321 0.5749899821715091
1.92187718355034 12.659430352473507 56.11259649078407 140.7322916934341 0.5883827090071354
1.9381954572781757 12.619561568786832 51.42668279332135 147.96376000358 0.6023768357820654
1.9536993574128236 12.577750492374877 47.19806238268928 155.63001744109866 0.6170087933443802
1.9683214465025196 12.53383807521376 43.368252513720556 163.76443586819192 0.6323253072904583
1.9820451506481815 12.487865370892285 39.90475606311521 172.400655192357 0.6483675778126465
1.99484022013085 12.439810362758553 36.76878570089967 181.57822042428123 0.6651897251941387
2.0066781794971607 12.389661201974075 33.926388839812496 191.3389163355895 0.68284553467328
2.0175399798259908 12.337427995776517 31.349959929187055 201.72872008712469 0.7013941651351394
2.02738491212787 12.283071033422527 29.01060125486109 212.79775404160267 0.7208989839308099
2.036203755514676 12.226629480734731 26.88809940406697 224.60096718585427 0.7414286971957449
2.0439578174957225 12.168062684461729 24.958392386431612 237.1999231112382 0.7630619049148214
2.050627794352691 12.107385702913504 23.201954748198407 250.6609964984168 0.7858797748130827
2.056205053103118 12.04464519500411 21.606540468910776 265.0574517742042 0.8099712004368
2.0606707014108063 11.979845520751429 20.15567016773634 280.47115447486755 0.8354365067934469
2.063991447520065 11.912992390887545 18.83338338959101 296.9911338177115 0.8623806309468123
2.0661590410836395 11.84410711784739 17.629433118257573 314.71789267229065 0.8909247527000698
2.0671644325881626 11.773245839377587 16.533436172160517 333.76095376163755 0.9211954489678661
