M[M_sun], R[km], Lambda[1], P_c[MeV/fm^3], rho_c[fm^-3]
0.24162668629717493 15.618656898711224 2160425.4255784233 3.5677272577965504 0.1711233750220791
0.25364223190409296 15.277363585372626 1723229.0851278934 3.7848067970086157 0.1738880133951892
0.2660376563964273 14.981322328789924 1383089.4110303712 4.011374559258159 0.1766663357466748
0.27881196231649363 14.7236068829124 1116532.4794630725 4.24768703486484 0.179457036595588
0.2919661682698545 14.498501230271106 905970.4551693229 4.494369183988663 0.18226667810693084
0.305500736477753 14.301276804444425 738736.9429227088 4.751575206886468 0.1850909390404756
0.319415777979974 14.128207438596197 605148.453993234 5.0199896996913695 0.1879364889786764
0.3337134402360812 13.976024951143536 497725.0649513995 5.299833511544425 0.19079988828643832
0.3483927984184957 13.842050800316263 411030.3056546101 5.591838963646364 0.19368750868558798
0.3634555921624387 13.724016181411404 340684.58876041044 5.896168650878132 0.1965943267229151
0.37890720716773557 13.620060978356536 283335.19079775905 6.213688565717152 0.19952806346520638
0.3947382169348673 13.528512661729103 236441.02994794806 6.544659283729364 0.20248495361023644
0.41096181214648275 13.447919183605269 197900.69684892183 6.8897768726681345 0.20546860154816468
0.4275678726842885 13.377109603766367 166105.897813265 7.249749163649976 0.2084821315956802
0.44456211278688623 13.31497676806936 139823.57567555836 7.624839720950339 0.21152116416186117
0.4619416446587824 13.26061634547429 118002.51017248153 8.015988334794976 0.21459171919448594
0.47970460341500876 13.21320289968471 99830.46218460878 8.423904095302941 0.21769551183360433
0.4978604139722771 13.172022949836267 84657.99022008434 8.84903416616793 0.22083010162619743
0.5163966540841283 13.13644845211317 71951.25663690928 9.292239204460806 0.22399871841505295
0.5353132015293259 13.105878633884519 61288.85074187653 9.754409734033754 0.22720436716170472
0.5546178004442319 13.079861414181691 52310.896234509535 10.236355118446422 0.23044839844208112
0.574298601676802 13.057870324189082 44739.87006256747 10.738555195510882 0.2337276202167592
0.5943531848818795 13.039551570558112 38336.61363912745 11.262237255049785 0.23704800295289644
0.614788146001521 13.024526614936182 32910.48338177071 11.808346837510477 0.24041126692756143
0.6355884893177537 13.012445714217083 28301.592142289996 12.377862662753909 0.2438190445788994
0.6567591804546746 13.003029222613467 24376.63991420026 12.971485684198234 0.24726942260391466
0.678289465922442 12.9959826696243 21033.546035151117 13.590518642267 0.25076691888052877
0.7001753576370499 12.991074991293763 18040.997136581227 14.23617026149783 0.25431429993341564
0.72240656780904 12.988009960037376 15733.88679739493 14.90962985722897 0.2579135496712577
0.7449920465225421 12.986657313400103 13637.249469883809 15.611941812538772 0.2615647140413485
0.7679105475830252 12.98674807758567 11757.188260528932 16.344342616113146 0.2652693935309488
0.7911537028024653 12.988122439663888 10291.885401625574 17.108461941488994 0.269032421506936
0.8147242107493402 12.990662992908645 8958.795816118321 17.905754342931626 0.2728562295797387
0.8386064074197611 12.994123765635734 7810.042236973465 18.737601272358273 0.2767420456872273
0.862783603092903 12.99839727873615 6816.75323544166 19.60531442112642 0.28069006037481453
0.8872586714142721 13.003334805625096 5956.940225656303 20.51099454197014 0.2847067743762999
0.9120156348609033 13.008826806010845 5212.882288946384 21.456435101416194 0.28879519972602574
0.9370335391696559 13.014717752228783 4566.730668236884 22.443140621960904 0.29295542472378144
0.9623089526259702 13.020918999696045 4005.8638746719466 23.473094893086117 0.29719091821255694
0.987832574163048 13.027320849995075 3517.795246355862 24.548739179661435 0.3015079401069302
1.013571655807382 13.033777469290456 3093.232967349852 25.67203960154334 0.305908301940989
1.0395330149340944 13.040228477966645 2722.404283642565 26.844908590029032 0.31039290556202004
1.0656824848003317 13.046553408107114 2399.22558051898 28.07046505012078 0.3149706586692621
1.0920109919942125 13.052680209554042 2116.4750274625353 29.350790987380584 0.3196421961406049
1.1185077646453065 13.058520812899776 1869.2693857086433 30.688586418340634 0.3244118251394135
1.1451352564777124 13.063987464705844 1652.7137791423715 32.0873077778851 0.32928798876651977
1.1718966284391612 13.068993984596828 1462.6778269220677 33.54883269306885 0.33426797559379023
1.1987500517148597 13.07344721058945 1295.9065409488599 35.07773204389853 0.3393655487487299
1.2256945600217777 13.07731891105513 1149.5114796417577 36.676064825515354 0.3445776915205772
1.252687910193305 13.0804824574858 1020.5750470335752 38.348818280434685 0.3499184506881687
1.279727489701195 13.08293281239331 907.056815592121 40.0982795186088 0.35538469724998034
1.3067699125586127 13.084517202826142 807.0891902022581 41.929909786967194 0.3609909341438322
1.333805440879489 13.085234010188822 718.8682439251772 43.84713047791272 0.3667387535297188
1.3608114100515203 13.085033759656454 640.8910196315078 45.854725864379375 0.3726364482830293
1.3877414910850912 13.083782234960681 572.0556610515721 47.9579784444239 0.37869370178649037
1.4145963157181376 13.081494266757272 511.0425208951338 50.1615835592027 0.38491586154873536
1.4413183650727233 13.078046107412145 457.0727375001536 52.47087273620901 0.3913104870199937
1.4679105125630096 13.07345613261393 409.1836189122613 54.89220236877827 0.39788896894621356
1.4943194982293992 13.067594120580438 366.68860603872474 57.43175848471067 0.40466036191063975
1.5205302271102978 13.060457452283227 328.9736096235189 60.096164877106304 0.4116344300550634
1.5465123840091755 13.051976588806292 295.41725334345864 62.892522509288646 0.41882170549416625
1.572228780609783 13.042102198546884 265.580857845221 65.82845269197028 0.42623355149767395
1.5976515318609943 13.030783949094168 239.02576038421816 68.91214441552987 0.43388223099837003
1.6227323189990248 13.017941792414222 215.33652042193407 72.1524062678689 0.4417809810523788
1.6474905748613096 13.00363965946828 194.18639148361834 75.558723422276 0.44994409395381857
1.6718395060442974 12.987714021939832 175.30827955457292 79.14110391993954 0.4583861024026786
1.6957772247988587 12.970175550975302 158.43513219593447 82.90958141200488 0.4671196308108054
1.719241819635146 12.950939296800449 143.34701827662985 86.87695884144523 0.47616652977293766
1.742244880279887 12.930045147928068 129.83795010060476 91.054899361257 0.4855415005111686
1.7647254886559716 12.907406285258137 117.73287834916356 95.45729886316151 0.4952657131143687
1.7866517239174806 12.882984068344735 106.86960423049618 100.0980079425179 0.5053574311400222
1.807992937800607 12.856737950964527 97.12785503086234 104.9934463485577 0.5158419642741026
1.8287054678872088 12.828617155806201 88.3723254486414 110.16014184296596 0.5267418276588512
1.8487867568131346 12.798663937050094 80.50005278873094 115.61560980126966 0.5380800002664287
1.868175333695117 12.766770827753605 73.41654331284084 121.38025149261469 0.5498865582733272
1.886848796240516 12.732933990868867 67.0398306389487 127.47537101571119 0.5621908953172573
1.9047741257673312 12.69713162390192 61.2868880693848 133.92350784711678 0.5750226948420623
1.9219196173989088 12.659332625895214 56.100506705314615 140.75008806635083 0.5884173831091959
1.9382363823852962 12.619458128456307 51.41438339794788 147.98289013411997 0.6024136335399424
1.9537480490840002 12.577666783087828 47.18411710698323 155.65053536217397 0.6170476768586908
1.9683577677720239 12.53372047207256 43.3585794428573 163.78650548789037 0.6323665935850501
1.982079638319259 12.487736822109133 39.89787276679473 172.42440009623687 0.6484114201814467
1.9948746825489876 12.439678056987217 36.76246848002102 181.60376627156714 0.6652362573091832
2.0067078479973492 12.389519496567338 33.91975611436478 191.36642897441473 0.6828949944740607
2.017568708633688 12.33728051128727 31.343182066287138 201.7583824645742 0.70144681292916
2.0274099329072164 12.282913313402842 29.003496678261513 212.82969341197406 0.7209548599484028
2.036227303796748 12.226466205568713 26.88183992462244 224.6354790898505 0.7414883518434142
2.043978364010331 12.16789151978825 24.952550436298303 237.23717564244095 0.763125423902598
2.050646083095606 12.10720661657173 23.19798366600884 250.70133957517714 0.7859477841213958
2.0562201270903744 12.044458948972313 21.602727391151372 265.10110504095354 0.8100438420088724
2.0606809001194053 11.979651085238896 20.15022149068144 280.51836467982184 0.8355139425176509
2.0639995110358926 11.912789294329217 18.829531506216355 297.0423528013263 0.8624636148777428
2.066163486898027 11.843895565439627 17.62555908526843 314.7735315994345 0.8910138196790923
2.0671655148024026 11.773025056278135 16.530380166334655 333.82137949771175 0.9212908865912215
