M[M_sun], R[km], Lambda[1], P_c[MeV/fm^3], rho_c[fm^-3]
0.24162668629717493 15.618656898711224 2160425.4255784233 3.5677272577965504 0.1711233750220791
0.2536442110202963 15.277265944188278 1723222.3863285931 3.784822818811604 0.17388821309923427
0.2660406161625798 14.98125401924691 1382987.0084791093 4.011408240262394 0.17666674276173383
0.278815578920028 14.723495775946914 1116441.9814837258 4.247739514527138 0.1794576452805855
0.2919702532369231 14.498404843504666 905810.7756403633 4.4944418393904115 0.18226748714169175
0.3055056699038435 14.301204541726943 738636.294031291 4.75167050498487 0.1850919684418175
0.31942182976436145 14.128137948796361 605138.7223311145 5.020108342447925 0.18793771994306754
0.33371990267313395 13.975943621968081 497703.28413290886 5.299978622457607 0.1908013493125515
0.3484016431556617 13.842022228647133 411003.5609766925 5.592010904992518 0.19368917226541146
0.3634632677689699 13.724007451341963 335713.7447668367 5.896371285505777 0.19659622991022002
0.37891773027402126 13.619993749753283 283300.5601421425 6.2139243457388345 0.1995302134951065
0.39475004419534226 13.52845090505018 236409.4359997391 6.544927964315488 0.20248730957600705
0.41097526343815466 13.447895716643634 197865.74020018193 6.890083640601921 0.20547121411261896
0.4275839572869559 13.377048063290847 166087.723442067 7.250096897531579 0.20848500830896613
0.44457878677426854 13.314924996970475 139799.18704208214 7.62522745965248 0.21152425081124537
0.46196048276393403 13.26058271541444 117980.39432767687 8.016422841293549 0.21459508045353584
0.47972551582550116 13.213144871681756 99810.30200277655 8.424388757721674 0.21769915581744756
0.4978824647548124 13.172006153925572 84643.67243021137 8.849567197459713 0.22083396100049668
0.5164203795233444 13.136409748189234 71936.94795835909 9.292829230577954 0.22400287223570153
0.5353393099755771 13.105870834508327 61274.11200516787 9.755060755392401 0.2272088243985317
0.5546463142289909 13.079806970436804 52298.991502776626 10.237071378539683 0.23045316845488828
0.574328429715193 13.057841913651801 44728.932227196565 10.739333582179874 0.23373261770028814
0.5943860293079688 13.039531048209037 38327.227801836925 11.263089473872302 0.23705332763152154
0.6148231541837053 13.024509638818857 32901.156448785754 11.809277922837655 0.24041692947983223
0.6356271279409357 13.012449303077803 28291.74851935163 12.378877963010883 0.24382505624705925
0.6567978520350987 13.003037367992953 24371.204924961985 12.97258053697539 0.24727568033342337
0.6783290576238382 12.995979343855268 21027.438759817513 13.591708594379526 0.250773544215084
0.7002182682354813 12.99106594138342 18172.356638894908 14.237461693079066 0.2543213060127722
0.7224528924510429 12.988001653114425 15729.504701245327 14.911029558339864 0.2579209504186523
0.7450403813895174 12.98664604871995 13633.927134581507 15.613443352954107 0.26157238891994056
0.7679613263254111 12.986759960097956 11836.438046582954 16.345966329328334 0.2652774873340852
0.7912061221904259 12.988135974564502 10288.83447825537 17.11021597632799 0.269040950784392
0.8147803792969875 12.990670586258856 8956.190880712928 17.907647388464788 0.27286521194543434
0.8386616729636429 12.994136107209238 7807.412687796012 18.739624932290525 0.27675134335754625
0.8628441382905176 12.99839623505226 6814.334236626949 19.60749500721936 0.28069984328938985
0.8873241009938775 13.00335534493504 5955.191392464834 20.513342548981214 0.28471706370708666
0.9120809865363745 13.008847528241525 5180.416978221264 21.458961742744293 0.2888060180725102
0.9371002041041918 13.014738991317369 4565.1125019215815 22.44583537273954 0.29296661718435746
0.9623840895223327 13.020948030860614 4004.5191842011714 23.4759915694443 0.29720268247593395
0.987904910632479 13.027330676624908 3516.577279380362 24.55185141548539 0.3015203035424111
1.0136467598963916 13.033793406334437 3091.8232450763035 25.67535535006113 0.30592109805309625
1.0396111744905603 13.040246513884865 2721.371649615229 26.848468385516334 0.3104063538283603
1.065761194483552 13.046574000737957 2398.043214778352 28.074285555194002 0.3149847923788109
1.0920938540638636 13.052704020074685 2115.7430592165474 29.354858661853452 0.31965683727114236
1.1185924229210635 13.058537476960915 1868.5641871637872 30.692949824235882 0.3244272173364507
1.1452240459496716 13.063988706492271 1652.0937992566871 32.09195267437271 0.3293039481733473
1.1719862289340732 13.06900837223733 1462.0292717392015 33.553813561957526 0.3342847616354941
1.1988422055580956 13.07347020210381 1295.3834849976724 35.08307239269443 0.3393832078344261
1.2257883208060716 13.07733068040766 1149.0322801365592 36.68174915745825 0.34459602829550934
1.2527833291437398 13.080496012074615 1020.1500106925473 38.354899945042526 0.34993768355673577
1.2798250540514484 13.082936982525059 906.6139271806093 40.10476672880863 0.3554047665111017
1.3068702654480768 13.08452359778067 806.7254036718311 41.9368173082542 0.3610118166271677
1.3339068821011382 13.085238230591164 718.5669012497692 43.854535751227296 0.36676076583173506
1.3609158809102486 13.085031608226934 640.6183444698331 45.862613373840595 0.3726593840891053
1.3878462311776072 13.083776741693168 571.7903497901584 47.96638187821863 0.37871762067175757
1.4147034072269218 13.081482803104311 510.81146663002136 50.170595058789075 0.38494111276366416
1.441425770721892 13.078030456764594 456.8675186570892 52.48047799672262 0.391336859466584
1.468020683977875 13.07343322455447 409.01220729234046 54.9024439190076 0.3979165373575283
1.4944295971751373 13.067568761586955 366.5141981180817 57.442682298221484 0.40468920679680037
1.5206418406943416 13.060421696723798 328.8302261284499 60.107820680651486 0.4116646381776524
1.5466251299209912 13.051935632043763 295.2815293362103 62.904964121990716 0.4188533703876451
1.5723409268108712 13.042056762691558 265.4579615072959 65.84173839870166 0.42626677404285546
1.5977654463967144 13.030728061417365 238.91751822077563 68.92633737833766 0.4339171200535912
1.622852161584232 13.017906538593467 215.23413853717332 72.16757497975765 0.44181765414867563
1.6476043121746518 13.003568930892017 194.093121232645 75.57494220820138 0.44998267806117714
1.671952994116504 12.987634834374397 175.22976451067058 79.15836880768329 0.4584263811882616
1.6958899601230684 12.97008560316586 158.35717884703212 82.92806083658745 0.46716209647467527
1.719370817412292 12.950877288184875 143.2761646603577 86.89674792367256 0.4762113423077689
1.7423532510301023 12.92993858751075 129.77783094558816 91.07600633842502 0.48558845576616844
1.7648357989270314 12.907290382434182 117.67373200087441 95.47992705215925 0.4953153644136588
1.786762990160497 12.882854227212796 106.81870303374734 100.12217704591444 0.5054095870166051
1.8081012423755227 12.856598309396341 97.08365534413288 105.01928168718507 0.5158968256698307
1.8288116005590176 12.828464506179891 88.32760652127642 110.18778143585286 0.5267996168560399
1.8488918003235073 12.79850103616818 80.46023921243521 115.64531313092634 0.5381413570956682
1.8682687925023143 12.766562209218907 73.38863762450225 121.41207392434386 0.5499513370827076
1.8869474553937242 12.732744348147197 67.00540178684867 127.50949120019321 0.562259374255263
1.9048714519935452 12.696929312828434 61.254298215147784 133.95999585968357 0.5750947335082964
1.9220130605568246 12.659114552880844 56.07395046048592 140.78927882165942 0.588493741604028
1.938326580892659 12.619226730002707 51.39053885042346 148.02501830676584 0.602494669176034
1.9538238264834291 12.577385652919727 47.16055655470812 155.69571995745648 0.6171333061897929
1.9684405998388839 12.533457250168132 43.3368440691377 163.83502030177073 0.6324572196605648
1.9821584586187808 12.487458469830784 39.8792795447771 172.47669179113842 0.6485079710786268
1.994946252250572 12.439386494827094 36.74394741070445 181.66002439635042 0.665338732263539
2.006783557699528 12.389227656247204 33.900884486097866 191.42701883121268 0.6830039175862923
2.017630556972386 12.336956331978481 31.326683715168212 201.82370702229764 0.7015627575753829
2.0274685794350544 12.282571640257371 28.99109349580943 212.90003296029397 0.721077914779907
2.036279182946367 12.226109453776413 26.869389773913266 224.71148462225437 0.7416197292156095
2.044024767419974 12.16751627008101 24.940586641926917 237.31921741093274 0.7632653126543616
2.0506846701974797 12.10681321623043 23.18671874759901 250.79009648591764 0.7860972639113072
2.056257384424285 12.044069991785426 21.59285229548396 265.1972446723163 0.8102038239410547
2.0607056134906037 11.979222344814989 20.140899206269513 280.6223386662501 0.8356844840551266
2.064012570370638 11.912329201736222 18.820753359275255 297.155156469488 0.862646377032452
2.0661751545013227 11.843430398147394 17.61822287483696 314.89607067668004 0.8912099806401809
2.0671685468275594 11.772543207328866 16.523411238093413 333.95446211950224 0.9215010799617748
