M[M_sun], R[km], Lambda[1], P_c[MeV/fm^3], rho_c[fm^-3]
0.24162668629717493 15.618656898711224 2160425.4255784233 3.5677272577965504 0.1711233750220791
0.2536439283782302 15.277282005421736 1723164.620780093 3.7848177294974006 0.1738881496633879
0.2660396330596838 14.981262385772673 1382981.1690358073 4.011397541493686 0.176666613473428
0.2788148139387166 14.723543908102744 1116426.5580067586 4.247722844332981 0.17945745193145474
0.29196897140584854 14.498414287948615 905857.2553861397 4.494418760316791 0.1822672301508506
0.30550444996978987 14.301220642047197 738637.9793216054 4.751640233372887 0.18509164145063384
0.31942059227530134 14.128141344945552 605151.0358126863 5.020070655293678 0.18793732892429632
0.33371840037185596 13.975945936915899 497687.87064420147 5.299932527542449 0.19080088521324118
0.348398902411155 13.84204435938692 411016.15910650475 5.591956287213063 0.19368864382337042
0.3634609531982505 13.724068712133066 340665.30974107044 5.896306917776474 0.19659562535488473
0.3789146447691229 13.620012882423508 279392.81364145264 6.213849449099217 0.1995295305279346
0.3947467715358579 13.528485370248296 236409.34560525263 6.544842616511732 0.20248656119106737
0.41097117636696867 13.447900050271837 197875.4660823481 6.889986193974813 0.20547038421625063
0.42757901046734975 13.377067270850489 166081.8005438227 7.249986437632627 0.20848409450253055
0.44457322695458146 13.314949218444621 139808.28294818234 7.62510429176682 0.21152327031567883
0.46195649756861706 13.260553569184026 117983.31373082018 8.016284817048584 0.21459401272441322
0.47971876430645405 13.213163052709271 99816.17446032402 8.424234800801171 0.21769799827663322
0.4978750472048635 13.171997252389666 84645.63890996295 8.849397875514615 0.22083273503726847
0.5164124270841971 13.136417184142967 71941.13619788011 9.292641803413174 0.22400155273677674
0.5353315416683146 13.105850164879723 61278.4079843987 9.754853952175216 0.22720740851423954
0.5546368658839159 13.079818651663196 52301.26084618755 10.236843851215001 0.2304516532116646
0.5743197163070464 13.057845339727827 44734.04763199775 10.739086319347232 0.23373103019631014
0.5943764292347598 13.039527100196672 38330.67958496088 11.262818757003728 0.2370516361876277
0.6148109842586792 13.024516618850821 32903.79315828666 11.808982152632455 0.24041513070350293
0.6356151213636533 13.01245136963554 28294.425111566205 12.378555440390526 0.243823146566692
0.6567849456408857 13.003022964370938 24372.236551796537 12.972232743017106 0.24727369248577746
0.6783163568615151 12.995980944243845 21029.24408454728 13.591330590259322 0.2507714395894161
0.700204525769547 12.991058970142662 18173.801630856036 14.237051451955702 0.2543190804346561
0.7224383566815835 12.988002589015524 15730.891349125886 14.91058492314173 0.25791859946475326
0.74502446153997 12.986657742754346 13634.742158812076 15.612966366361386 0.2615699508808763
0.7679445498763804 12.986761997588308 11837.375169451403 16.3454505318517 0.2652749162130306
0.7911887010457914 12.988131760572212 10289.702997451994 17.109658779228223 0.2690382413235786
0.8147615017822467 12.990664593619345 8957.01965719229 17.90704603137007 0.27286235854901897
0.8386450435476696 12.994121472546608 7808.202584936531 18.73898208247687 0.27674838979527194
0.8628249822430126 12.998399681194277 6815.090975892304 19.60680230595851 0.28069673557569624
0.887299912347503 13.003347809723673 5955.867532566089 20.51259666224504 0.2847137951157572
0.9120599033188771 13.008837621082455 5211.6120110854945 21.458159108195428 0.2888025814238045
0.937078636118997 13.014730109954982 4565.624565542978 22.44497933388727 0.29296306168631975
0.9623569200272373 13.020931791609108 4005.008454564482 23.475071383465025 0.2971989453272582
0.9878812663974597 13.02733308524773 3516.932049689593 24.550862751060375 0.30151637604799153
1.0136221780237478 13.03378984347068 3092.060723489721 25.674302034210434 0.30591703310437124
1.0395870675968968 13.040238653542778 2721.664414289502 26.847337541075056 0.31040208170169176
1.0657366871635185 13.046564980329125 2398.563158636023 28.07307188861894 0.314980302498407
1.0920676196336458 13.052698728555956 2115.893574928196 29.353566474632434 0.3196521861905537
1.1185652241783537 13.058539500526768 1868.7669527146288 30.69156368878294 0.32442232765382106
1.1451951714660789 13.063988968187388 1652.2730327687505 32.09047711478586 0.3292988782959437
1.1719578278838332 13.069003676390158 1462.2335787243344 33.55223126991364 0.33427942914816505
1.1988120214441815 13.073467042632752 1295.510440134674 35.081375900013995 0.33937759799305206
1.2257586789575468 13.07732714660243 1144.0882964842986 36.679943387274854 0.34459020316042493
1.2527531067626303 13.08049312331613 1020.2903738729453 38.35297616955 0.34993162196938604
1.279794366814466 13.08293278449415 906.8344598071618 40.102705896901774 0.3553983909856614
1.3068386778763492 13.084522741571652 806.8550584285895 41.93462294994976 0.36100518274956955
1.3338739815492664 13.085236101619998 718.6858819071088 43.85218326391207 0.36675377302281736
1.3608815869447057 13.085034233621796 640.6960409137573 45.86010768679872 0.3726520978915594
1.3878123449930762 13.08377657367045 571.8717069442541 47.96371228883865 0.37871002215862
1.4146687303216225 13.081486269398853 510.8784755219116 50.167732293922555 0.38493309098102496
1.4413918565585186 13.078035351067834 456.9274399472882 52.47742660096569 0.39132848147709465
1.4679856815932584 13.0734421185559 409.0636497076536 54.899190381010655 0.3979077794183766
1.4943946897895501 13.06757703939855 366.5783719387561 57.43921201219257 0.40468004332972457
1.5206061974095817 13.060434607708123 328.87239336737093 60.104117848367366 0.4116550416182104
1.5465890424666553 13.051948994977927 295.32098769523805 62.90101164502976 0.4188433110195436
1.5723053497668296 13.042072471037809 265.4965488830772 65.83751775981185 0.4262562198157415
1.5977293131706445 13.030745701880756 238.94838463802836 68.92182851071505 0.4339060363825071
1.6228162128638022 13.017929102371008 215.26627967183748 72.16275612286701 0.4418060036931797
1.647568172628042 13.003591410746004 194.11755187656405 75.5697897485955 0.44997042048187935
1.6719175720465207 12.987659402803713 175.25764274886134 79.1528840075696 0.45841358521234654
1.6958545287992894 12.970116220379895 158.38527432923604 82.92219018287032 0.46714860572953143
1.7193348928358942 12.950906538374099 143.29686999258948 86.89046119565883 0.4761971059619468
1.7423208021224181 12.929968916014674 129.7931412009559 91.06930091931605 0.48557353867682707
1.764801019885571 12.90732638757079 117.69314848973929 95.47273834595264 0.4952995907870814
1.7867290284213484 12.882892719084847 106.83480708967514 100.11449879319005 0.5053930176803374
1.8080668696043463 12.856644285177888 97.09490796849975 105.01107407216935 0.5158793967821411
1.8287791011334775 12.828512147875776 88.34406026779301 110.17900102916211 0.5267812593613058
1.8488587553667235 12.798553135789579 80.47462624338004 115.63587664911205 0.5381218645805195
1.8682452905133005 12.766649392860511 73.39079301515001 121.40196419829698 0.5499307573852774
1.8869157721125556 12.73280362549651 67.01488918717918 127.4986514697968 0.5622376190028491
1.904839548183068 12.696993662190865 61.26433468712724 133.94840386156872 0.5750718473047343
1.9219833202786387 12.659182268517858 56.08068050228683 140.7768281469547 0.5884694829549509
1.9382982667011934 12.619299896588114 51.39858796943276 148.01163439478012 0.6024689245554382
1.9537968386134903 12.577462951069553 47.167280081084485 155.6813649986206 0.6171061021058473
1.9684149826486077 12.533540945637613 43.34479052079314 163.81960730550466 0.6324284280554489
1.9821317147437096 12.487547351228761 39.88466910226982 172.46007884175893 0.6484772970840198
1.9949211453438844 12.439479966070872 36.74776503491136 181.64215127052773 0.6653061761170281
2.006761811510104 12.389324985887603 33.90859725543703 191.40776946336777 0.6829693127668561
2.017610297021265 12.337059700389366 31.33227208105169 201.80295337856646 0.7015259219049381
2.0274495367342675 12.282680748620827 28.99455724533886 212.8776859863445 0.7210388200859594
2.0362622423852925 12.226222134294488 26.872987528087194 224.68733747729408 0.7415779903006836
2.0440096955185636 12.167642491655432 24.945537684065282 238.18291159366552 0.7646838969517004
2.046963247733653 12.114859650086627 23.63685354375528 252.4528619374477 1.629558823125145
