M[M_sun], R[km], Lambda[1], P_c[MeV/fm^3], rho_c[fm^-3]
0.24162668629717493 15.618656898711224 2160425.4255784233 3.5677272577965504 0.1711233750220791
0.2536396536349531 15.27740071369354 1723299.3311610701 3.7847559769952914 0.1738873799482395
0.26603236120058327 14.981418214254665 1383227.5744211387 4.011267726859799 0.17666504474018882
0.2788032714038768 14.723750545786977 1116683.0690899377 4.247520577228886 0.17945510593785724
0.2919541734915375 14.498645164322058 906155.0143666712 4.494138734644143 0.1822641119999951
0.3054846812529978 14.30150124001332 738853.9828234296 4.751272942758192 0.18508767401101045
0.3193964633791933 14.128430950203775 605264.8955704712 5.019613395814628 0.18793258468071525
0.33369091397107203 13.976232612136199 497884.7192028729 5.299373262944747 0.1907952543467301
0.34836558076827046 13.842328332383358 411176.41421917017 5.591293622832061 0.19368223236319151
0.36342361744791435 13.724275081309942 340821.0760359898 5.895525968495806 0.19658829051397422
0.3788702438685668 13.6203028304464 283457.1933685529 6.212940766812661 0.19952124443960592
0.3946971818431074 13.528738976166279 236540.04808604656 6.543807146336267 0.2024774815164802
0.41091661956771386 13.448153892326621 197989.13721345295 6.88880394963968 0.20546031572738305
0.4275168274817611 13.377323014103146 166199.6289265651 7.248646328131724 0.20847300812007022
0.44450735153686366 13.315155789483612 139907.8361193215 7.6236100225623575 0.21151137497199937
0.46188050113874796 13.260795364039415 118068.41923685645 8.014610329072958 0.21458105920615636
0.4796385985125203 13.213367699467234 99889.72456508761 8.422367040314185 0.21768395532885235
0.497788232535072 13.17217963784702 84712.26917213101 8.847343730500015 0.22081786214969412
0.5163190737730652 13.136580479514445 72000.0932240912 9.290368037436005 0.2239855452825447
0.5352301824282484 13.105994430962578 61329.35782673299 9.752345152929719 0.22719023194662005
0.5545282870557495 13.079969680039259 52353.01577623738 10.234083670075577 0.2304332714820262
0.5741990558525518 13.057970755548 44369.955013450584 10.736086749922388 0.23371177203145233
0.5942535419038752 13.039649360751968 38031.83173906964 11.259534698833324 0.23703111733274973
0.6146802531568472 13.024590817479194 32936.06984266261 11.80539421077368 0.24039331003065276
0.6354734029940826 13.012497428643739 28324.90681821998 12.374643010142275 0.24379998077687814
0.6566358257121633 13.003081552031093 24398.034603991433 12.96801379050159 0.24724957868326167
0.6781588722183611 12.99602728267444 21051.659931066566 13.586745217860662 0.2507459094643952
0.7000382760163402 12.991087516716021 18193.461586380035 14.232075081048052 0.2542920833796103
0.7222628109966225 12.988013865658997 15747.838823884642 14.90519139618452 0.25789008185462514
0.7448402138520508 12.98664939777265 13650.277287952911 15.607180459559661 0.2615403771632495
0.7677519699615384 12.986741802464834 11850.579947091775 16.339193909540946 0.2652437285200266
0.7909870626091259 12.988122275527292 10302.366981836807 17.102900050383393 0.26900537591390383
0.8145515066484095 12.990641564380889 8910.42666046784 17.899751724182043 0.27282774758297973
0.8384233767467821 12.994097306689053 7817.435640091164 18.73118454626328 0.2767125641509241
0.8625944423560994 12.998356501211548 6823.839070826389 19.59840017847539 0.280659040528624
0.8870588445850159 13.003303723404336 5963.762400177404 20.503549517078728 0.2846741491228563
0.9118094686509668 13.008790186653032 5218.456191596276 21.44842375116735 0.288760897444243
0.9368193512124728 13.014666842414636 4571.865241217645 22.434596312584677 0.29291993652702464
0.9620885362124497 13.020869447414245 4010.3096778464223 23.46391043270887 0.2971536173899959
0.9875999570682522 13.027266263457738 3521.7485779550534 24.538871354575008 0.30146873992233836
1.0133385759778981 13.03372542354097 3096.862645114486 25.661526600572795 0.30586773024555397
1.039286053599083 13.040169211459045 2725.6024384172147 26.83362193174598 0.31035026659941006
1.0654315484033994 13.046501250835458 2401.9528715503147 28.058351923092346 0.3149258469451926
1.0917501825429807 13.052627036965646 2119.0363890278863 29.337894312196454 0.31959577602854095
1.1182382697799347 13.058463536836483 1871.5444457319957 30.674752275335802 0.32436302430353386
1.1448600644941882 13.063923452594796 1654.738794681058 32.0725456702888 0.3292371595337681
1.1716137776116726 13.068940728793997 1464.501632659497 33.53304121694329 0.33421475669107775
1.1984605584109969 13.073408593693403 1297.619225216241 35.06080106176453 0.33930956258081235
1.2253963277155602 13.077285721935642 1150.96078005805 36.65804345545066 0.34451955737039663
1.2523836953472147 13.08045288732989 1021.9126912819918 38.329499256546555 0.3498572522556422
1.2794176076112476 13.082905373468575 908.3260017602445 40.07771318616172 0.35532107188815687
1.306452246693784 13.08451085177451 808.1726569339577 41.908011166012315 0.36092473129505903
1.3334816588004663 13.085227210436628 719.8800401562353 43.82365414819893 0.3666689697367458
1.3604829940985044 13.085045809566587 641.8395908539513 45.829720999929336 0.3725637375338626
1.3874080907921524 13.083803455357296 572.8606523217248 47.93133828530568 0.3786178752940094
1.4142560990714845 13.081532317239448 511.7658667818971 50.13301611269473 0.38483581241542236
1.4409819552271002 13.078119951120218 457.70709668082776 52.44042333564802 0.39122688437445774
1.4675634628942509 13.073523738405918 409.76514817147574 54.859736244662116 0.39780157597899796
1.4939590472797513 13.067687731063339 367.2387988502025 57.18713721380489 0.4048893643983139
1.5183756970234752 13.059445251561984 331.5247369220458 60.13115102981072 0.5138215208283194
1.540021581536167 13.046769155469152 301.83734108759853 63.097403751303986 0.605064775069114
1.5592118417272849 13.029092557749363 276.6016116821129 66.30955736866065 0.6954878949974141
1.5762445574182722 13.006359505871172 254.78751811633586 69.7798933581145 0.785162305792922
1.5913232865854723 12.978467207847325 235.63787436390498 73.52163318200084 0.8746078270123774
1.6046286849274454 12.945454891401903 218.6562859886401 77.54881522615497 0.9639099300764928
1.6164292074614381 12.907743480085452 203.3970333674731 81.87749485606001 1.0535253094086046
1.626835068573479 12.865420200010297 189.60356110687292 86.52497406026006 1.1437591180471975
1.6359593547891245 12.81855902409525 176.99044448887867 91.51022439609761 1.2349397479369344
1.6439335373251065 12.767474823215416 165.4351126352445 96.85424265486667 1.3274180485909652
1.650890970642941 12.712449316128149 154.78943665382667 102.57893567751256 1.4214560681424993
1.65688029787515 12.653579526925558 144.89561070460735 108.71038982858009 1.5174356994318032
1.6619371710992328 12.59092813229038 135.73711180139938 115.274671075533 1.6152393515562473
1.666189360129158 12.52487992616109 127.19875369475157 122.30196361314225 1.7155078428575568
1.6696829909112756 12.455640392615138 119.21226303556584 129.82561204415634 1.8201931850231563
1.6724201134426657 12.383318770750662 111.78236011361349 137.88320413653764 1.9298959874476955
1.6744665136373065 12.308250697794536 104.83836524181179 146.5163574818169 2.0453880633756527
1.6758001135117906 12.23038038850641 98.35282058332942 155.76911157310266 2.167716982508667
1.676368375113919 12.149585761709599 92.29860730648831 165.6936500741337 2.2986845453690914
