M[M_sun], R[km], Lambda[1], P_c[MeV/fm^3], rho_c[fm^-3]
0.24162668629717493 15.618656898711224 2160425.4255784233 3.5677272577965504 0.1711233750220791
0.25364088223244824 15.27739205018613 1723250.6017324813 3.784779571453658 0.17388767404178068
0.2660365912763969 14.981289965534689 1383075.0003420864 4.0113173262114445 0.17666564411908192
0.278808212745279 14.723669660514158 1116592.9116578356 4.247597858561605 0.1794560022848563
0.2919598526183455 14.498554607034267 906043.2023115162 4.494245724911131 0.18226530336144917
0.30549189470793164 14.301413878243318 738771.7546980898 4.751413273650952 0.1850891898524778
0.3194051236247882 14.128338640468934 605240.8863524069 5.019788100024661 0.18793439730432396
0.3337004227872106 13.976169960050989 497804.82511054503 5.299586938623253 0.19079740570626058
0.3483769805602084 13.84223963420111 411128.23471301544 5.5915468024237995 0.1936846819453889
0.3634386262603333 13.724146112880193 340798.76031786413 5.895824338439628 0.1965910928676284
0.37888857290825795 13.620166449616685 283402.2082646493 6.213287936263056 0.19952441020697428
0.39471628179874074 13.528613325519002 236475.79878069204 6.544202753797261 0.20248095045947362
0.41093701491106127 13.44806437919297 197948.0372493434 6.889255630171661 0.2054641624283338
0.42754002253729534 13.377239712638797 166154.18270004762 7.24915831837471 0.20847724368413859
0.44453227522532845 13.315071273231023 139861.3830303631 7.624180906466466 0.21151591957495322
0.46190888109007183 13.260716002046133 118041.3885266128 8.015250061401877 0.21458600805292194
0.479669690889723 13.213282767245605 99858.68701198389 8.423080607341465 0.21768932035534908
0.4978209378517413 13.172114070297448 84685.0833531905 8.848128500404368 0.22082354421910802
0.5163544923112618 13.136522038674645 71978.18955729989 9.291236706518033 0.2239916607670374
0.5352686455359972 13.105944197360131 61311.741627156625 9.753303608266219 0.2271967940391937
0.5545704039223652 13.079912835805196 52334.340686060525 10.235138156345581 0.230440293949228
0.5742449747724478 13.057955796191715 44757.24215660048 10.737232684992474 0.23371912928956853
0.5942974839917128 13.039601914626893 38355.806591999084 11.260789310533703 0.23703895616935752
0.6147304172987234 13.024570540645326 32924.32789299353 11.806764907235728 0.24040164615209858
0.6355270960373295 13.012469320853537 28313.05779705644 12.3761376615222 0.24380883071860626
0.6566931065006237 13.00307014929625 24388.146527467066 12.96962553335593 0.2472587907444908
0.678218842107691 12.996016157311661 21042.932169146043 13.588496931634328 0.25075566253737475
0.7001012906847262 12.99108790097414 18186.31223920634 14.233976153589147 0.2543023967909276
0.7223292395097454 12.988010225926248 15742.090239307749 14.907251818338072 0.257900976083233
0.7449114248239922 12.986651135235569 13644.556729006938 15.609390766810318 0.26155167478776015
0.7678256538725725 12.986750762997133 11845.197531300551 16.34158402325393 0.26525564263742457
0.7910647184118814 12.988126379041757 10228.784792456749 17.105481960088557 0.26901793086649206
0.8146324006733748 12.99064212777932 8964.048872497637 17.902538214052676 0.2728409692781723
0.8385094294166929 12.994101598439013 7813.752189400521 18.734163259458928 0.2767262497968305
0.8626820842134022 12.998368626186341 6820.562291899171 19.6016098303841 0.2806734402125169
0.8871510870220399 13.003312899685238 5960.778301741185 20.50700554778787 0.2846892939852898
0.9119050498218748 13.008806910134858 5215.67443530838 21.452142657732598 0.28877682072520844
0.9369180678469258 13.014692864072796 4569.36928928074 22.43856260728477 0.29293641025714307
0.9621899783718294 13.02089303517558 4008.2392025971785 23.46817386872181 0.2971709324704347
0.9877086173318307 13.027286338578163 3519.9192224573567 24.543451988892194 0.30148693660795134
1.0134448271986567 13.033738889949051 3094.8147564685232 25.66640670736684 0.3058865635175277
1.0394019998112305 13.040200943381418 2724.235180209208 26.838861144634716 0.310370059402281
1.0655493816274206 13.046527338559777 2400.579121246531 28.06397475331296 0.3149466482391726
1.091872019006235 13.052656490749508 2117.972852081331 29.34388083807222 0.3196173238459481
1.11836354634973 13.058491356755747 1870.5547298520364 30.681173936056197 0.32438567712783833
1.1449888284218348 13.063956543497898 1653.7706238813446 32.07941715104354 0.3292608773498877
1.1717450457184202 13.068961924573783 1463.6772113511593 33.540371388613416 0.33423946012537836
1.1985947164054889 13.073423417687621 1296.7907010677661 35.06866013789259 0.3393355504149675
1.2255361129505753 13.077294390163765 1150.2854403677493 36.66640863865203 0.34454654215650177
1.2525242187558872 13.080465908590126 1021.2885925819157 38.33846674253882 0.3498856592853973
1.2795618915974267 13.082910824183738 907.7416146418684 40.08725960833761 0.35535060532911544
1.306599640530901 13.084509539350226 807.7219419739814 41.91817596466007 0.36095546102133147
1.3336319922617832 13.085230194085415 719.3564594318245 43.834551224793884 0.366701361483939
1.3606362761753115 13.085038271688369 641.3563434721112 45.84132753200239 0.3725974877525029
1.3875619928573988 13.083791475814213 572.4626985142053 47.943703820559705 0.378653071599024
1.4144140376064251 13.081515684935145 511.4267404422932 50.146276164353004 0.3848729685414567
1.4411412786887383 13.078095861037081 457.4140449865742 52.45455686426734 0.3912656897486708
1.4677253230740503 13.073492727425586 409.5163807207192 54.874805796003905 0.39784214050101036
1.4941310781753265 13.067640945371087 366.98187201120214 57.413203138183974 0.40461136557271227
1.5203406970139945 13.060512788878347 329.24090186501775 60.0763663111396 0.4115831184912153
1.5463217922318877 13.052044999665993 295.66234044276104 62.871389329602536 0.4187679198717028
1.572035654323323 13.042180969396048 265.7832526826126 65.80588592182038 0.4261771205108951
1.5974581393564662 13.030875549456981 239.2159341900842 68.88803679726016 0.43382296979713586
1.622545193235913 13.018077633578265 215.50221814670522 72.12664149256716 0.44171869006204034
1.6472979097807234 13.003757223034523 194.3450262734623 75.53117527929854 0.4498785575745198
1.6716466530799572 12.987850862086505 175.45839831843915 79.11177914999158 0.45831768804988715
1.6955854033438755 12.970327410202248 158.56378123224522 82.87819400454589 0.46704750263987954
1.7190498828573948 12.951104846708066 143.46726761245878 86.84334727868178 0.476090416120482
1.7420543623357887 12.93023301101027 129.95220147978097 91.0190496505129 0.4854617481005672
1.7645408448776727 12.90761733124575 117.82555096756367 95.41886577700762 0.49518138234165593
1.7864667745755243 12.883200779392753 106.95653929436538 100.05695802005455 0.5052688471882467
1.8078090441177521 12.856976135859078 97.20880676135047 104.94956679729862 0.5157487859550288
1.8285341902457029 12.828897165555151 88.44906554955499 110.11301497626944 0.526642995153006
1.848609381414115 12.798940909664802 80.5690055543866 115.56516172173005 0.5379757919423938
1.868002424082288 12.767067720755836 73.47779551580594 121.32620485179366 0.5497765391184999
1.886679538238216 12.733257086896836 67.09490884869795 127.41742248657424 0.5620745930816589
1.9046097630713925 12.697475403167893 61.3369725492305 133.86153843632394 0.5749003479838259
1.921743786921369 12.659650188480484 56.14578783734641 140.68352915602793 0.5882877010408125
1.9380910093538262 12.619878151041164 51.46103616862352 147.91134329448036 0.6022760096342183
1.9535876098480267 12.57803301195518 47.223881773089666 155.5737985308956 0.6169022528819532
1.9682190213210637 12.534159652422385 43.39469032849332 163.70389760949726 0.6322119533947765
1.9819484386952004 12.488211304664029 39.92992570252492 172.33559530041063 0.648247451835669
1.9947479972700703 12.440171530021363 36.79222217318397 181.50822653083225 0.6650622303467011
2.006594114161777 12.390045170606486 33.94890461561246 191.26353412169806 0.6827100191632938
2.01746230626793 12.337831278213805 31.368101466264232 201.6474483995117 0.7012499159064173
2.027313136372653 12.283492955546132 29.0276683224108 212.71024427745598 0.7207458908339781
2.03613909181897 12.227075718128477 26.903349222645836 224.5064097892694 0.7412652524846556
2.043901120729579 12.168532002626078 24.971719614642737 237.09785761792966 0.7628878738728344
2.05057942218016 12.107876203130461 23.216173968071818 250.55046442295526 0.7856934427184034
2.0561643857032035 12.045156939170015 21.619419360840073 264.9378514560825 0.8097721785588136
2.0606379277711024 11.980379992955607 20.1655581927093 280.34163284781846 0.8352237732930211
2.0639705302849918 11.91354923536332 18.843845201731583 296.8508075820586 0.8621532773012434
2.066145322089803 11.844687140316264 17.638723789496133 314.56545845337655 0.8906807354970917
2.0671613443411676 11.773851198181234 16.54272926092476 333.59540667712776 0.9209339805716906
