M[M_sun], R[km], Lambda[1], P_c[MeV/fm^3], rho_c[fm^-3]
0.24162668629717493 15.618656898711224 2160425.4255784233 3.5677272577965504 0.1711233750220791
0.25364441726059744 15.277262480931459 1723197.0296916005 3.784826475235865 0.17388825867479876
0.2660407094408395 14.981240110379106 1383091.8959089324 4.0114159268189695 0.17666683564923374
0.2788159975760312 14.723481371998355 1116409.9094793326 4.247751491287933 0.17945778419296213
0.2919712714137278 14.498394676290461 905891.9293242547 4.494458420659235 0.1822676717779684
0.3055065052949407 14.301219888626262 738630.9970679864 4.751692253800694 0.18509220337053664
0.31942349198621905 14.128116804662925 605076.9947763497 5.020135419043311 0.1879380008731953
0.33372318180443844 13.97591056167333 497671.85449200124 5.300011739717213 0.19080168274840428
0.3484036088435647 13.842005643902658 410993.2268033556 5.592050145627801 0.19368955192935255
0.363466791819554 13.723962757180926 340642.34910064575 5.896417531149227 0.19659666425908992
0.3789203735398049 13.61998979751128 283293.7992934585 6.213978156063541 0.19953070418047597
0.39475199440408254 13.528479333075424 236404.16521145334 6.544989283478341 0.20248784726222716
0.4109787628372744 13.447872849658957 197859.29932079042 6.890153652412432 0.2054718103625766
0.42758596611670463 13.377059968417216 166083.3578510762 7.250176259012779 0.2084856648461615
0.4445831957498661 13.314922893373762 139795.69836562505 7.6253159514812285 0.21152495526310228
0.46196471458473776 13.260549874942551 117976.41578567504 8.016522007038764 0.21459584758074712
0.47972985256520667 13.213137933670568 99806.01908207365 8.424499370710764 0.2176999874724914
0.4978874059884063 13.171973252444008 84638.8375822233 8.849688849865059 0.22083484181588947
0.5164261811539556 13.136395166936106 71933.55398751728 9.292963891192509 0.2240038202548231
0.5353463334087493 13.105826701033696 61272.17521218291 9.755209337306988 0.22720984166896796
0.5546530602599903 13.07981357725256 52301.776843347674 10.23723485033088 0.2304542571132471
0.574335820570685 13.05783115101827 44726.96237570444 10.739511233572976 0.23373375827726137
0.594393370883667 13.03953464403828 38323.16230949249 11.26328397659768 0.23705454288806946
0.6148305873557087 13.02449792770838 32898.304021176256 11.80949042599704 0.240418221853595
0.6356360032433042 13.012442700006714 28290.362566995274 12.379109687398476 0.24382642830435283
0.6568069439097323 13.00302371408342 24368.604978924413 12.972830418471395 0.2472771085535858
0.6783393785168709 12.99597337913263 21025.979352487073 13.591980181512016 0.2507750563394752
0.7002286120523907 12.991048021445387 18171.203191242035 14.237756442147786 0.25432290504085525
0.7224594977584021 12.988025448319432 15728.158030702138 14.911349019218335 0.25792263952873845
0.7450511548187153 12.986654534935804 13632.853309727665 15.613786058005042 0.2615741406008357
0.7679725315971516 12.986760542905076 11835.476365896668 16.346336919707255 0.2652793346341768
0.7912173442697311 12.988133742439867 10287.724058866675 17.11061631207366 0.26904289748155813
0.814792893208107 12.990672991866177 8955.605611635812 17.908079452939454 0.2728672620604725
0.8386760237880291 12.994132831880293 7806.760614283536 18.74008680907188 0.2767534654423751
0.8628568484852389 12.998403632439311 6813.547835445991 19.6079927021156 0.2807020761325095
0.8873386404852392 13.003354606176686 5954.787018875447 20.51387845754505 0.2847194121415073
0.912094949552407 13.008846650540173 5210.685616277017 21.459538424576948 0.2888084872571181
0.9371154059904516 13.014745953617348 4564.742315730785 22.44645042552389 0.2929691717634657
0.9624000085055752 13.020948733594672 4004.169636924405 23.476652712039524 0.29720536757245775
0.987921452237981 13.027333995668531 3516.2296226372982 24.55256176003431 0.30152312540408754
1.013663921543798 13.033792213981624 3091.7283324210025 25.67611214682287 0.30592401867755065
1.039628401745971 13.040255104941037 2721.1043780097602 26.84928088695778 0.3104094233124993
1.065780798033815 13.046578351922486 2397.936458432337 28.075157564856138 0.31498801832172996
1.09211404017604 13.052704215838498 2115.63919499551 29.355787089063913 0.3196601790390428
1.1186114305727075 13.05853910579634 1868.3930493718922 30.693945754052397 0.3244307305434131
1.1452415691933258 13.063998200400205 1651.7632823486708 32.09301285615895 0.3293075908535411
1.172006890583235 13.069008286791249 1455.0765175075446 33.55495043217406 0.33428859300534003
1.1988628708851214 13.073472797414455 1295.2130141289615 35.08429131746029 0.33938723848817554
1.2258093181051277 13.077338980593547 1148.940107198854 36.683046599397805 0.34460021364236665
1.2528059670631924 13.080496258227209 1020.0443492542165 38.35628116978328 0.34994203290103115
1.2798496750955823 13.082939127940982 906.5834426595013 40.106247436275986 0.3554093473253333
1.3068925600048527 13.084523601817681 806.6636988232025 41.93839395648696 0.3610165830736365
1.3339263743756467 13.085241416277665 718.4770183340021 43.8562260180475 0.36676579017886635
1.3609386503031584 13.085035004843395 640.5420167012936 45.86441371740912 0.3726646192436444
1.3878705686221147 13.083773068741385 571.7251986169794 47.96829998875039 0.37872308023351053
1.4147266914146661 13.081480981173083 510.70562888895955 50.17265197019052 0.38494687645608733
1.4414509712924712 13.078026868428084 456.8302896693072 52.482670443539874 0.3913428791041053
1.4680451901591578 13.07342948474725 408.9503350573803 54.904781609700144 0.3979228300004481
1.4944549291702565 13.067563225283964 366.47878161844096 57.445175727674034 0.40469579082431395
1.5206669990637178 13.060415687686062 328.7917290604212 60.11048120058718 0.41167153339616364
1.54665082669794 13.051928425977701 295.2494027914908 62.907804018410665 0.41886059814981563
1.572366590902021 13.042047062490605 265.4250215727494 65.84477097713429 0.4262743573785433
1.5977920571442292 13.030716040234198 238.8946589499612 68.92957705777233 0.4339250838139579
1.6228783270773393 13.017892232451537 215.2003975198414 72.17103739625267 0.4418260251649144
1.6476299817738715 13.003552632527139 194.06928766003153 75.57864432926993 0.4499914853194652
1.6719795056270865 12.987618945134296 175.2050364385199 79.16230972624047 0.45843557530616846
1.6959163994143183 12.970066664278097 158.3458966695796 82.93227900483795 0.46717178981302965
1.7193966437734018 12.950854236651507 143.26070718761375 86.90126505695257 0.47622157139217625
1.742379498748633 12.929915159867384 129.7581413412794 91.08082431690757 0.485599173994858
1.7648613296653268 12.907263686660636 117.66138576270367 95.48509229213273 0.49532669810350266
1.786788612232724 12.882826794671812 106.81091775601564 100.12769404499231 0.5054214924612669
1.8081262222801902 12.856567370340976 97.07141490159859 105.02517905548824 0.5159093487437839
1.8288359275819313 12.82843054107147 88.31965114507764 110.19409038019825 0.5268128071804379
1.8489158253143423 12.798462661958471 80.45217401724534 115.652093496401 0.5381553629910146
1.8682916371612648 12.766522637874846 73.37696241223422 121.41933804794546 0.5499661241763562
1.8869702121614613 12.732700319573022 66.99902342013998 127.5172623304635 0.5622749433963465
1.9048937434588908 12.696883158598922 61.25031512420516 133.96832506936772 0.5751111779544097
1.9220344269333611 12.659065268460585 56.066949460316195 140.79822503618774 0.5885111722320027
1.9383476772296762 12.619176597106494 51.3843765159825 148.03463510383312 0.6025131675636584
1.953843069775119 12.577330605375224 47.157180721861984 155.70603450577784 0.6171528532913627
1.9684586149728687 12.533397385081484 43.332294014302796 163.8460951110437 0.6324779074963247
1.9821738128130293 12.48739601515678 39.87408448453681 172.48862884023285 0.6485300115346097
1.9949632619433988 12.439319854991881 36.74125347783276 181.6728669604235 0.6653621251720704
2.006799053459312 12.389157608270073 33.89774025250872 191.44085031360657 0.6830287826080755
2.017645120539086 12.336882047079545 31.32345988676489 201.838619426973 0.7015892256226942
2.0274806615836827 12.282495942854803 28.989465923383037 212.9160902802472 0.7211060061004863
2.0362915962844492 12.22602793592651 26.866668234989504 224.7288354930901 0.7416497206089147
2.044034909871006 12.167430801094655 24.93924137976102 237.33794636688057 0.7632972472447239
2.0506937123899243 12.106722809431636 23.184288888998466 250.81033884823736 0.7861313240969681
2.056265907151749 12.043975598157994 21.591180092699663 265.2191922440703 0.8102403459755805
2.0607117386970164 11.979124277133314 20.13864434272107 280.64607487451735 0.835723416961239
2.0640166421940225 11.912227851568906 18.819265470119305 297.18090857779424 0.8626881000621994
2.066176386769856 11.843325655039326 17.616252060098848 314.9240454906708 0.8912547628151577
2.067169534106979 11.77243138216612 16.521756541129452 333.98484416010706 0.9215490659680098
