M[M_sun], R[km], Lambda[1], P_c[MeV/fm^3], rho_c[fm^-3]
0.24162668629717493 15.618656898711224 2160425.4255784233 3.5677272577965504 0.1711233750220791
0.253643725724143 15.277280401483814 1723204.8283102908 3.7848155987483203 0.1738881231046285
0.2660394959081062 14.981270044149559 1383042.0431896038 4.01139306223382 0.176666559344216
0.27881417885751725 14.723545457676364 1116487.199353709 4.24771586502201 0.17945737098196507
0.29196764036057116 14.498465298068805 905974.9712427896 4.494409097812251 0.18226712255662
0.3055047713238281 14.301214260337181 738669.1098827621 4.75162755958815 0.1850915045495704
0.31941984154042197 14.12814661113849 605126.6825263632 5.020054876870759 0.18793716521706863
0.3337171170547407 13.975991657076271 497695.0637859257 5.299913229079513 0.19080069090974133
0.3483977565277648 13.842054042191016 411022.0624153412 5.591933420526967 0.19368842258189203
0.3634588463144399 13.724041663942737 340668.4466056929 5.89627996913697 0.19659537224755957
0.3789130954657862 13.62002297111918 283314.73496148776 6.213818092391467 0.19952924459251586
0.3947441546104531 13.528493765636677 236411.96836292767 6.544806884292398 0.20248624786777566
0.4109689227028509 13.447920444851633 197879.13965778172 6.889945396438967 0.20547003676731534
0.4275773762088414 13.37708759061159 166099.26876199766 7.249940191944553 0.20848371192380485
0.44457114800179937 13.314952776799725 139809.83587591455 7.625052725745045 0.21152285981698865
0.461951992662929 13.260585804954154 117988.7869399094 8.01622703126418 0.21459356570465304
0.47971603745489483 13.213168844411038 99814.89959845872 8.424170344654021 0.21769751365651469
0.49787194501434656 13.172009077086894 84649.54869132026 8.849326986664662 0.22083222177170633
0.5164109654625473 13.13640985743427 71944.54835777554 9.292563334666129 0.2240010003119056
0.5353283754961867 13.105855680972958 61280.70123690268 9.754767371498632 0.22720681573709783
0.5546334199448993 13.079834099128828 52303.96413118364 10.236748594248217 0.2304510188374257
0.5743151669686255 13.057853011405548 44734.56405525727 10.738982799981596 0.23373036556991647
0.5943717031982313 13.039532752434571 38332.92278832042 11.26270541847059 0.23705092804642164
0.6148076934799196 13.02452503585591 32904.7655392177 11.808858325390172 0.24041437762726867
0.6356112090726317 13.012439048398234 28295.677682588186 12.378420413126824 0.24382234706024417
0.6567794820564372 13.003025750981212 24373.16463918153 12.972087135798011 0.24727286025462217
0.6783122266317396 12.995976062655952 21030.200277537337 13.591172335449322 0.250770558469033
0.7001986642331893 12.991065844874027 18174.29032866936 14.236879701029107 0.254318148677497
0.7224323564089158 12.987994058434136 15731.823073510857 14.910398773054013 0.2579176152190697
0.7450184661493534 12.986649550074421 13635.479166360527 15.612766672289528 0.26156893017724325
0.7679380035875262 12.986761405455422 11837.644336885782 16.345234589551247 0.26527383979482305
0.7911818136188362 12.988135782293602 10289.947009899117 17.10942550494365 0.26903710698972605
0.8147541615598787 12.990672684289086 8957.488431388607 17.9067942694948 0.27286116395692267
0.8386370933573568 12.994128087282553 7808.618284698181 18.738712949667534 0.2767471532692661
0.862817515902294 12.99839484701694 6815.466089397911 19.606512302882184 0.2806954345147882
0.8872923029042016 13.0033403493432 5956.379935392613 20.512284393144398 0.28471242670414004
0.9120508140792711 13.00884651334302 5211.810406178296 21.45782308173557 0.2888011426558123
0.9370702995449058 13.014730773434046 4565.905610525381 22.444620949818294 0.29296157316293014
0.9623479255562774 13.020924966333181 4004.9501593404393 23.47468614439556 0.2971973807569314
0.9878718524793597 13.027327786657038 3517.096942821869 24.550448843737325 0.3015147317906881
1.013612708215583 13.033781448183605 3092.184914484041 25.67386106079385 0.30591533130302995
1.0395756372596854 13.040241440159358 2721.8209680240616 26.84686411067711 0.31040029316689877
1.0657255914078503 13.046561147962581 2386.4323257754536 28.072563785172377 0.3149784228028179
1.092058454267165 13.052697621891088 2116.10487725396 29.35302549891965 0.31965023901014844
1.1185529172655615 13.058533372842431 1868.841849672664 30.690983382242475 0.3244202805848967
1.1451835009896005 13.063983894811862 1652.3546581194437 32.08985937138651 0.32929675579046874
1.1719463361289368 13.06899716903315 1462.3182490158042 33.551568843772216 0.3342771967037695
1.1988011760339394 13.073462199236461 1295.6452239521966 35.08066566470601 0.3393752494374338
1.2257462733730529 13.077322760626636 1149.2645594027472 36.67918740380868 0.3445877644747868
1.2527401188176386 13.080495778001204 1020.2979674842105 38.35216574017153 0.3499290547067788
1.2797811603477465 13.082936840119146 906.8350949093057 40.10184313419629 0.355395721886081
1.3068248752117424 13.084524782781447 806.8715325534052 41.93370428770767 0.36100240549443496
1.3338604403936862 13.085238330774798 718.7221597253639 43.85119840271147 0.36675084550599646
1.3608682411174542 13.085035218138609 640.7221424441904 45.859058690201906 0.3726490475519513
1.387798782905359 13.083781112108346 571.8964886872647 47.96259467640876 0.3787068410728714
1.4146546740188644 13.081489055327598 510.90708465950587 50.16653381107534 0.3849297327000115
1.4413779818357366 13.07803814850167 456.9649430485382 52.47614915020846 0.3913249740759347
1.467971620053164 13.073443778896667 409.0890079146033 54.8978283061144 0.39790411295771966
1.4943798364584682 13.067579683889212 366.5945049129515 57.437759198775495 0.4046762071018737
1.5205915890023824 13.060438157934216 328.89608661058213 60.10256768287571 0.4116510240840247
1.5465741442067986 13.051955585864194 295.34257263931835 62.89935696962641 0.4188390997390895
1.5722905193498515 13.042077577322143 265.51051872598794 65.83575082271562 0.4262518013720186
1.5977140615501026 13.030752501680507 238.9683121350668 68.91994091148098 0.43390139629750124
1.622801274698035 13.01793813918174 215.2767097145743 72.16073875203215 0.4418011263354029
1.6475531700989217 13.00360161741237 194.13589601854906 75.56763272104624 0.4499652889644576
1.6719020504524333 12.987670150832008 175.26741360033415 79.15058785163528 0.45840822830682154
1.6958393306295443 12.970128371570476 158.39179609233176 82.91973249687994 0.4671429579742835
1.7193199887338477 12.950920960846645 143.30522352793702 86.88782932863863 0.4761911460780493
1.742306172544283 12.929985915680215 129.80033783263826 91.06649377575076 0.48556729381566666
1.764786117514733 12.907346996082577 117.70533532482264 95.4697288848264 0.4952929873573904
1.7867142915474203 12.88291111912536 106.84805178453261 100.11128439411696 0.5053860811465904
1.8080530210941756 12.85666240964771 97.10431367006653 105.00763806756247 0.5158721004191562
1.827885715456636 12.828932719917184 88.65225268660306 110.26470036166893 0.7005178714210867
1.8396264214948637 12.797976243057745 83.07647460768544 116.54693979809036 1.0790761457548754
1.8436454927384862 12.759159941312456 79.49400775195484 124.00955263838952 1.4402191327117868
