M[M_sun], R[km], Lambda[1], P_c[MeV/fm^3], rho_c[fm^-3]
0.24162668629717493 15.618656898711224 2160425.4255784233 3.5677272577965504 0.1711233750220791
0.25364657993874723 15.277187471388887 1723072.3710042725 3.7848600837731956 0.1738886775890033
0.2660439679366259 14.981191592949823 1382905.99986528 4.011486579377315 0.17666768944370506
0.2788222268810152 14.723398913205651 1116296.5697944027 4.24786157887929 0.1794590610431234
0.29197916182451183 14.498247163422349 905762.2169766976 4.4946108328164875 0.18226936892271242
0.30551688344918215 14.301087635899444 738564.6222021519 4.7518921664898315 0.18509436280911842
0.31943661294195635 14.127956754186036 605012.1323178745 5.02038430565694 0.1879405831678731
0.33373699374593274 13.975808371667787 497555.4135831632 5.300316153771282 0.1908047476928145
0.34842168561975806 13.841853025539246 410898.48952793324 5.59241084797492 0.19369304182378674
0.36348745046487324 13.723812682311339 340568.34799492836 5.8968426266648155 0.19660065684613212
0.37894449028390775 13.6198194039014 283213.4759740392 6.214472790157559 0.1995352146478352
0.39477969427623594 13.528323810186658 236327.35070091806 6.545552943396146 0.20249278979823904
0.41100878891291737 13.447729209001036 197794.59306053055 6.890797221134491 0.2054772912638768
0.427620826449089 13.376902515089546 166023.12414001126 7.250905777082094 0.20849169996218947
0.4446186257805368 13.314796742502985 139749.2792552807 7.626129403324884 0.2115314308628256
0.4620025168934864 13.260435829772225 117926.36244905682 8.017433583247309 0.21460289935969792
0.479773276849417 13.213041823836354 99763.09725157617 8.425516181258873 0.2177076324663381
0.4979344869931212 13.171877039413426 84598.07867179219 8.850807146222671 0.22084293875932984
0.5164782431053446 13.136296471151855 71904.60246347662 9.294201773568673 0.22401253502392426
0.5354002005553218 13.105774366272195 61245.24832785583 9.756575200832593 0.22721919309365796
0.5547125132509996 13.079721155242222 52275.3955781866 10.238727488110241 0.2304641348209562
0.5743993623822813 13.057769826611707 44709.58608593206 10.741144340940085 0.23374424333243157
0.5944607204723195 13.039460332981397 38304.9529733649 11.26507200474544 0.23706571452029337
0.6149032180865939 13.024448242262109 32880.67930403783 11.81144394026794 0.24043010247972865
0.6357128350269036 13.012387305584195 28274.223064621587 12.381239912387613 0.24383904152458252
0.656887513766055 13.00299584628883 24355.37448757129 12.975127571682082 0.24729023813934609
0.6784250367030717 12.995946801375068 21014.34533232778 13.594476888504952 0.25078895733510403
0.7003176844998249 12.99105354325384 18160.597946421745 14.240466093131136 0.2543376050296845
0.7225578593480356 12.987990114097174 15719.12478530771 14.914285864882919 0.2579381677388195
0.7451518021294055 12.986636301825977 13624.019863509098 15.61693660557024 0.2615902441101482
0.7680771175491742 12.986766377134687 11827.417477998168 16.34974384182095 0.265296317286428
0.7913278557247753 12.988150689467734 10281.643263759035 17.114296711649786 0.269060794018409
0.8149070204337819 12.990681461509144 8949.18473604817 17.912051566972078 0.27288610945753755
0.838794065406328 12.994163003726882 7801.304648465532 18.744333018014846 0.27677297457542055
0.8629825462101959 12.998426423334209 6809.010892425716 19.612568227579676 0.28072260362963397
0.8874688313810767 13.003396632271818 5950.549671353847 20.518805327053553 0.28474100244761674
0.9122315510285691 13.008877753513929 5206.8208241187085 21.46484017428299 0.28883118781404166
0.9372567273134224 13.014783829131376 4561.751045765277 22.45210496759122 0.29299265751200537
0.962547796567426 13.020987519602839 4001.1068462304524 23.482731021450117 0.29723005339301584
0.9803543353491566 13.021636984839116 3644.0855665052886 24.79192605113833 0.9115351841806101
