M[M_sun], R[km], Lambda[1], P_c[MeV/fm^3], rho_c[fm^-3]
0.24162668629717493 15.618656898711224 2160425.4255784233 3.5677272577965504 0.1711233750220791
0.25363894423705513 15.27744770762622 1723325.6197423963 3.7847470076234293 0.1738872681493462
0.2660313667683792 14.981446605246191 1383239.1123238194 4.011248871910628 0.1766648168892555
0.2788023521770945 14.723760267383147 1116654.1435210612 4.247491199284202 0.17945476519797052
0.2919516883202804 14.498708319138778 906139.6974566919 4.4940980632947225 0.18226365911507997
0.3054824556995009 14.301525289653755 738895.3240716665 4.751219597592497 0.18508709778141016
0.31939416241772245 14.128432862110165 605308.0318950117 5.019546984395817 0.18793189563661264
0.33368612198891057 13.97625316383375 497902.14714592305 5.2992920375159365 0.19079443654143932
0.348361017345846 13.842361772839018 411203.16061923886 5.591197381125269 0.19368130119820312
0.36341635138704004 13.724347605422937 340835.69252637733 5.895412549112021 0.1965872252551196
0.3788632162886472 13.620363938300864 283477.37022000854 6.212808797996657 0.19952004104290474
0.39469041223568013 13.528764681064866 236562.18914294292 6.543656765634546 0.2024761628808805
0.41090800250700144 13.448194599579118 198009.66311810855 6.888632255030186 0.20545885350403975
0.4275076516097941 13.377363193271854 166209.83750652135 7.2484517093985525 0.2084713980891672
0.4444961634289119 13.315225030790105 139914.24565929183 7.623393018098463 0.21150964747693338
0.46187027094022187 13.260818539025514 118081.759960531 8.014367155220766 0.21457917805981205
0.4796267104611491 13.213395260191149 99906.71094395153 8.422095801980545 0.2176819159957676
0.4977756068294116 13.17220266194008 84720.72978763825 8.847045428182215 0.22081570231345848
0.5163052079257975 13.136609196120764 72013.19985333236 9.290037845547424 0.22398322071106402
0.5352146734661639 13.106031589878143 61337.81693221899 9.751980834055926 0.22718773762676486
0.5545118815392606 13.079981394249707 52360.31728458765 10.233682850908417 0.23043060218273298
0.5741845686423321 13.057967416583017 44777.88392426525 10.735651172219265 0.2337089754876732
0.5942359547982439 13.03965941231662 38371.41559519757 11.259057814841311 0.2370281377529378
0.6146599759725797 13.024611699153605 32940.996844608686 11.804873205059435 0.24039014144663132
0.6354523150646566 13.012536656682794 28327.792916076818 12.374074891700001 0.24379661690542537
0.6566094188587813 13.003135672674652 24402.50517049974 12.967401168104079 0.24724607718485514
0.6781358480033457 12.996033087362726 21055.168897259788 13.586079395988635 0.25074220234659605
0.7000136464901773 12.991096353646615 18196.566800797562 14.231352491966144 0.25428816329857495
0.7222366507944717 12.988022485275035 15750.213367832295 14.90440824301917 0.2578859410286281
0.7448138450575046 12.986664327786928 13653.434431203801 15.606340339572395 0.2615360830271482
0.7677229931893089 12.986755830811848 11852.432592950167 16.338285451187677 0.26523920008298474
0.7909574427910394 12.988109456493634 10235.225756281694 17.101918697297307 0.2690006039261602
0.8145207240278843 12.990633114566439 8970.332977983608 17.898692618039615 0.27282272220006365
0.8383898313205763 12.994099980124778 7818.796174961964 18.730052383440963 0.2767073624485523
0.8625608994270104 12.998350235505944 6825.112845216993 19.597180245699914 0.28065356745963177
0.8870238071606736 13.003284024525376 5964.869374584434 20.502235946811833 0.28466839285427453
0.911773506047143 13.008787137326312 5219.46131492744 21.44701027424278 0.28875484534537654
0.9367811394485449 13.014668607409492 4546.43527645229 22.433088815081348 0.2929136752406347
0.962048455978901 13.020852780725505 4011.1812896885017 23.46229000714085 0.2971470363602888
0.9875619911990248 13.027246264562107 3522.4863519320397 24.537130379078874 0.3014618238531721
1.013297423969308 13.033716110472636 3097.4541107522364 25.659671811627067 0.3058605722578002
1.039242382552752 13.04016012981496 2726.223219361488 26.831630667552925 0.31034274396185474
1.0653870881348637 13.046497419244423 2402.4446797264304 28.056214869308153 0.31491794105398263
1.091704215631272 13.05261172207931 2119.513514285001 29.33561903959589 0.31958758644420343
1.1181907838527287 13.058456163880791 1871.9833929110612 30.67231163642879 0.32435441479163996
1.144810912270562 13.063921454890513 1655.0425603526483 32.06992822263822 0.3292281073815802
1.171563263327806 13.068931185864102 1464.8102215670426 33.530255314389485 0.3342053679122328
1.1984134207101926 13.073408087524328 1297.9252559215556 35.05781416101461 0.339299685709783
1.2253448668013673 13.077270504433875 1151.2585246964447 36.65486421973128 0.34450930164810106
1.2523308094505805 13.080451222093505 1022.1346089393024 38.326091132140334 0.3498464560646584
1.27936246328225 13.082902395586835 908.4897866296304 40.07408505244308 0.3553098476545125
1.3063967318802243 13.084505930293552 808.391720224913 41.904148036116915 0.36091305246812366
1.3334243419046639 13.085227825468293 720.0111190131482 43.81951274140786 0.36665665933398484
1.3604244651843092 13.085044978797525 642.006466744701 45.82530998860073 0.3725509109121097
1.3873479462747258 13.083811534336387 572.977618623425 47.92663884230582 0.3786044991622186
1.414196428288424 13.08154045937877 511.8855386890982 50.12797674650891 0.38482169155602003
1.440921204478487 13.078128830123177 457.8271394869492 52.43505204087084 0.39121213681144984
1.4675025178129169 13.073534845965709 409.88889019293566 54.85400925574587 0.3977861599548119
1.4939067507951016 13.067694374426239 367.32652828331703 57.39102158107587 0.40455279404098343
1.5201137675058578 13.06058059816487 329.5469867447638 60.052698823061654 0.4115217799161045
1.5460933999329738 13.052125245864584 295.9364235669586 62.84612669447129 0.4187036244568252
1.5718066400650719 13.042277610463497 266.0536442613376 65.77890986442874 0.42610966355857544
1.5972225589329951 13.030977901410232 239.4388261545835 68.85921914900409 0.43375213042871336
1.6223140662284712 13.018203689011568 215.71626510898017 72.09584327131155 0.4416442298084497
1.6470655678827881 13.003899398695474 194.53507065932376 75.49824567355282 0.4498002188228269
1.6714201185778523 12.988009391343278 175.62674924559732 79.07662692433196 0.45823549524185375
1.6953542425211592 12.970506462188865 158.72710122024012 82.84067597745943 0.46696128632290507
1.71882038192613 12.951297005617965 143.60623107744004 86.80317117702344 0.47599943701724395
1.7418348611498653 12.930468187524665 130.0789590235753 90.97619874591312 0.4853664206106837
1.764315508569399 12.907858244844514 117.9482298637346 95.3729275894017 0.4950805837005497
1.7862441495641987 12.883464850150608 107.06980478561623 100.00789255955695 0.5051629660531377
1.8075884108474496 12.85725764566766 97.306453393168 104.89711981704032 0.5156374146825171
1.828318276848957 12.829206873160334 88.5344665256205 110.0566874508945 0.5265248674082377
1.8483972832313764 12.799272717747009 80.64938128652436 115.50486535033724 0.5378512404457744
1.8677952376470994 12.767428313607478 73.54896787186621 121.2616082762428 0.5496450441626825
1.8864771764679344 12.733643119554426 67.15951205165774 127.34816331894488 0.5619355904848553
1.9044134638026853 12.697886553625061 61.39824178314338 133.78747449092143 0.5747541227589504
1.921553452722608 12.66008018271707 56.20505659989897 140.60398114272022 0.5881327112603084
1.9379073272186143 12.620347229168377 51.51220839627529 147.82583523651357 0.602111530630428
1.9534112655964186 12.578537386293434 47.26982784269158 155.4820890126229 0.6167284541645742
1.9680515983257334 12.534690321270084 43.437197038056354 163.60514336244285 0.6320270425820093
1.9817906438048725 12.488767458212862 39.97090384668528 172.22946644613447 0.6480514965101369
1.9945985318646644 12.440762656951476 36.829221668852156 181.3940506558898 0.6648542574073553
2.0064552590249747 12.390668641301113 33.98128697046668 191.14057042390328 0.6824889658490403
2.017339598934324 12.338508461656211 31.400246313953584 201.51487972842975 0.7010146195920679
2.0271953488768757 12.284186073627843 29.056556874562236 212.56747603789196 0.7204960863939734
2.0360215254081426 12.227768377690982 26.92734363512684 224.35217436044178 0.7409986528741022
2.0438084642110765 12.169296812833336 24.995733739086035 236.93137804459874 0.7626040109072311
2.050499768848138 12.108678725595603 23.238713266132994 250.37017803882313 0.7853895206264928
2.0560992389928994 12.045991448351645 21.639742862821777 264.7427772895983 0.8094475638122136
2.0605850493821545 11.981251541670318 20.184938439235758 280.1302888615264 0.8348765020942895
2.0639335391384144 11.914459759705657 18.86070042121112 296.6219361869889 0.8617824646317985
2.0661235753224427 11.845632472686345 17.65420580270054 314.31684362989466 0.8902827520634695
2.0671541782362524 11.774834873901435 16.55668697247787 333.3254101908374 0.9205075426887621
