M[M_sun], R[km], Lambda[1], P_c[MeV/fm^3], rho_c[fm^-3]
0.24162668629717493 15.618656898711224 2160425.4255784233 3.5677272577965504 0.1711233750220791
0.253641062305401 15.277361183551552 1723244.4016658936 3.7847819724480716 0.1738877039690178
0.26603588266868333 14.981330477191495 1383065.5962791233 4.0113223735130115 0.17666570511274263
0.2788081415030481 14.723652941418027 1116627.2033519743 4.247605722858508 0.17945609349884914
0.29196043580635433 14.498545344516947 906035.0213940432 4.49425661249621 0.18226542459723588
0.30549312763937686 14.301393975815158 738764.1598454277 4.75142755412415 0.18508934410884303
0.319405939965544 14.128329748541862 605213.5924086609 5.019805878503165 0.18793458176290032
0.3337014137041504 13.976164679577016 497813.40519790445 5.2996086830659355 0.19079762463671784
0.3483802558867909 13.84214405093819 411112.9555509898 5.5915725670425545 0.19368493122516295
0.3634387440099976 13.724203853396729 340745.0271157576 5.895854701952966 0.19659137804817128
0.3788901444819722 13.620174639413085 279488.63187827996 6.213323265996533 0.1995247323716038
0.39471780986383415 13.528626050752523 236493.29568813267 6.5442430129913705 0.20248130347821847
0.41093915684310967 13.448054388348396 197943.29057758357 6.889301595868465 0.20546455389149654
0.42754325656099357 13.377214042971142 166154.43599351705 7.249210421769618 0.2084776747221717
0.4445352841745522 13.31505827941596 139862.26522169044 7.6242390034791425 0.21151638206453038
0.4619116878691441 13.26070560292498 118037.09628332146 8.015315165170957 0.2145865116832099
0.47967256482341486 13.213280662720132 99859.59208228433 8.423153225365848 0.2176898663413743
0.4978244043313733 13.172107265400902 84684.68651084171 8.848208364871184 0.22082412247197125
0.51635876212948 13.136506715643932 71977.23029137996 9.291325109602662 0.22399228313026445
0.5352727140284703 13.105936015212505 61309.93896984987 9.75340114915908 0.22719746185577763
0.5545755109261905 13.07990432186451 52332.81222423886 10.235245470637322 0.23044100862054753
0.5742526334720233 13.057911437518642 44757.5687678715 10.73734930637334 0.23371987803495847
0.5943037146531617 13.039592779942279 38351.29661046824 11.260916992415117 0.23703975392806317
0.6147361482133985 13.024552178525507 32922.84898361469 11.806904403636118 0.24040249452295753
0.6355321285406971 13.012484787718398 28312.68307475325 12.376289773489953 0.24380973138485448
0.656695808485501 13.00308076173744 24386.46039130618 12.969789562386326 0.2472597282671653
0.6782253636021037 12.996005935973006 21042.28520249831 13.588675206397845 0.2507566551234953
0.7001081564440684 12.991084520304396 18185.28897214049 14.234169629622262 0.25430344640784985
0.7223367022924109 12.987997182639788 15739.969645284107 14.907461512558143 0.2579020848156193
0.7449179331198518 12.986648067069607 13644.076476047689 15.609615715960514 0.2615528245786013
0.7678328871492119 12.986745379161578 11844.505159710729 16.341827272798653 0.26525685517539593
0.7910709940704319 12.988133434754738 10297.092011845343 17.10574473039767 0.2690192086295238
0.8146386325627522 12.990646631734974 8963.410617052043 17.902821806386264 0.27284231490351735
0.8385169294633762 12.994105397462342 7763.57264740061 18.73446641615008 0.27672764264496885
0.862691726325575 12.998375887185508 6820.1632604619435 19.6019364920622 0.28067490573745174
0.8871599002412105 13.003321802928177 5960.528862563519 20.50735728607213 0.28469083535698936
0.9119137524874523 13.008808239700612 5215.529838592858 21.452521151837743 0.2887784413273597
0.9369280854901758 13.014699628488737 4569.217947896265 22.438966280837025 0.29293808688726225
0.9622007362932873 13.020897257840744 4007.937100267767 23.468607785945853 0.2971726947372109
0.9877198460530554 13.02729040261978 3519.724903309046 24.54391819139416 0.30148878860917494
1.013455929400851 13.033748530428962 3094.6692131115847 25.666903390933303 0.30588848031506655
1.0394129886312413 13.040202479793246 2724.1734155722825 26.839394379299222 0.3103720738668242
1.0655601936553718 13.046531294351562 2400.3753803077248 28.06454703411859 0.3149487653547194
1.0918836844187734 13.052656011961329 2117.7151659553665 29.344490137257676 0.3196195169489041
1.118376441036812 13.058493146947827 1870.4196441991337 30.681827525463927 0.3243879827068256
1.1450012473590938 13.063953868441954 1653.6625419221427 32.08011289806577 0.3292632678681277
1.171758341558904 13.068964589523281 1463.556973213034 33.5411174512754 0.33424197443347153
1.198608391306995 13.073432165585368 1296.74232419862 35.069460035936416 0.33933819546094557
1.2255494916918754 13.07729807145903 1150.188842566358 36.667260051522916 0.34454928868262735
1.2525390748719645 13.0804734667219 1021.235921353968 38.33937946237496 0.3498885505817501
1.279575719769389 13.082915505949565 907.673357545745 40.08823125660855 0.355353611284259
1.3066143642346364 13.08451459195727 807.6417456380335 41.91921055618467 0.36095858874825026
1.3336472214227062 13.085235182554955 719.3350209672421 43.83566035427643 0.36670465839036065
1.3606510584060714 13.085038544839168 641.3335207242395 45.84250887624925 0.37260092294109926
1.3875777801089078 13.083794139342638 572.4286563042143 47.94496242336569 0.37865665398889564
1.414429864017209 13.081513612023715 511.3956444853035 50.147625820692014 0.38487675042725383
1.441157323043149 13.078093599953146 457.3743457055377 52.455995432398744 0.39126963951777477
1.4677417337327194 13.073487714800866 409.4786093833199 54.876339643007896 0.39784626934128875
1.4941479851463992 13.067639530354628 366.9511283363009 57.414839146748 0.40461568553668276
1.5203568769472984 13.060506646737299 329.2105172489742 60.07811192570826 0.4115876425670269
1.5463381136782308 13.05203868654945 295.6306462977253 62.87325260713218 0.4187726620611529
1.5720533411827393 13.042174580586629 265.77502723533456 65.80787558764804 0.4261820959152295
1.5974752181301097 13.030868788855845 239.20401256540265 68.89016230666533 0.43382819471148354
1.6225622184919573 13.018067214110195 215.49085880399008 72.12891309866922 0.4417241820794206
1.647313828814652 13.003749635422174 194.32760988073022 75.5336041080156 0.44988433570047853
1.6716633216618575 12.98783863129912 175.43911419650843 79.11436460733368 0.4583237198922867
1.6956026845867922 12.970313340811279 158.55468779512944 82.88096130297266 0.4670538618836046
1.7190657207420545 12.951089434833984 143.45229788842457 86.8463106562522 0.47609712671266946
1.7420721114915674 12.93021421418998 129.94034282197296 91.02221034098413 0.48546877947345735
1.764557350888373 12.90759973319304 117.81604711312842 95.4222542122218 0.49518881732511666
1.7864841880777804 12.883183012359984 106.94985681115355 100.06057714991782 0.5052766571134802
1.8078253522539824 12.856954540462004 97.20203640705171 104.95343537952567 0.5157570008974968
1.8285508104797792 12.828872268814022 88.44188576275495 110.11716982908811 0.5266517085376267
1.8486252386241795 12.798916649583784 80.56370213419807 115.5696093594441 0.5379849792271492
1.8680169705157277 12.76704269070977 73.46991427905202 121.33096972210161 0.5497862386483168
1.8866944714553466 12.733229243813323 67.0878653895725 127.42253132689561 0.5620848464834197
1.9046243351539591 12.697444925006783 61.33323646084829 133.86700173629316 0.5749111342343047
1.9217579239431513 12.65962029497479 56.14355210466342 140.6893970363699 0.5882991339031608
1.9381044636953382 12.619844184539554 51.456557152622516 147.91765087469128 0.6022881425785757
1.9536005569839636 12.578005109114452 47.2232518194043 155.58056362249462 0.6169150734077286
1.9682317650910122 12.534122132398254 43.39128088904639 163.7111824346728 0.632225593749336
1.9819599726393262 12.488172458570457 39.92612802700709 172.34342419841389 0.648261907039838
1.994758755999629 12.440128233686362 36.78975538755765 181.51664911701147 0.6650775722042123
2.006603819367752 12.389999943120047 33.9448399445089 191.27260505841647 0.6827263260950219
2.0174709364931513 12.337783142930762 31.365465170597496 201.6572279836441 0.7012672737035759
2.027322244990383 12.28344597407096 29.026916288481466 212.7207744524115 0.7207643127450625
2.0361471098437134 12.227022077098272 26.901777034398066 224.51778795551817 0.7412849199158923
2.0439082885272724 12.168475447228888 24.970497672727323 237.1101391767784 0.7629088150588748
2.050585630195111 12.10781695444916 23.214715066597194 250.56376469126116 0.7857158639643891
2.0561695988669952 12.045094755585541 21.617170944672953 264.95224282189224 0.8097961266276417
2.0606413900760026 11.980316169002826 20.164835236876783 280.3572246789281 0.8352493931082563
2.063973096966239 11.913481627431564 18.842448307493243 296.8676926810562 0.8621806341871102
2.0661471924265946 11.84461677759266 17.63775715220716 314.583800360965 0.8907100972835652
2.0671615870975932 11.773778443746554 16.541436078034284 333.61532629039266 0.9209654420096751
