M[M_sun], R[km], Lambda[1], P_c[MeV/fm^3], rho_c[fm^-3]
0.24162668629717493 15.618656898711224 2160425.4255784233 3.5677272577965504 0.1711233750220791
0.25364125260411047 15.277382998952236 1723242.2829913637 3.7847864604845207 0.173887759910227
0.266036420788742 14.981327002916817 1383111.6165619427 4.011331808146623 0.1766658191247219
0.2788087208083143 14.723656000339462 1116528.8004098742 4.2476204231595425 0.17945626400018824
0.29196086082713035 14.498546942313814 906010.862845809 4.494276964089585 0.18226565121695149
0.30549426890721654 14.301374954210424 738761.4730910101 4.751454247898738 0.18508963245255441
0.31940809980457757 14.128298293596448 605206.6441432429 5.019839110962918 0.1879349265624968
0.33370289333561676 13.97612538575201 497785.0877265084 5.2996493289617135 0.19079803387344457
0.3483825369719302 13.842136238329207 411087.22321612143 5.591620727724229 0.1936853971930067
0.3634430123847003 13.724120070881279 340734.07761189475 5.895911459214972 0.19659191112438715
0.3788931420648037 13.620135507219393 283373.5937088902 6.2133893064858 0.199525334581348
0.39472222450866895 13.528595845384459 236475.11580926322 6.5443182680087455 0.2024819633630563
0.4109431600642572 13.44803571879904 197934.37848302478 6.889387517937733 0.2054652856398942
0.4275463196240245 13.377218928287498 166142.60361699064 7.249307816933861 0.20847848044740525
0.4445402922098589 13.315048662228135 139852.22055025844 7.624347602426572 0.21151724658198082
0.46191700366954497 13.260690838295444 118030.47792393886 8.01543686176719 0.21458745310476923
0.4796789928716111 13.213257483918921 99852.38270792452 8.423288968293576 0.2176908869384257
0.49783082043000615 13.172095808967235 84680.44205869445 8.848357653525419 0.22082520338561404
0.5163651885387126 13.13650764020873 71970.64271963567 9.29149035946334 0.22399344649958575
0.5352804413780495 13.105922639321582 61306.88622038443 9.753583480314788 0.2271987101913831
0.5545838403698865 13.079892858293999 52330.69508135776 10.235446071222407 0.23044234454218968
0.5742599677289153 13.057911229377495 44755.10728788757 10.73756730472907 0.2337212776519297
0.5943142743514455 13.039575801124139 38015.35605027014 11.261155666233558 0.23704124516639988
0.6147460129842822 13.024569152348757 32920.34392999453 11.80716516243845 0.24040408037154218
0.6355427254861441 13.012480198915677 28311.187566830777 12.376574114714675 0.24381141499034503
0.6567103309561791 13.003047887109572 24385.51029193755 12.970096180323223 0.24726148076955798
0.6782368511440403 12.996008972168207 21040.045083378864 13.589008454108582 0.2507585105574663
0.7001202444549609 12.991079425325786 18047.600415608696 14.2345312933439 0.2543054084511907
0.7223474071386005 12.988016880460096 15738.575884109458 14.907853493272398 0.25790415736541383
0.7449323752935926 12.986662872778664 13643.176241748068 15.610036213039793 0.26155497388074384
0.7678468801778143 12.98675149296534 11843.64300558644 16.342281979265078 0.26525912177308675
0.7910872237884609 12.988122794177393 10296.192993040619 17.106235927566722 0.26902159715502355
0.8146543023924117 12.9906481551193 8962.4581707914 17.903351926790066 0.27284483028692796
0.8385315626488238 12.994117604041417 7812.618899664575 18.735033108795896 0.27673024630446175
0.8627085622231003 12.99837035945245 6819.502118964818 19.602547123388227 0.28067764525510663
0.8871767543625859 13.00332195232188 5959.976810136527 20.50801479402152 0.2846937166587718
0.9119326893878843 13.008817456072215 5215.138593572299 21.453228675494387 0.2887814707387678
0.9369470912976073 13.014706629129135 4568.735868511082 22.439720873415965 0.2929412210352353
0.9622211728009397 13.020904053971611 4007.923576956768 23.46941891434314 0.297175988970642
0.9877407230715117 13.027294339372691 3519.397995655101 24.544789672154337 0.30149225058852375
1.0134772853978908 13.03374799168937 3094.463557423837 25.667831851340818 0.3058920634225905
1.0394349760781476 13.040207107439041 2723.748805892319 26.840391166530278 0.3103758395494921
1.0655832703632515 13.04654076500507 2400.1873532737163 28.06561681238425 0.31495272292969934
1.0919056210373275 13.052661565596495 2117.4381024458175 29.345629115929814 0.3196236165727874
1.118399825037317 13.05850163957031 1870.2060546787493 30.683049298418148 0.32439229259009056
1.1450257364537417 13.063954754193382 1653.514237558011 32.081413478662334 0.32926773653495545
1.1717838014334645 13.068969248964422 1463.4425523931584 33.5425120900575 0.3342466745099605
1.1986341002092376 13.073436323906801 1296.567381691727 35.07095531272449 0.3393431399359133
1.2255751446861738 13.077300566921194 1150.0648303916807 36.668851628309675 0.3445544228629706
1.2525656782482195 13.08047214720628 1021.1221313798163 38.34108564459454 0.3498939553929894
1.2796040363381456 13.082917274783258 907.5634718072106 40.09004759785673 0.3553592304372805
1.3066434310115123 13.084516545654873 807.5137573902717 41.92114456178721 0.3609644355401873
1.3336757005647275 13.085231771520005 719.2708318964919 43.83773369949958 0.36671082144461903
1.3606798172762729 13.085037947146613 641.255058675832 45.84471721810993 0.37260734449924954
1.3876075269873127 13.083793526725502 572.3573079405987 47.94731519080884 0.3786633507245287
1.4144593222161899 13.08151107721438 511.3293449373031 50.15014880233163 0.38488382009984634
1.4411883175511961 13.078085924131415 457.32298959811857 52.45868462443599 0.39127702303155587
1.4677714085404006 13.07348249846966 409.4136247717447 54.87920694821978 0.3978539876112455
1.4941785792747873 13.06762827117805 366.8992761013306 57.41789743182273 0.40462376109424697
1.5203884758171813 13.060499451610243 329.1695166653866 60.08137510752375 0.41159609969277805
1.5463701325365191 13.052026747620802 295.59445564103163 62.87673574764137 0.4187815269306707
1.5720837959371718 13.04216139616703 265.73322203243646 65.81159499832964 0.4261913967595064
1.5975065773787427 13.03085255789121 239.16442350858918 68.89413566361362 0.4338379619934711
1.622593902836274 13.018053201079516 215.4613387542548 72.13315956953036 0.4417344486884745
1.6473461534059983 13.003729099539415 194.30683548775016 75.53814449212798 0.44989513716668245
1.6716954891058846 12.987816529908107 175.41920703806557 79.1191977941455 0.45833499566182345
1.6956341686678162 12.970290040080137 158.53083829882064 82.88613442609613 0.46706574970547576
1.7190978383558975 12.951065073365896 143.44975656553373 86.85185033317592 0.4761096713553288
1.7421024558878615 12.930184162842407 129.92031842555517 91.02811887802274 0.4854819237935139
1.7645884701899799 12.907567618378115 117.80162600578485 95.42858850077181 0.49520271616857325
1.7865145577919679 12.883146883865756 106.93757930025932 100.06734270457065 0.5052912568869057
1.8078554227473491 12.85691537781796 97.18797801139856 104.96066726723825 0.5157723578262131
1.8285798883484128 12.828832612544986 88.42600849550944 110.12493688087835 0.5266679972757768
1.8486565722465116 12.798869334833599 80.55368355560945 115.57792375347992 0.5380021538961504
1.868046179860064 12.766992970987985 73.4619460067716 121.33987716291736 0.5498043709336047
1.8867221036181512 12.733175983316121 67.07853178345307 127.43208179974393 0.5621040142062217
1.9046519918715341 12.697387774115397 61.32530041129578 133.87721485103933 0.5749312980939577
1.921800483015491 12.659607282908627 56.134878057062 140.7003664937365 0.5883205065775847
1.938128919720416 12.61977974640169 51.44785821077029 147.92944233061044 0.6023108240306977
1.9536235698642375 12.577935563547978 47.21707591843284 155.59321037521102 0.616939040270084
1.9682549761378416 12.53404999305875 43.38563513925925 163.72480080951917 0.6322510932578282
1.9819836258131354 12.488091110809659 39.92176262661168 172.3580596974543 0.6482889298886038
1.9947810409227498 12.440047244377505 36.78326091887065 181.53239449690784 0.6651062526320156
2.0066231748442993 12.389911592670373 33.941697591319866 191.28956251160548 0.6827568107119939
2.017487686054599 12.337692266284838 31.360560567978364 201.67551023673997 0.7012997228994254
2.0273374333733236 12.283349661247662 29.02183267646394 212.74045991912357 0.7207987512913312
2.036161962253895 12.226921341222445 26.898333464406488 224.53905873026966 0.7413216869564355
2.0439211628541196 12.16837248415434 24.968104669720447 237.13309883380524 0.7629479633832156
2.050595946936319 12.107706274385299 23.211553037106547 250.5886288218015 0.7857577792682193
2.0561793248522493 12.044979692767715 21.615195179289497 264.9791467584136 0.809840896341099
2.0606484627737327 11.980196279278633 20.161427786058894 280.38637289091884 0.835297288175897
2.063977490528638 11.913356585121969 18.8398688038723 296.89925866767703 0.8622317767414647
2.0661501061203538 11.844486176530362 17.635780059943627 314.6180898741697 0.8907649880499777
2.067162637362203 11.773642649987378 16.539564237228213 333.6525653553263 0.9210242581381023
