M[M_sun], R[km], Lambda[1], P_c[MeV/fm^3], rho_c[fm^-3]
0.24162668629717493 15.618656898711224 2160425.4255784233 3.5677272577965504 0.1711233750220791
0.2536366399125977 15.27746945632863 1723468.15103081 3.784699583117502 0.17388667702575816
0.266026433448086 14.981568836449588 1383335.387623857 4.011149179623204 0.17666361216679635
0.27879345040175435 14.72392921728951 1116770.112724801 4.247335870061258 0.17945296361306054
0.291939555046443 14.498922283089083 906268.198622771 4.493883024894092 0.18226126461258116
0.3054674996963004 14.301737332981256 739068.7136539193 4.750937552773789 0.1850840511590775
0.319375250326471 14.128669945306953 605429.979686499 5.019195859459867 0.18792825257988036
0.33366354921812186 13.976529597163488 498047.76092903735 5.29886259340106 0.19079011275177915
0.34833549013039117 13.842523525894421 411321.96296882565 5.590688549640276 0.1936763781136111
0.36338759530230885 13.724545276102681 340955.59471480513 5.894812904729753 0.19658159326818306
0.37883160475463223 13.620528342145068 283583.4689768513 6.212111090059797 0.19951367878661563
0.39464759890585305 13.52907444718122 236672.30355730775 6.54286172254642 0.20246919142704822
0.4108663252131548 13.448364679831576 198096.47812891257 6.887724536590234 0.20545112299289586
0.4274623070162261 13.377524969750327 166301.89837098526 7.247422804814941 0.20846288622523262
0.44444478771810786 13.315375178610912 139991.72230596998 7.62224577484194 0.21150051468293646
0.46181266613831495 13.261016362102644 118141.30576935533 8.013081573318447 0.21456923304444928
0.4795656797584233 13.213539396779138 99958.41902887146 8.42066186524594 0.21767113479613018
0.4977087446361508 13.172346544328647 84773.10848432915 8.84546842678579 0.2208042841495475
0.5162339525798085 13.136717244998234 72057.54959413763 9.28829227280956 0.2239709317701657
0.535136237889483 13.106145730908903 61376.34666616384 9.750054864874222 0.22717455142227203
0.5544300108130551 13.080087195488332 52394.74330882179 10.231563942096907 0.2304164910766373
0.5740937679422002 13.0580673628532 44810.598018860954 10.733348531938141 0.2336941918237997
0.5941408599968278 13.039734712730263 38400.4791316725 11.256536835077547 0.23701238662575339
0.6145597242802638 13.024668033080854 32965.869153896645 11.802119006388477 0.24037339132343288
0.6353442995627175 13.01257177495772 28348.181289882978 12.371071666974757 0.243778834588979
0.6564953957051287 13.003124113714037 24421.696253324226 12.964162707726084 0.2472275674733277
0.6780156749375705 12.996062471729337 21073.112577957378 13.58255974210623 0.25072260585675055
0.6998861375419025 12.99112456958253 18212.1379501432 14.227532790027576 0.2542674412291376
0.7221028527667105 12.988027669997743 15765.179153845605 14.90026842775163 0.2578640522647935
0.7446728806779926 12.986664144630417 13665.11123633507 15.601899425130657 0.26151338401829705
0.7675751844308207 12.986749212507194 11863.195122649615 16.333483339181033 0.2652152627590429
0.7907996875381123 12.98811236909175 10313.266772478635 17.096731309480607 0.2689753794158045
0.814357605794833 12.990610850911311 8978.733665928825 17.893094280748212 0.27279615848991623
0.8382210738563202 12.99405973899907 7826.620476803148 18.724067918658257 0.27667986692932106
0.8623835689543959 12.99831686421317 6831.8496941737385 19.59073189788894 0.2806246377897641
0.8868382953418865 13.003258395799401 5970.8881471468285 20.49529271008369 0.2846379665143659
0.9115825466128069 13.008730771000875 5225.10647818941 21.43953902075538 0.2887228556015213
0.9365825589841466 13.014611559722983 4577.77764092157 22.42512065271343 0.29288058003054207
0.9618411948732556 13.020808072483497 4015.3767032667392 23.453725020182336 0.2971122514033447
0.987346933526352 13.027194316602985 3526.3160032901237 24.52792829297882 0.30142526833353195
1.0130712372154638 13.03365184868202 3100.5228120429633 25.649868226893084 0.30582273833624796
1.0390151558691831 13.040104086509622 2729.3462408209257 26.821105833652872 0.3103029830345824
1.0651507195898948 13.046435924187573 2405.1620647297354 28.04491957012132 0.314876154830718
1.091461020219136 13.052559047303031 2121.9339097840057 29.323593282754796 0.3195443011034278
1.1179411914615818 13.05839874930065 1874.2282028401144 30.65941197363488 0.3243089103952571
1.1445529536467132 13.063857547960252 1657.0216415856662 32.056094195237414 0.32918026393325905
1.1712990739931473 13.068884668074062 1466.608358806582 33.515531066018696 0.3341557456770897
1.198140427380585 13.073365499050515 1299.432621406625 35.04202773885641 0.33924748429141455
1.2250667140367977 13.07723797897349 1152.6808230208355 36.63806140085109 0.34445509835541405
1.252046422096548 13.080418612771162 1023.4369326832805 38.30807877876091 0.3497893968778529
1.2790726834379513 13.082883356501338 909.7120729283017 40.054910082283456 0.3552505267027823
1.3061003611152848 13.084484809369421 809.4124406003929 41.8837312651445 0.3608513294763468
1.333122643661477 13.085232098339915 720.9443855018123 43.79762549833907 0.36659159912833583
1.3601176979320664 13.08505286863725 642.818705230045 45.801998095083675 0.3724831230924434
1.3870380879576463 13.08383520439253 573.7181542850326 47.9018028279776 0.3785338078482006
1.4138734172176683 13.081551404876326 512.6126444093622 50.10134457086401 0.3847470652649366
1.4406016535303923 13.078172583112229 458.4492974788673 52.40666594241191 0.39113419922043363
1.4671736829301278 13.073587425213951 410.4548213082623 54.82374367810467 0.39770469046294726
1.4935804751444084 13.067775065020426 367.82325215619426 57.35874080424739 0.404467555005012
1.5197829819305575 13.06068365981305 330.0083297062246 60.018256054083686 0.4114325152520632
1.545760786440798 13.052241571457905 296.34272743157334 62.809363067436756 0.41861005810318436
1.5714722771885372 13.042414300134261 266.4348038818142 65.73965333974155 0.42601149778603076
1.5968857950971165 13.031134186706504 239.7601603055693 68.81728330056059 0.43364904398003423
1.6219798350237773 13.018376584913648 216.00827856454842 72.05102594890192 0.44153587584981757
1.646718002590695 13.004102030673428 194.80500559335357 75.45032752620166 0.44968622268585784
1.6710836773585909 12.98824373928509 175.87762124553663 79.02536976850814 0.4581154519329644
1.6950146295861077 12.970762186922004 158.95740758805485 82.78608252403022 0.4668358307259267
1.7185033282543487 12.951626576607245 143.81125302403484 86.74471087305051 0.47586705319176203
1.7415027345026026 12.930785542143347 130.26331950919302 90.9138472443563 0.48522771147048244
1.7639866966192472 12.908204476992493 118.11855476068263 95.30608502525857 0.49493391618960036
1.78591866205242 12.88384263779397 107.22014805286048 99.9365007553635 0.505008905636934
1.807256366811168 12.85764471388363 97.45270663004156 104.8208090225851 0.5154753685505378
1.8280019867114055 12.829649889616551 88.66229465163862 109.97473199666759 0.526352993836394
1.8480783942342576 12.799728518054259 80.76250553976396 115.4171368061374 0.5376700235462507
1.867492075014564 12.767946046954783 73.6614211399095 121.16762478991342 0.5494537282256212
1.8861805457664491 12.734201949165458 67.2579020336893 127.24739793078453 0.5617333551548387
1.9041149693032164 12.698450620893576 61.49010190499526 133.6795653960533 0.5745408354657431
1.9212830685291158 12.660747095262668 56.282315547530104 140.48825065478084 0.5879072242597222
1.9376404195008359 12.621027339419927 51.58510593129023 147.70143628066387 0.6018722430496172
1.9531534936586787 12.579244523355744 47.33836918941268 155.34867051974848 0.6164756127651978
1.9678052179709768 12.535446792908969 43.50184314550907 163.46147932657564 0.6317580411523999
1.9815606658448828 12.489586854929623 40.027414248731496 172.0750771994848 0.6477664336467693
1.9943961304384359 12.44166814314122 36.87927230283097 181.22795859528946 0.6645517184159749
2.0062527979069515 12.391579294527968 34.02981362813463 190.96169855453522 0.6821674057442318
2.017139332975417 12.33943158915727 31.442890113143445 201.32204010023014 0.7006723482740743
2.027021634145284 12.285187890521065 29.097380288494506 212.3593566792278 0.7201312520072447
2.035880841067571 12.228866213921098 26.967525213654152 224.12782762458033 0.7406108642002274
2.0436734081225434 12.170406131847207 25.03014915020866 236.68891443142397 0.7621901023841495
2.0503840628827477 12.10984206936887 23.271156121906984 250.10795118285762 0.7849474654208055
2.0560090636316013 12.047230973688327 21.669496327129824 264.4590487196283 0.8089754229875011
2.0605029387039053 11.982505357760235 20.212275155872184 279.8229044590721 0.8343714214824182
2.063871932126107 11.915769230695275 18.884533030649212 296.28906797991965 0.86124315849265
2.0660910002205775 11.847009815166107 17.67679341847134 313.95527104103195 0.8897039454645551
2.067145405282662 11.776264527938707 16.577765415454476 332.9327521908873 0.9198873707431408
