M[M_sun], R[km], Lambda[1], P_c[MeV/fm^3], rho_c[fm^-3]
0.24162668629717493 15.618656898711224 2160425.4255784233 3.5677272577965504 0.1711233750220791
0.25364410219582817 15.277302865249155 1723174.5497120465 3.784821547476167 0.17388819725265137
0.2660399344244601 14.981256162406014 1383015.0760758012 4.011405567656035 0.17666671046486326
0.2788154265850932 14.723501007877545 1116472.8262563052 4.24773535022573 0.17945759698096464
0.2919698936233145 14.498401755284362 905849.2068812327 4.494436074113622 0.18226742294399664
0.30550511561401905 14.301237808931806 738682.0880963826 4.75166294296811 0.18509188675760416
0.3194214620681803 14.12814309768539 605107.7288539873 5.02009892798145 0.1879376222643442
0.3337198002248978 13.975943379121214 497673.7643999768 5.299967107676747 0.19080123337781474
0.3484009597100806 13.842027994564873 411007.15502888506 5.591997261141556 0.1936890402574001
0.3634640222750384 13.723974485471718 340641.94901244616 5.896355206048053 0.1965960788885503
0.37891695110093226 13.620005933911491 283317.8391312832 6.213905636081956 0.19953004288556364
0.39474937988482534 13.528454060147709 236412.0193203536 6.54490664387878 0.20248712262457963
0.41097442151494334 13.447890074254934 197874.12437037393 6.8900592977850055 0.20547100679897506
0.427582370265533 13.377053778893458 166077.9464653413 7.250069303895261 0.20848478003388451
0.44457735533079407 13.314929835193693 139801.46734709156 7.6251966914570515 0.2115240058766259
0.461958816020189 13.26057070805671 117982.64290827795 8.016388361854759 0.21459481372720135
0.4797237392414779 13.21315399642754 99807.51130103056 8.424350298163429 0.21769886665533503
0.49788124427503117 13.171980010008063 84644.54445888648 8.849524899583685 0.22083365474580174
0.5164186941333427 13.136412639192425 71937.03793360342 9.29278240985548 0.22400254261489638
0.5353376327983067 13.105842407208577 61275.30124987619 9.755009094354271 0.2272084706997189
0.5546460250192764 13.079806821141734 52300.71092500325 10.237014540425353 0.23045278993521945
0.5743270736626658 13.05783786210063 44730.42408216089 10.73927181394843 0.23373222112910885
0.5943838009569957 13.039538735016523 38328.82427272595 11.263021846594762 0.23705290509506766
0.6148201674629937 13.024503144404628 32901.84496342656 11.80920403698851 0.2404164801305936
0.6356247929506597 13.012431638050874 28291.60872023955 12.378797394138463 0.24382457919278722
0.6567948925301765 13.003028412667309 24370.989924215293 12.972493655065758 0.24727518375205554
0.678327194381468 12.995970883672314 21028.21324120795 13.591614165656477 0.2507730184612531
0.7002147953834343 12.991067166243496 18172.161806404678 14.237359211210693 0.25432075004363464
0.7224491427982402 12.98800189841125 15730.121220384675 14.910918484460531 0.25792036312918265
0.745037088556756 12.986650224286956 13634.284552548168 15.613324197346039 0.26157177987551117
0.7679569423335997 12.986761426487963 11836.650254793767 16.34583747833007 0.26527684504417576
0.7912012657558424 12.988138405892299 10289.070217231525 17.11007678323616 0.26904027393552116
0.8147768648244248 12.990654895143654 8956.448207841875 17.907497163699453 0.2728644991396644
0.8386566940883109 12.994136037938562 7807.362110051271 18.739464342167487 0.2767506055290225
0.862839349715389 12.998395311791004 6814.775818088804 19.60732196361648 0.28069906695187663
0.8873195624205819 13.003349883651394 5955.470702391908 20.513156219009264 0.2847162471802586
0.9120731518986365 13.008852230439327 5211.18225570751 21.458761236478367 0.28880515956274355
0.9370956408195485 13.014732206431903 4565.429757192978 22.44562152543005 0.29296572898438
0.962378526034506 13.020944217563084 4004.5489818199712 23.475761697380996 0.2972017488971832
0.9878981991522005 13.027329899301161 3516.546213772176 24.551604436638016 0.3015193224126968
1.0136401055998085 13.033797150464988 3091.850717365418 25.675092220470244 0.30592008258532916
1.039604761583343 13.040246800753378 2721.4196332121296 26.84818588827437 0.3104052866046493
1.0657556822327343 13.046570040507909 2398.3933201157406 28.073982367889155 0.3149836707571343
1.092087590823227 13.052699370380243 2115.8153734084376 29.35453585905825 0.3196556753792816
1.1185851521559822 13.058539543281105 1868.6378339870182 30.69260355189899 0.3244259958383444
1.1452158833482895 13.063993595569416 1652.1362407195763 32.09158406268034 0.3293026816598791
1.1719787758060671 13.069004620950436 1462.077072508871 33.55341828701293 0.33428342951817624
1.198835746295932 13.073462030291225 1295.5252854860353 35.082648588819616 0.33938180642990556
1.2257806923198853 13.077333822945695 1149.0793576259377 36.681298054528234 0.34459457310728636
1.252775802842458 13.080493284486321 1020.1670291565301 38.354419712314794 0.3499361713499144
1.2798179166671304 13.082939306855817 906.7045382225431 40.10425190777491 0.35540317382681397
1.306861551235251 13.084523253448623 803.3714064042352 41.93626913037861 0.3610101594024012
1.3338993132915737 13.08523238548525 718.6094688605538 43.85394807034732 0.3667590189402336
1.3609061827139235 13.085033416190637 640.6345143269155 45.86198742137433 0.37265756390436267
1.3878376838095643 13.083774770721574 571.8157081266742 47.96571498046354 0.3787157224654673
1.414694712903928 13.081483686906116 510.834282981679 50.169879902779336 0.38493910881771304
1.441417217271488 13.078033517105375 456.8820970330025 52.47971571777873 0.3913347665342053
1.4680112235714389 13.073434977968338 409.0142892719641 54.90163114174453 0.3979143495073109
1.4944208609482634 13.067571351321856 366.5342692304146 57.44181537383877 0.40468691763879666
1.5206325896781332 13.060424778624792 328.83739866430676 60.10689566245313 0.4116622408257217
1.5466162895827646 13.05193981878008 295.29005339720874 62.903976738462184 0.4188508574180645
1.572332018638364 13.042059772230719 265.4602699580196 65.84068402387241 0.42626413744879904
1.5977564927731145 13.030732424954824 238.92714262055827 68.92521099912369 0.43391435119502875
1.622842879782267 13.017913404887691 215.2409796506185 72.16637115994152 0.4418147436971907
1.647595695022723 13.003574383592118 194.1018093509114 75.57365504866455 0.44997961593914254
1.6719441016917465 12.987641381428888 175.24084382038407 79.15699862376924 0.458423184564866
1.6958819097538091 12.970094558397147 158.3657816619619 82.92659425960706 0.4671587262850457
1.7193618508545472 12.950883756631143 143.27946728750933 86.89517740385735 0.47620778585309786
1.7423469952947517 12.929944424963324 129.7802605355371 91.07433122206616 0.48558472924885815
1.7648275796810435 12.90729902586354 117.68022484689659 95.47813120176751 0.4953114239169054
1.7867536789427354 12.88286175416214 106.82174452601448 100.1202588977765 0.5054054477361399
1.8080929032277913 12.856609395679541 97.08205951746959 105.01723129445504 0.5158924716565708
1.8288032312006297 12.828477370801389 88.33325561253601 110.18558794891237 0.5267950308583319
1.8488833381199272 12.798514107527813 80.46383679653773 115.64295574364945 0.538136487547026
1.8682604990478746 12.76657608183937 73.38829484991156 121.40954834752583 0.5499461959338268
1.8869400135350007 12.732758422194301 67.00948882442378 127.50678325384632 0.5622539394285518
1.9048624501767237 12.696946764135271 61.25648023379202 133.9570999819617 0.5750890161465114
1.922005616602204 12.659130846515508 56.07559654863461 140.786168429061 0.5884876813764238
1.938320110548245 12.61924683342623 51.39171520437602 148.02167477223014 0.6024882377210034
1.9538176227454225 12.577404382624765 47.162631844679396 155.69213383530453 0.6171265101293391
1.9684338733406563 12.533479335963953 43.34316905391685 163.8311698596317 0.6324500270026496
1.982150370157433 12.48748196484137 39.880344693223556 172.47254157484528 0.6485003081580167
1.9949414735366524 12.43940853661864 36.74547402275992 181.65555936066454 0.665330599139126
2.006777551183749 12.389251561444144 33.903248313939876 191.42220997997836 0.682995272656755
2.017626005736569 12.336981120413352 31.328326855049063 201.81852236932062 0.7015535553277725
2.0274632468139915 12.282599365572924 28.99233028558547 212.89445025757882 0.7210681481755093
2.0362741009612653 12.226138088220372 26.870320520163414 224.7054521953249 0.7416093020220501
2.044020763312034 12.167546776883961 24.942609006590846 237.3127058705327 0.7632542098798193
2.050681371008662 12.106844297409618 23.188119483824863 250.78305878645517 0.7860854221437047
2.056255107420719 12.044102371956125 21.59351553839754 265.1896141322199 0.8101911262790094
2.0607034403823414 11.97925680637764 20.14226001463695 280.6140862811152 0.8356709482227795
2.064011499505233 11.912364647880533 18.821951511880922 297.14620322996456 0.8626318711801725
2.0661735421671574 11.843467831860849 17.619061037263343 314.8863446857413 0.8911944112416431
2.0671682856178712 11.772581532457469 16.524057197487586 333.9438992273868 0.9214843967174363
