M[M_sun], R[km], Lambda[1], P_c[MeV/fm^3], rho_c[fm^-3]
0.24162668629717493 15.618656898711224 2160425.4255784233 3.5677272577965504 0.1711233750220791
0.25364340282063913 15.2772918102993 1723204.0016404262 3.784808651743014 0.17388803651355872
0.2660380607423935 14.981321614746877 1383006.9095416693 4.011378458266968 0.17666638286389524
0.27881207992866786 14.723608451871486 1116487.876762743 4.247693110044175 0.1794571070585132
0.291966526329759 14.498495748719607 905972.1804904417 4.494377594741948 0.18226677176262068
0.30550105225992413 14.301288823926152 738667.0586631197 4.751586238781447 0.18509105820599606
0.3194168259279589 14.128196388572633 605112.1144716915 5.0200034339769015 0.18793663147718973
0.333714508220472 13.976005038063509 497718.3450239421 5.299850309786881 0.1908000574168665
0.34839406843023124 13.842084779135345 411040.05785947863 5.591858867771448 0.19368770126347362
0.3634551711591296 13.724061165591591 340677.04772731353 5.896192108035625 0.19659454703750234
0.37890860202906484 13.62004774618562 283333.11295461765 6.213715859748341 0.19952831235390667
0.394738231255834 13.528520095617678 236420.6568761595 6.544690386280774 0.2024852263375948
0.4109625685740281 13.447945071261747 197890.8142633862 6.889812384139742 0.2054689039787587
0.4275698730499005 13.377104334697469 166107.18397640347 7.249789417247794 0.20848246460337883
0.44456322215535804 13.314974440446539 139825.47865355248 7.624884605403542 0.21152152147096928
0.46194346290958227 13.260630560883323 117999.7566184532 8.016038632951151 0.21459210829138828
0.47970672251385976 13.213195920636034 99825.34049879585 8.42396019934365 0.21769593365755846
0.49786308459144896 13.172017128169163 84658.12613288868 8.849095869217415 0.22083054838263938
0.5163989113498617 13.1364354676474 71947.77164063143 9.292307505007356 0.2239991992551587
0.5353149983035699 13.105884968551205 61285.754443327314 9.754485095129318 0.22720488312365592
0.5546211553087304 13.07984970038188 52309.251871310684 10.236438031277956 0.23044895060919474
0.5743021973830014 13.05786344079644 44738.23195614534 10.738645299816659 0.2337281987143131
0.5943572563516999 13.03954387694027 38334.79402820665 11.262335905781775 0.23704861932445512
0.6147927873770527 13.024521088428246 32908.51231553564 11.808454617393673 0.24041192240907802
0.6355927757379884 13.012444286951578 28300.151543537584 12.377980190865575 0.2438197404715695
0.6567640526973136 13.003026248013217 24376.363953156306 12.971612420834353 0.24727014697855593
0.6782942497895659 12.995989229529611 21032.492139911425 13.590656386992093 0.250767685806254
0.7001802964249498 12.991060781716797 18040.478109977423 14.236319752803414 0.25431511093104436
0.7224115969653518 12.988009865812309 15733.405616376265 14.909791881053014 0.25791440635229074
0.7449982081070142 12.986646888783408 13541.170120404655 15.612115624556623 0.2615656024530897
0.7679166624100379 12.986752899045175 11838.722886038078 16.34453056992553 0.2652703304335631
0.7911597081995807 12.988128938146662 10291.75747794446 17.108664980301317 0.26903340881592563
0.8147321819387732 12.990654915935997 8958.723088523782 17.90597347247888 0.2728572693337719
0.8386122296012909 12.994128386608379 7809.671209037993 18.737835520752817 0.2767431219373969
0.8627904214479243 12.998401178264603 6816.537793321383 19.605566833915262 0.28069119279180965
0.8872638948103331 13.003334314915886 5956.7055964508445 20.511266333881935 0.28470796541059934
0.9120229572241398 13.008841549101417 5212.681659032923 21.456727570356065 0.2887964519933311
0.9370407715196527 13.014725001546646 4566.608360441976 22.443452549675506 0.29295672029392317
0.9623174267631578 13.020921720241251 4005.9228870795455 23.47343019369193 0.2971922799679447
0.9878407838511801 13.027318318207913 3517.612530243039 24.54909943121226 0.30150937121532223
1.013580475973743 13.033777936413799 3093.1558217767742 25.672423409642455 0.30590978313036077
1.0395426662894696 13.040228931407853 2722.3459133974084 26.845320646352324 0.3103944622366106
1.0656909226137774 13.046557899086963 2399.016906632148 28.070907283266408 0.31497229468196547
1.0920211878945576 13.052681897295017 2116.5786213717797 29.351261830109966 0.31964389088533174
1.118517476715439 13.058523019923143 1869.1820787359472 30.689091491451926 0.32441360681754156
1.1451466108518782 13.063984288197057 1652.530004065063 32.08784543305513 0.3292898360967271
1.1719071169516881 13.06899237191243 1462.6139861577149 33.54940923623715 0.33426991860371147
1.1987611537500609 13.073448857463124 1295.838615124512 35.07835019587831 0.3393675928097456
1.2257046403940612 13.077325473022443 1149.4607560235931 36.67672279263559 0.34457981402065596
1.2526991050777472 13.080488491370449 1016.0579838328835 38.349523632066365 0.34992068508750934
1.2797384870697508 13.082934341015124 906.9918554316192 40.099030416212656 0.35538702027630803
1.3067815530347997 13.084521770783173 807.0567938386329 41.93070933407852 0.36099335129588056
1.3338172950820937 13.085233922942782 718.8401427896965 43.84798763766046 0.36674130145177947
1.3608242291987762 13.085033153603893 640.8644626654565 45.855638840915354 0.37263910309477744
1.3877530239508533 13.083780161121938 572.0195272746658 47.95895113685119 0.37869647038313037
1.4146081057547009 13.081495590001769 511.01469032464684 50.16262663199101 0.3849187843536372
1.4413305117598234 13.07804452332648 457.0499054929105 52.471984533696826 0.39131353959934073
1.467923827164219 13.073453113478067 409.1701980629195 54.893387813235506 0.3978921599494949
1.4943326445317577 13.067590677685233 366.676948197727 57.43302289708581 0.4046637006559401
1.5205428559771355 13.060453226181766 328.9658602285841 60.09751401271775 0.41163792658396264
1.5465253909705943 13.05197197278328 295.40073392930066 62.893962597077945 0.41882537063208203
1.5722417204295769 13.042098370347695 265.566098439859 65.82999047771214 0.4262373969202263
1.5976647524276841 13.030776200559544 239.0131914785139 68.9137872094442 0.4338862693044214
1.6227518585372516 13.017964720542386 215.31962671281 72.15416199713614 0.4417852258444851
1.6475032877948081 13.0036320698653 194.17572025319416 75.56060068901424 0.4499485599269008
1.6718529017191515 12.987705712015327 175.30592412373355 79.14310226451772 0.45839076451771693
1.6957902650638603 12.970164997816928 158.42463077843152 82.91172032834845 0.46712454603433334
1.7192551181105238 12.950925860538268 143.33855076713635 86.87924933837623 0.47617171662154045
1.7422580018677345 12.93003327756392 129.83026427643435 91.05734239224363 0.4855469353558665
1.7647377345308823 12.907394878256538 117.72318639926763 95.45991795888631 0.49527145999520455
1.7866661183794061 12.882967407146667 106.86468312658567 100.10080538338136 0.505363467896042
1.8080055623623577 12.85672179151236 97.12407345655699 104.99643663845734 0.5158483141609723
1.8287181431090094 12.828599680580592 88.3677816076251 110.16334212681384 0.5267485207618852
1.8487987502497827 12.79864519864713 80.49711602036909 115.61904776650206 0.5380871019162482
1.8681876995615418 12.766750355893151 73.40952441114229 121.3839347184275 0.5498940559713305
1.8868602310513332 12.732911584050122 67.03514570160657 127.47932017767145 0.5621988212538006
1.9047851028125384 12.697108218210062 61.28146156693803 133.92773105548156 0.5750310327666689
1.9219305265015432 12.659307478071264 56.097064470703735 140.7546240808128 0.5884262209903268
1.9382470636399722 12.619431111378603 51.41250419902948 147.98776611357027 0.6024230127290101
1.9537580445637748 12.577638594206999 47.1812622733724 155.6557650794422 0.6170575876964162
1.9683680093133051 12.533689750442697 43.35619044763854 163.79212062925657 0.6323770827157872
1.9820879974114651 12.487705903422711 39.8962374679273 172.4304523528443 0.6484225950115322
1.9948823101498507 12.439644583964292 36.76020711844941 181.61027757992292 0.6652481177476377
2.0067163626716673 12.38948694433045 33.91889236315385 191.37344161000337 0.6829076011731623
2.0175758406513933 12.337242663701138 31.340780254535876 201.76594306167038 0.7014602322432143
2.0274170244562937 12.282873807564757 29.003383913764008 212.83783440810421 0.7209691021340722
2.03623252887685 12.226424951066665 26.880317369302862 224.64427582096084 0.7415035572025589
2.0439837205552696 12.167848463903518 24.95161797294459 237.2466709565728 0.7631416142854471
2.0506501778108746 12.107162062887468 23.196780664719537 250.71162267036215 0.7859651190954982
2.056224012848991 12.04441119044667 21.601850214442354 265.1122319064298 0.8100623577594821
2.0606836327730114 11.979602071252547 20.149321807635317 280.53039821387796 0.8355336803142834
2.063996565818668 11.912723426008652 18.82823341462956 297.05540818430524 0.8624847669374468
2.0661655396016654 11.843841997511689 17.62520741770897 314.7877136430019 0.8910365223414505
2.0671664156058345 11.772968068341362 16.529685983179192 333.8367817206376 0.921315213172012
