M[M_sun], R[km], Lambda[1], P_c[MeV/fm^3], rho_c[fm^-3]
0.24162668629717493 15.618656898711224 2160425.4255784233 3.5677272577965504 0.1711233750220791
0.2536389948915452 15.277446645756696 1723354.0154778021 3.784748496496902 0.17388728670743578
0.26603157414136686 14.981443855263223 1383214.078158767 4.011252001738965 0.17666485471138388
0.2788028983250029 14.723733912096503 1116631.1386160743 4.247496075871148 0.17945482175903024
0.29195252783064884 14.49868719761939 906155.6700346678 4.494104814519583 0.18226373429153567
0.3054831575998507 14.301506006465855 738899.79458919 4.751228452590703 0.18508719343229083
0.3193946300623285 14.12843857871782 605279.2416128903 5.019558008304789 0.18793201001392304
0.333686282755277 13.976278257491469 497899.97965937475 5.299305520446743 0.19079457229218033
0.34836212841764774 13.8423479318773 411208.94608997426 5.591213356648144 0.19368145576578166
0.3634182356424014 13.72431309702269 340835.55564087443 5.895431375998102 0.19658740208121786
0.37886422558120314 13.620350269839014 283468.6749595902 6.2128307039410995 0.1995202407987416
0.39469210859262305 13.528753410452847 236561.1334302298 6.543681727800526 0.2024763817653539
0.4109093423831049 13.448187478543238 198005.05671592554 6.888660755123459 0.20545909622279365
0.4275096697017464 13.37734933485344 166215.6062047629 7.248484014694716 0.20847166534260322
0.4444983699718433 13.315212051119769 139913.66919551152 7.623429039223545 0.2115099342282505
0.46187247878514603 13.260810972874024 116763.41543234156 8.014407520220482 0.21457949031571855
0.47962850654757555 13.21339561342932 99908.8406872145 8.422140825415195 0.21768225450905457
0.49777859965971244 13.172219302691774 84721.79593038606 8.847094943973309 0.22081606082894248
0.5163074414295088 13.136600100610806 72008.90541094559 9.290092654686065 0.223983606570817
0.5352172451452163 13.106019350945218 61336.58035084106 9.752041307921745 0.22718815166286094
0.5545171228270454 13.07995211337646 52358.120500698096 10.233749383436813 0.23043104526341765
0.5741866230589133 13.057971025110877 44777.06160771323 10.735723474291676 0.23370943968937444
0.5942380956313164 13.039676605799555 38370.07741139598 11.259136973301922 0.23702863233643215
0.6146638876646596 13.024605686231366 32941.193690716216 11.80495968722835 0.24039066740251064
0.6354551724269768 13.012534536639658 28326.780305409335 12.374169194039121 0.24379717527657283
0.6566187599083128 13.003085155338397 24402.85434089503 12.967502857582609 0.24724665840021467
0.6781413075869054 12.996022051280278 21054.63358195752 13.586189915944006 0.2507428176920975
0.7000179270320481 12.991102721646527 18196.605770803944 14.231472434586303 0.2542888139931431
0.7222413464924345 12.988015724107093 15751.036804032927 14.904538238524555 0.2578866283638673
0.7448196970932925 12.986651034013088 13652.85770446783 15.606479790859233 0.26153679580962486
0.7677276539733493 12.986755601584662 11852.067047985116 16.338436245764935 0.2652399517561318
0.7909623029397412 12.988122679198709 10234.90754685742 17.102081591446215 0.26900139602524575
0.8145256656132057 12.990628266169171 8969.915009246675 17.898868418160042 0.27282355635906475
0.8383951544813414 12.994091389115226 7818.631196170997 18.730240309996347 0.27670822587383853
0.8625664699961137 12.998351271099214 6824.901513773622 19.597382740861125 0.28065447592771314
0.8870296821111405 13.003291484681474 5928.664997781209 20.502453984487396 0.2846693483291761
0.9117792447969695 13.008782735120697 5219.228169919498 21.447244895002893 0.2887558499235282
0.9367876616123242 13.014665559760354 4572.645256555754 22.43333904192333 0.29291471454047874
0.9620550457664782 13.020856300375685 4011.179788398754 23.462558978387456 0.2971481287324404
0.9875686579488927 13.027250371621303 3522.482743148965 24.537419359818657 0.30146297183646564
1.0133037442180493 13.03372123557422 3097.375274835611 25.659979683710663 0.30586176039546364
1.0392496983203408 13.040160121881481 2726.106762010287 26.83196119243593 0.3103439926253453
1.0653943635296859 13.046498904042553 2402.3993792695956 28.05656959299276 0.3149192533311377
1.0917124100205011 13.052619034586806 2119.421378406984 29.335996705460545 0.31958894580942815
1.118199489707084 13.058456412187413 1871.9473078630635 30.6727167504504 0.3243558438576019
1.1448198788488464 13.063916701048084 1654.9823711104184 32.070362684033 0.32922960991809297
1.1715715000536997 13.068933329870077 1464.763782364519 33.530717736568754 0.3342069263226547
1.198421578239155 13.073412477626443 1297.8693680993217 35.05830994552824 0.3393013251347621
1.2253533923774411 13.077273898889455 1151.2140382626417 36.65539192864426 0.34451100395536677
1.2523394955077498 13.080445525329395 1022.1243814255778 38.32665683263193 0.3498482480798019
1.2793714710080728 13.08290372072051 908.4613390292883 40.07468727070795 0.3553117107166359
1.3064065603845014 13.084505363874404 808.3646646951822 41.90478925966526 0.3609149909840552
1.333433390346347 13.08523396238563 719.9898686775939 43.82020015392496 0.36665870267948925
1.3604337908591282 13.085046381568395 641.9751706491078 45.82604215065107 0.37255303993989536
1.3873580822719749 13.083808721507951 572.9678332007061 47.927418878788586 0.3786067193978498
1.4142074500805193 13.081535820009085 511.8769105288453 50.12881320387778 0.38482403540174714
1.4409309334868012 13.078125552551054 457.8174176576316 52.43594359219398 0.39121458467734777
1.467513258653217 13.073534767635344 409.860725653882 54.85495984557063 0.39778871877166033
1.4939170491743627 13.067692457205533 367.3044218969242 57.39203547330853 0.4045554712750832
1.5201241517235509 13.060578877487938 329.52852463927746 60.05378062954532 0.4115245836132284
1.5461035972554331 13.052120932336653 295.92764200676123 62.847281406413 0.41870656329052053
1.5718166914719987 13.042273854628176 266.0341726476825 65.78014288699498 0.42611274688329015
1.5972332988316351 13.030971801169683 239.42756228459248 68.86053633943807 0.43375536833826117
1.62232442953559 13.018200399691983 215.70549569322014 72.09725098097363 0.4416476332004038
1.6470762437737252 13.003892885970629 194.51827972657858 75.49975079433226 0.44980379946949234
1.6714308308730117 12.98800210686963 175.61889130629496 79.07823693993515 0.45823926586855485
1.6953650956041248 12.970499033709016 158.72497211663799 82.8423908024143 0.466965226985657
1.7188297704432436 12.951294592373612 143.604736832095 86.80500748178245 0.47600359534404396
1.741845641339417 12.930456564443773 130.07578626046157 90.97815729513741 0.48537077766179165
1.7643253487631427 12.907848534807496 117.94323573775185 95.37502723197416 0.4950851907851811
1.7862541509732475 12.883454498335746 107.06583462448563 100.01013512312562 0.505167805408028
1.8075986614515076 12.857242113853252 97.30294601192062 104.89951691981325 0.51564250493528
1.8283282858677743 12.82919440836682 88.53278544677487 110.05926189586874 0.5265302664272219
1.848407323162405 12.799256565768834 80.64498645331824 115.50762117273796 0.537856933023893
1.8678056007066492 12.76741225639084 73.5468343449527 121.2645606175009 0.5496510540475715
1.8864863885894496 12.73362528695743 67.15666939263913 127.35132873821419 0.5619419434560715
1.904422419704247 12.697867873419412 61.394671358219874 133.79085948586376 0.5747608057899982
1.9215617368913736 12.660060626431292 56.203017819486064 140.60761675216088 0.5881397948100512
1.937915462713057 12.620327594490755 51.50820276358751 147.82974320925183 0.6021190478104238
1.9534199485665786 12.578508417610715 47.27165205561844 155.48628038027027 0.6167363972258278
1.9680596795410812 12.534667886782646 43.43891468614936 163.60965665512143 0.6320354934248068
1.9817970679255947 12.488741735712118 39.96696954888363 172.23431673726094 0.6480604520423822
1.99460537276432 12.440735681409402 36.826657398978206 181.3992686689654 0.6648637620905243
2.006461814993946 12.390640639234752 33.980594517801485 191.1461900067554 0.6824990682405303
2.017345035696695 12.338478762014896 31.39919947197346 201.5209382167891 0.7010253728112851
2.0272006206887085 12.284155460409774 29.055516196201406 212.574014666228 0.7205075486456081
2.0360261719583446 12.227738176124006 26.927877447752056 224.35922291126116 0.7410108364619957
2.0438127651073983 12.169262464145044 24.99438670783933 236.9389860834961 0.7626169833124374
2.0505029414110463 12.108642389444121 23.23767651762496 250.37841695932917 0.7854034095841496
2.056102225170518 12.045952957299622 21.638551062088798 264.75169191083677 0.809462398259883
2.0605878243812237 11.98121154108426 20.18445100480467 280.1399468928216 0.8348923717490837
2.06393506186188 11.91441840715428 18.86002275909353 296.63239508441615 0.8617994099196676
2.0661252616078793 11.845589541405493 17.65398215130892 314.32820463140956 0.8903009387923578
2.06715443453252 11.774789841512582 16.55590773703117 333.33774814042295 0.9205270294945841
