M[M_sun], R[km], Lambda[1], P_c[MeV/fm^3], rho_c[fm^-3]
0.24162668629717493 15.618656898711224 2160425.4255784233 3.5677272577965504 0.1711233750220791
0.25363874010471854 15.277425607276973 1723280.4885280274 3.7847395681260445 0.17388717541960022
0.2660301550033725 14.98146677178974 1383202.5307504085 4.011233233032467 0.17666462790264237
0.2788009110497689 14.723809584162138 1116697.5306706256 4.2474668323803835 0.17945448257860638
0.29195028622934827 14.498695831474958 906176.379434426 4.494064329417132 0.18226328348052379
0.3054797262827037 14.30157389389218 725697.3076072314 4.7511753518511375 0.18508661984295924
0.31939052341007396 14.128497986842795 605316.3602197815 5.0194919013481805 0.18793132412873328
0.3336824618689989 13.97630276164328 497951.18805413286 5.299224667605168 0.19079375823822478
0.34835737563239244 13.84238766999106 411238.6469034866 5.591117556641811 0.1936805288743667
0.3634127101121804 13.724353820513366 335911.9194189442 5.895318477438667 0.19658634171405578
0.3788580123130656 13.620389409779387 283497.3261563266 6.212699341460396 0.1995190429310883
0.39468423676424996 13.5288060943675 236571.34684665213 6.543532038373215 0.2024750691912969
0.4109014797539796 13.448228208543247 198024.23454586443 6.888489850187633 0.2054576407246427
0.4275015111307757 13.3773701368784 166221.94038576112 7.248290291546408 0.20847006272064425
0.444487665551906 13.3152400781028 139930.2939395465 7.6232130338335296 0.21150821468645498
0.4618614142145844 13.260845405834305 118086.62244721984 8.014165466509771 0.21457761783457419
0.479617036002249 13.21341847586202 99913.3808848435 8.421870837147681 0.21768022457471956
0.49776556562925567 13.17222239427511 83852.9620840894 8.846798017080667 0.22081391095137265
0.5162940075572707 13.136619219713191 72020.94999239192 9.289763986041352 0.22398129272306813
0.535202974992548 13.106048011991588 61348.3402859098 9.751678670585516 0.227185668855702
0.5545000935576592 13.080002930714482 52365.43651776733 10.23335041521911 0.23042838829072576
0.5741693245034648 13.057992768527212 44784.109809147885 10.735289908929218 0.23370665606544572
0.5942212583678612 13.039669948007221 38040.74237528973 11.258662293594051 0.23702566652902743
0.6146444272249969 13.024621814024634 32944.63970916313 11.804441090952967 0.24038751347189752
0.6354354005936603 13.012555289415129 28101.394836915293 12.373603704233954 0.2437938269694754
0.6565932350504717 13.00308669984947 24405.514910806356 12.966893070936823 0.24724317310980215
0.6781170224495374 12.996050559808879 21057.257723554114 13.585527177618559 0.2507391277426596
0.6999941508102987 12.99110109875128 18198.699109553912 14.230753193624677 0.2542849120758237
0.7222155480220449 12.988030356550487 15752.967780077548 14.903758715920386 0.25788250673401575
0.7447920912661461 12.98665222495552 13558.443454459159 15.60564356713399 0.26153252158863055
0.7676997400910893 12.986747681237814 11854.027603259197 16.337532002717438 0.265235444331332
0.7909332690648218 12.988117350260849 10305.713219100477 17.101104794186128 0.26899664619094127
0.8144951097355849 12.990625803424754 8971.577762608758 17.897814231277547 0.2728185543176853
0.8383631212197853 12.994092364239577 7819.775872167379 18.72911340792347 0.2767030483418884
0.8625330520625203 12.998345063192247 6826.168748384382 19.596168479534136 0.2806490283029335
0.8869952418138506 13.003292163241877 5965.8811076637685 20.501146524088337 0.2846636188349825
0.9117464864552504 13.00875615102882 5220.336755980825 21.44583799600192 0.28874982598942567
0.9367502644860852 13.014657568147028 4573.898938564985 22.431838562791533 0.29290848240440853
0.9620162478503407 13.020854504296999 4011.718952752332 23.460946100830114 0.2971415783574474
0.9875280950071398 13.027237292991714 3523.144817380925 24.53568649806721 0.30145608799935525
1.0132586218780042 13.033700106625233 3097.778083824551 25.65813354256113 0.3058546357812209
1.0392092625957552 13.040148375529418 2726.7653631320127 26.829979217223933 0.31033650507988775
1.0653505680643496 13.046481016226734 2402.8890287188865 28.054442513566034 0.31491138433941324
1.0916671862096279 13.052604687521281 2119.9158135373605 29.33373205689245 0.3195807944650843
1.1181511561683721 13.058447444235934 1872.3521070344577 30.670287513876183 0.32434727456817575
1.1447714264741302 13.063909180131498 1655.4746080433933 32.06775747140912 0.3292206000793869
1.1715221460094847 13.068927507603973 1465.09177975677 33.527944862236986 0.33419758145026135
1.1983706512728844 13.07340804197277 1298.1040648598564 35.055337020740275 0.33929149447845003
1.2253014766474193 13.077268161930808 1151.472450150614 36.652227575593706 0.344500796242257
1.2522860181489759 13.08043938063761 1022.3837425833674 38.323264671459604 0.34983750245684364
1.279316674052957 13.082895704535357 908.6976087973878 40.071076138657524 0.35530053908047315
1.3063505046012924 13.084506322023588 808.5171401498508 41.90094424123391 0.36090336691081953
1.3333771986869567 13.085228912015062 720.1457515354454 43.81607817473313 0.3666464500256004
1.3603764770527405 13.085049000847222 642.131304554237 45.82165184179776 0.3725402735181283
1.3872997331042605 13.083807693568588 573.1241499511599 47.92274150298572 0.3785934060764251
1.4141398752291967 13.081526214668003 512.0092534985835 50.12379751569588 0.38480998089072116
1.4408698644062845 13.078132983329418 457.9253035166128 52.43059754808949 0.3911999064432265
1.46745231986353 13.073545671647404 409.96710763212747 54.8492597936755 0.3977733752570906
1.4938552607179647 13.06770638824978 367.404532856608 57.38595584689711 0.40453941771177737
1.52006150089511 13.06060033185588 329.6015664023455 60.047293775689106 0.4115077717584518
1.5460416051953658 13.052144168371989 296.0141729870157 62.84035739754818 0.41868894113747646
1.5717535163617689 13.042297923468015 266.1017186358715 65.77274931350027 0.42609425834260145
1.59717036988745 13.031000881358139 239.48877552229396 68.85263808109151 0.4337359528874258
1.6222633971746758 13.018222851024143 215.7546146420485 72.08880995489083 0.4416272254977162
1.6470125353781015 13.003932180912104 194.5770931048201 75.49072567669593 0.4497823289285156
1.6713669656876655 12.988046406647333 175.6616133188346 79.06858285848624 0.45821665618873963
1.6953033702175673 12.970547591423705 158.7701411650185 82.83210826937307 0.46694159775467586
1.7187710539527856 12.951355679816723 143.6502320531343 86.79399654169542 0.47597866098223246
1.7417830387090125 12.930517966112307 130.11132791340165 90.96641336280885 0.4853446517351467
1.7642634568185798 12.907911849034141 117.97594106834227 95.36243729068806 0.4950575656428021
1.7861934067142378 12.883523632574281 107.098576207873 99.996688214057 0.5051387875616355
1.8075382745585404 12.857322360836656 97.32343011144346 104.88514338088622 0.5156119826952403
1.8282686867732032 12.829275288893882 88.56157939256511 110.04382500275037 0.5264978928166618
1.8483489776060082 12.799348635807059 80.66756233792087 115.49109673020753 0.5378227992277719
1.8677470165478687 12.767510601394003 73.56740311019811 121.24685783916003 0.5496150176782141
1.886430906945287 12.733731020530962 67.17461360615287 127.33234833741517 0.5619038499431152
1.9043689006553486 12.697979277938924 61.41136658243738 133.77056250263664 0.5747207332429505
1.9215089652621853 12.660177546786679 56.21371439501888 140.58581708301375 0.5880973207645575
1.937868292814941 12.620453715623178 51.52306950280729 147.8063104521333 0.6020739737362539
1.953375953618856 12.57866533067623 47.28243099978918 155.46114839066306 0.6166887695897745
1.9680139216476782 12.534810253749836 43.44925372363425 163.5825944149655 0.6319848211654175
1.9817545799634293 12.488895293607392 39.97905997969076 172.20523386853563 0.6480067537051359
1.9945636177000214 12.440899640250356 36.835840313524486 181.36798096039826 0.6648067710955406
2.006422924710301 12.39081107255522 33.98945677119078 191.11249451495402 0.6824384934508023
2.0173099259658573 12.33865951954914 31.407452374587923 201.4846110864653 0.7009608957383363
2.0271653409791894 12.28433381651708 29.062685425682208 212.5348086670961 0.7204388203123036
2.0359972842798326 12.227931630461105 26.93444097997775 224.31695947445655 0.7409377831053292
2.0437875653563955 12.169470933678895 25.001513574194604 236.89336802882823 0.7625392003386828
2.050488035637013 12.108878759922286 23.24301195184434 250.329016236917 0.7853201311326476
2.056083597430893 12.046182141808428 21.643452631246436 264.69823979924433 0.809373450840691
2.0605740406964825 11.981450419047206 20.18915923270324 280.08203743208 0.8347972174548808
2.0639245894413047 11.914667477504176 18.864149521043853 296.56968378772484 0.8616978063823477
2.066118109606311 11.845848814900036 17.658052021617614 314.2600845201236 0.8901918918923837
2.067152687921996 11.775059104360937 16.559954491880863 333.2637704798956 0.9204101876890749
