M[M_sun], R[km], Lambda[1], P_c[MeV/fm^3], rho_c[fm^-3]
0.24162668629717493 15.618656898711224 2160425.4255784233 3.5677272577965504 0.1711233750220791
0.25364484901721884 15.277304262053727 1723091.0246361117 3.7848449999673863 0.17388848957664055
0.26604248173181944 14.981213377141959 1382919.6362640231 4.011454869780438 0.17666730625194055
0.27882233206128043 14.723323843616813 1116334.720658953 4.2478121702671485 0.17945848797767977
0.2919752630945361 14.49834041126227 905849.1966358215 4.494542428215353 0.1822686072216029
0.30551225918123043 14.301123185161787 738557.6696406304 4.751802442721511 0.18509339362118019
0.3194304767329452 14.128037482799359 605040.2953434996 5.0202726013177115 0.1879394241922397
0.3337303560942322 13.975873340662426 497607.14839374926 5.300179527376877 0.190803372091727
0.3484135831719431 13.841918855362282 410940.9170440397 5.592248957914463 0.1936914754929174
0.3634789818404533 13.723893415080457 340613.2402842918 5.896651835125606 0.19659886489162007
0.37893357654407167 13.619905713900781 283244.1811292998 6.214250787590049 0.199533190251728
0.3947680468451178 13.528358330311447 236363.06945252625 6.545299959809598 0.2024905714739491
0.41099530885300545 13.447772323943319 197815.48166360907 6.890508371743939 0.2054748313012559
0.4276056092014488 13.376964337613456 166039.25424208152 7.250578350521347 0.20848899124616466
0.44460319594356346 13.314857610823301 139771.85358489206 7.625764304118917 0.21152852443838807
0.4619849971846039 13.260479859986821 117945.83166120092 8.017024441941361 0.2145997343209199
0.4797543842595594 13.21307757103778 99782.56126223534 8.425059806426358 0.2177042011655979
0.4979143196414515 13.171932365389425 84620.34502101205 8.850305220220022 0.22083930460061418
0.5164558745675631 13.136326740029073 71920.9863301741 9.293646172021932 0.2240086235543975
0.5353754114142668 13.105792287603618 61256.11439024863 9.755962155414014 0.2272149958602185
0.5546861573298116 13.07976731957741 52288.49796796287 10.238059561376772 0.23045972734839576
0.5743710157777125 13.057798108341492 44714.10663129514 10.740411343514884 0.23373953726190758
0.5944316635697996 13.039500884308916 38313.97009171827 11.264269470959414 0.23706070027467538
0.6148700834479897 13.024475363055997 32890.1668654417 11.810567127585902 0.2404247699956922
0.6356788536588066 13.01240604192392 28281.183707066146 12.380283782333626 0.2438333802075852
0.6568514529734955 13.00300623476417 24360.900189688316 12.974096515058683 0.24728434504249142
0.6783870163662531 12.995966606645416 21019.456915831222 13.5933562607189 0.25078271797982543
0.7002779216374004 12.991046131151164 18165.153252097996 14.239249883552365 0.25433100703336253
0.7225158305838095 12.987987586937473 15722.268584966107 14.912967676603362 0.25793119798049063
0.7451061542262678 12.986640449220134 13627.776175578423 15.615522494889596 0.26158301611436546
0.7680301141757773 12.986764370531008 11831.227752040797 16.348214654021724 0.2652886946687824
0.7912785155512303 12.988145893150078 10285.538115417967 17.112644769432016 0.2690527611827985
0.8148554042106451 12.990682614992354 8952.173978227911 17.910268683931196 0.2728776498049908
0.8387423595476041 12.994148680620018 7804.089044168979 18.74242710295727 0.2767642178818779
0.8629253858654286 12.998425456390713 6810.677868509562 19.610514492461633 0.28071338981538224
0.8874112263718973 13.003368845462 5952.380207990725 20.516593883841093 0.2847313115605701
0.9121699416980228 13.008871124989986 5208.674144763773 21.46246045768725 0.28882099855671367
0.9371938345108675 13.01476595976247 4562.841159734154 22.44956689229942 0.2929821157922041
0.9624808867811838 13.020982176643733 4002.367971464821 23.48000272746658 0.2972189729804936
0.9880051808807353 13.027360944421181 3514.6760033894366 24.556161095197904 0.3015374238540079
1.0137502862460448 13.033818973072623 3090.5245377120473 25.6799468678241 0.30593881760441993
1.0397175562181804 13.040275490741791 2719.9983330100195 26.85339788099202 0.31042497657461543
1.0658717780427491 13.046598308818437 2396.833838519207 28.0795761069872 0.31500436443040214
1.0922085279596283 13.052728095935263 2114.613683729358 29.360491517480362 0.31967711209280825
1.1187095187223002 13.058565988154776 1867.335922241967 30.69899224355076 0.3244485323621229
1.1453438437890153 13.06402426772613 1651.045638935241 32.09838493411456 0.3293260487842682
1.1721103830855277 13.06902442319733 1461.2210038696664 33.56071112244209 0.33430800712549535
1.1989699689309197 13.073479590824219 1294.683061905938 35.09046781434852 0.33940766248893284
1.2259185572894664 13.077348560190895 1148.3759707489098 36.68962097689464 0.3446214215664797
1.252916976150778 13.080506866336778 1019.5608675328984 38.36328011272752 0.34996407190139805
1.2799613372052083 13.08294792687978 906.1731767016997 40.113750508428204 0.35543255932395784
1.3070148110736435 13.084552064125473 806.2758822447988 41.94638320825922 0.3610407357921104
1.3340473034028373 13.085241044073756 718.1170914340247 43.8647910377646 0.3667912498469676
1.3610575552186663 13.085032808850734 640.2201750481294 45.87353655587609 0.3726911472186624
1.3879987613522042 13.083782774768673 571.4058402022438 47.978019618997024 0.37875074543875736
1.41484223504304 13.081454995398023 510.4975359533956 50.18307499049272 0.38497608290761465
1.441576413193013 13.078008756033933 456.590458901442 52.49378030503585 0.39137338262126786
1.4681716992698275 13.07340535299542 408.73833032711474 54.91662751445617 0.3979547170456118
1.494583112563171 13.067530217018627 366.2909309605664 57.45781086362299 0.404729154544567
1.5207958012012606 13.060377369945547 328.6342613218844 60.123963098437876 0.41170647417235534
1.546780318573354 13.051880554758204 295.094960256243 62.922194944174564 0.4188972242000141
1.5724975798557788 13.041991676937958 265.2833613115086 65.8601383642354 0.4263127854217487
1.5979116286744268 13.030648274007655 238.75236606719213 68.94599398319252 0.43396543980060437
1.623019871675308 13.017834822763147 215.07651041262125 72.18858310570542 0.44186844508145556
1.647762487869196 13.003471680426092 193.9563975269976 75.59740481702218 0.45003611607523586
1.672110572816453 12.987527430080293 175.11857102990788 79.18228039346533 0.4584821666443248
1.6960471722701613 12.969964923419688 158.24782493531117 82.95365473658742 0.46722091118233366
1.7195270305362194 12.950740382440964 143.18027714403175 86.92415591241647 0.47627340791728684
1.7425080007058384 12.929790943358373 129.6876277464246 91.10523982338644 0.4856534895097486
1.764989936437073 12.907126886448838 117.5927207400845 95.51126770352715 0.49538413280078736
1.7869002657923119 12.882647480165044 106.74828345977446 100.15565215454319 0.5054818248487495
1.808251585004784 12.856405945004676 97.01758119623804 105.05506486904396 0.5159728113315126
1.8289560647053984 12.828252451286922 88.27253283296201 110.2260620657275 0.5268796514701631
1.8490362403586853 12.798271428940172 80.41366518491014 115.68645437854535 0.538226340716496
1.8684077820432332 12.766318688947909 73.3333931215618 121.45615065379414 0.550041061151549
1.8870825370520083 12.732484807862978 66.9576719762382 127.55659339262026 0.5623536614032656
1.9050045085782614 12.696649029165988 61.213937627244825 134.01053565043006 0.5751945147476958
1.9221422741814633 12.658814791808842 56.03553620338184 140.843562706263 0.5885995072543537
1.9384517105419632 12.618907989576607 51.35580094583904 148.08337142812132 0.60260691430821
1.9539425382099402 12.577046386196828 47.130303555816724 155.75830718687533 0.6172519152546116
1.96855283132862 12.53309725875242 43.31013179456169 163.90222098910525 0.6325827511029822
1.98226579798008 12.487078571200257 39.85187711880473 172.54912482503764 0.6486417107560576
1.9950463803573035 12.438977377573005 36.72054929596905 181.73795239722244 0.6654806791976603
2.0068782559291685 12.388799525231367 33.87951640828353 191.51094795719322 0.6831547979826461
2.017718088885514 12.336506069664432 31.30609706572136 201.91419563147858 0.7017233659307137
2.0275483833795866 12.28210502991464 28.971815281414248 212.9974694083657 0.721248374016371
2.03635110271406 12.225612953063575 26.851977760918956 224.81677097812053 0.7418017191882367
2.0440868080069583 12.166998281809086 24.925852327352583 237.43286670025955 0.7634590951326654
2.0507388790026235 12.106268380532438 23.172607278561095 250.91292997515387 0.7863039458875843
2.0563030904658706 12.043499023577013 21.57988209034084 265.3303141776122 0.8104250803680977
2.060741510781796 11.97862754515227 20.129299124330252 280.76637502113675 0.8359207372013087
2.06403786362394 11.911708010300602 18.809538458085857 297.31142672336966 0.8628995628444185
2.0661862922277683 11.842780702764285 17.608714390847865 315.0658299831186 0.8914817319007032
2.0671729141262603 11.771873031826535 16.513157821650555 334.1388303723876 0.9217922748899751
