M[M_sun], R[km], Lambda[1], P_c[MeV/fm^3], rho_c[fm^-3]
0.24162668629717493 15.618656898711224 2160425.4255784233 3.5677272577965504 0.1711233750220791
0.2536413614852617 15.277374256433257 1723239.080548966 3.7847883148638344 0.17388778302417057
0.26603614893471467 14.981336716318186 1382996.4793398487 4.011335706379283 0.176665866232563
0.2788095773650235 14.723623323984999 1116501.977344884 4.2476264970847994 0.17945633444856804
0.29196129794083264 14.498561754599399 905973.6859480302 4.494285373046312 0.18226574485263625
0.30549462436602576 14.301353831673971 738762.6406775928 4.751465277357027 0.18508975159175398
0.3194105006674746 14.128230410856098 605205.8183637293 5.019852842120362 0.18793506902855503
0.333705530272565 13.97612280673459 497777.66300071205 5.2996661232591125 0.19079820296415262
0.34838350837594484 13.842168700065596 411096.81357501086 5.591640627043195 0.19368558972439182
0.3634427473481936 13.724138122526686 340727.9544556683 5.895934910545857 0.19659213138424966
0.3788944467351904 13.620126229011671 283375.7403902379 6.213416593549559 0.19952558340651375
0.39472236095220975 13.528605359816687 236463.16540082285 6.5443493624250895 0.20248223601908114
0.41094481468936234 13.448028180495239 197931.09825478453 6.889423019881634 0.20546558798934628
0.42754882898998137 13.377198994084553 166137.01294592983 7.249348059461788 0.2084788133635255
0.4445421531857726 13.315037321472188 139849.21693473827 7.624392474266983 0.211517603790683
0.4619193962142504 13.260687460486354 118020.14504675897 8.015487145457692 0.2145878420897679
0.4796806549007553 13.213261961890007 99851.15479084764 8.423345055830644 0.2176913086382955
0.4978334961221581 13.172088016779782 84675.31881250994 8.848419338068414 0.2208256500080611
0.5163679012653455 13.136493177570848 71970.02758948498 9.291558639082327 0.22399392719236016
0.5352830542075919 13.105920468900766 61304.15908805992 9.753658817832903 0.2271992259919106
0.5545851122131893 13.079914654291601 52323.94141313647 10.235528957580119 0.23044289653299796
0.5742631474675493 13.05794576131218 44752.296388779345 10.737657379766807 0.23372185596157372
0.5943173218665108 13.03957593803836 38346.997404253365 11.261254284292045 0.23704186133381394
0.6147495461247535 13.02454334751448 32918.65728479902 11.807272905937703 0.2404047356317837
0.6355468125411876 13.012479582734432 28309.88588964473 12.37669160240327 0.24381211064366712
0.6567135223894914 13.003074022982982 24383.69258153627 12.970222872690174 0.24726220489117484
0.6782418573720258 12.995999291868774 21040.05698597535 13.58914614984621 0.2507592772104425
0.7001240076867735 12.991087381570631 18183.728277736052 14.23468073053611 0.25430621915525176
0.7223545430785824 12.988002192237989 15739.497381278714 14.908015457417223 0.25790501373090036
0.7449378493653069 12.986641373183504 13545.987444636905 15.610209960122761 0.26155586196058095
0.7678525191549557 12.986760395565316 11843.143330593344 16.342469861665133 0.2652600583197285
0.7910929775841177 12.98812671861977 10295.747267658526 17.106438887941298 0.26902258408259694
0.8146620064700296 12.99065334615356 8962.549023137215 17.903570970281866 0.27284586963263424
0.8385396078543564 12.99411279786494 7812.201675925931 18.73526726397315 0.27673132212634605
0.8627102876308184 12.998402399662021 6818.822896109463 19.602799434108764 0.2806787772141856
0.8871838155149387 13.003341509434833 5959.694779142917 20.50828647427211 0.28469490720375457
0.911940984042678 13.008819555593542 5215.010606074241 21.453521022376993 0.28878272248345926
0.9369548563100815 13.014701573915746 4568.520856000146 22.440032669307794 0.2929425160578603
0.9622286358481618 13.020901444487452 4007.62302292625 23.469754071046474 0.297177350141599
0.987748906210972 13.027292945117757 3519.298437510251 24.54514976671036 0.3014936810732499
1.0134860339765297 13.033755033115622 3094.3106055959847 25.668215490123156 0.30589354395853624
1.0394442768206213 13.040206642394452 2723.6236476861077 26.84080303830945 0.31037739552690824
1.065592838505845 13.04653923602766 2400.025087378936 28.06605884447445 0.3149543581986113
1.0919169407711222 13.052663197421419 2117.4509613305554 29.346099742012388 0.3196253105377187
1.1184099293615362 13.058500914753964 1870.1187325419014 30.683554135648233 0.3243940734361323
1.1450353717547583 13.063956373966594 1653.3181875350508 32.0819508797216 0.32926958299206327
1.1717937867994916 13.06897692169983 1463.373549547845 33.543088356675646 0.33424861658787924
1.198644157882392 13.073439496412385 1296.513307169203 35.071573163789026 0.33934518300188393
1.2255868007327444 13.077305359149168 1150.0267367302347 36.6695092713043 0.34455654431747035
1.2525771443774187 13.0804705413682 1021.091572145297 38.34179064360673 0.34989618867530886
1.2796147342844997 13.08291672996058 907.520883936926 40.09079811557286 0.3553615522883624
1.306655284000802 13.084515912580317 807.5023671702912 41.9219436995306 0.3609668514546544
1.33368709091016 13.085231080604625 719.2165562964165 43.8385904138674 0.36671336804278026
1.3606924098053528 13.085038888384435 641.2227182210668 45.84562971451386 0.3726099979148389
1.3876188907484575 13.083789372036756 572.3283174302189 47.94828736546055 0.3786661178474123
1.414472175936278 13.081508542388905 511.29358220282495 50.15119131158832 0.3848867413256705
1.4412003374195295 13.078084408606884 457.3001669311101 52.459795813856324 0.3912800739413774
1.4677850902947707 13.07348079127166 409.4169254102716 54.88039173627189 0.39785717684760236
1.494191178068669 13.067623982422237 366.88161389629784 57.419161135290594 0.4046270979676415
1.5204004544149183 13.060494200080564 329.15249486754345 60.08272347716131 0.4115995942365175
1.5463819916900852 13.052022566969969 295.5750326248819 62.87817500738278 0.41878518996113884
1.572098059877219 13.042155193470743 265.7278255029588 65.81313188845215 0.4261952399424523
1.5975208906191463 13.030845187249144 239.15916609099224 68.89577748829807 0.4338419979169674
1.6226074045124042 13.01804522807537 215.45070839736815 72.13491424931635 0.4417386909432707
1.64735900339276 13.003721139123122 194.29296141781094 75.54002062182603 0.44989960043477295
1.6717086971792796 12.987808137623077 175.4134223135916 79.12119491480273 0.4583396549214682
1.6956466664190126 12.970280590376813 158.5213939056553 82.88827201458545 0.46707066187759855
1.7191122258093947 12.951053590451608 143.4293743984997 86.8541393885748 0.47611485493957056
1.7421163280145755 12.93017217877472 129.9190918174691 91.03056035330869 0.4854873551773504
1.7646013274514725 12.907553749095573 117.79327161069463 95.43120590513706 0.49520845933818863
1.786527399872907 12.88313239510906 106.92904206947222 100.07013831674222 0.5052972896966877
1.8078680475770685 12.856900244269015 97.18368703052955 104.96365557790446 0.5157787035101765
1.828582612405101 12.828790820329978 88.4201637240152 110.12814633321067 0.5266747280057962
1.8486668232304273 12.798851573689605 80.54771603771498 115.5813593798072 0.538009250714599
1.868057311646221 12.766973073469494 73.45780877703962 121.3435578498115 0.5498118634632999
1.8867337928971488 12.733153539562922 67.07717158959146 127.43602820275322 0.5621119346055725
1.9046636869883413 12.697363754305012 61.3209999139357 133.88143507346422 0.5749396301233919
1.9218118085560985 12.659582308773544 56.131858863743695 140.70489925605588 0.5883293381223053
1.9381402159825838 12.619751859503566 51.44608205714836 147.93431476420147 0.6023201963991287
1.953634624315674 12.577909227828911 47.211195223725184 155.59843623994388 0.6169489438068692
1.9682632325365612 12.534019760875951 43.380126832613016 163.73042817551743 0.6322616301294213
1.981991198831369 12.488057939010185 39.920860213731586 172.36410736772402 0.6483000962505182
1.994790254308954 12.440014155536593 36.78214834392171 181.53890080209098 0.6651181039571217
2.0066315176618525 12.389876476540012 33.939901461784565 191.2965696816855 0.682769407585685
2.0174958114714165 12.33765452181043 31.35916002591162 201.68306485497124 0.7013131316015843
2.0273449664807535 12.283310162540861 29.020215735225925 212.74859438903061 0.7208129820597636
2.036168176256494 12.226879761315644 26.89701699828726 224.5478483013546 0.7413368799393059
2.043926757716688 12.168327484957144 24.966826374090434 237.1425863071896 0.76296414039687
2.0506000606601797 12.107660407669217 23.209685914818163 250.59890328987234 0.7857750996989573
2.05618222701233 12.044933041180597 21.614441398164853 264.990264146503 0.8098593963207864
2.0606514094355677 11.980146687007995 20.160924329571042 280.3984176955182 0.8353170796722396
2.0639796876016985 11.913304312197994 18.83919149258239 296.912302586603 0.8622529102273487
2.066151795604909 11.84443251773531 17.634960377563047 314.63225925979197 0.8907876704494553
2.0671625321867477 11.773582388264296 16.53857706165756 333.66795361232784 0.9210485626608309
