M[M_sun], R[km], Lambda[1], P_c[MeV/fm^3], rho_c[fm^-3]
0.24162668629717493 15.618656898711224 2160425.4255784233 3.5677272577965504 0.1711233750220791
0.2536396858230761 15.27741498297922 1723283.877718901 3.7847575018865602 0.17388739895527353
0.26603251167978736 14.981438166876549 1383124.9927637395 4.011270932413589 0.17666508347741458
0.2788036000179847 14.723743798162054 1116665.730356137 4.247525571819959 0.179455163867587
0.29195453224326756 14.498639557740374 906125.9446617913 4.494145649257712 0.182264188995822
0.30548479194279604 14.301502462019865 738872.8895186262 4.751282012088424 0.18508777197708604
0.31939897784891036 14.128366388039977 605247.2970443829 5.019624686587659 0.18793270182684327
0.3336904157085035 13.976217666633621 497866.6389850699 5.2993870723103065 0.1907953933841274
0.34836737221472575 13.842298000315855 411183.52227300167 5.591309985185561 0.19368239067346277
0.3634242015863405 13.724274873410499 340810.4495818006 5.895545251314365 0.1965884716222868
0.3788713253929858 13.62029606950364 283453.5830546035 6.212963203323673 0.19952144903357102
0.39469792501115375 13.528731878123743 236533.72406844044 6.543832713162147 0.20247770570300408
0.4109172453159053 13.448138110396027 197986.08762663841 6.8888331401792495 0.20546056432626736
0.4275200164570844 13.377299634007699 166198.35941107248 7.248679416157482 0.20847328184882757
0.4445083175770252 13.3151541639123 139895.38032330046 7.6236469165462735 0.2115116686718341
0.4618823330809567 13.260789009475227 118064.33060047217 8.014651672312143 0.21458137902953603
0.47964057473786886 13.213362566604077 99888.35713339796 8.422413155018518 0.21768430204696176
0.49779080923026614 13.172169569258136 84709.1685724372 8.847394446574976 0.22081822935574616
0.5163207645587772 13.136580127738446 71997.29973344921 9.2904241753322 0.2239859404968337
0.5352315207319384 13.106007282707827 61328.99057116298 9.75240709306184 0.2271906560215514
0.5545317503730516 13.079962751082821 52353.960145318466 10.234151815964236 0.23043372530706085
0.574203612484565 13.05795467841014 44771.73471586704 10.73616080544275 0.23371224749083258
0.5942559072624147 13.03964896180397 38365.0179810638 11.25961577724957 0.23703162391216165
0.6146830543234697 13.024592549631135 32935.56064877952 11.805482790781287 0.2403938487448915
0.6354762196425513 13.01250029808418 28322.95340567437 12.37473960028949 0.2438005526943071
0.6566398793532604 13.003077507160311 24203.542597063508 12.968117947249436 0.24725017400052088
0.6781628127903112 12.99603768200767 21051.606248363943 13.586858419654419 0.25074653974165423
0.7000416583681819 12.991101651449032 18193.392623824322 14.232197934498151 0.25429274986557293
0.7222671622246685 12.988008695228391 15747.67277465294 14.905324546862346 0.25789078587245035
0.7448456456375195 12.986656240072476 13650.652461679761 15.607323295855904 0.26154110724764884
0.7677559993429843 12.986756733154156 11850.210568782797 16.339348364905877 0.265244498441282
0.790992071108324 12.98812239861719 10302.077624215455 17.103066899527047 0.26900618724478953
0.8145560072555205 12.990639487872102 8968.667441655873 17.899931793157307 0.27282860199739184
0.8384296535926928 12.994094152177503 7817.307953741996 18.7313770365776 0.2767134485443212
0.862600136863966 12.998357598544601 6823.623275324263 19.59860759178056 0.28065997106131557
0.8870649170805631 13.003296504932353 5963.552604793732 20.50377285102834 0.284675127806852
0.9118157154219947 13.008781474373176 5218.27787154732 21.448664071705835 0.2887619264271951
0.9368262075515827 13.014668987207516 4571.6991453172695 22.434852618929916 0.29292100107766406
0.9620925117695175 13.020874060136011 4010.2897418349926 23.464185939671957 0.29715473630563405
0.9876080259074896 13.027265717632266 3521.7072114937805 24.53916735810664 0.3014699158038501
1.0133456926871711 13.033723683220478 3096.7377093470704 25.661841955291276 0.30586894726014646
1.0392947361979272 13.040169757294409 2725.6440830486017 26.833960490830073 0.3103515456146656
1.0654393716222093 13.046506157013237 2401.8618303516014 28.058715270276206 0.31492719112442114
1.091758034987589 13.052628410537642 2118.990437087593 29.33828116023424 0.3195971684439511
1.1182462168873777 13.058474428838297 1871.4935209419127 30.675167240141633 0.3243644881187755
1.1448686836979292 13.063932305032337 1654.7519068830072 32.07299069745278 0.32923869861082095
1.1716223586584211 13.068948782327071 1464.4485232960371 33.533514886063855 0.33421635300485136
1.1984695571052706 13.073402049650884 1297.571958754685 35.061308906251824 0.3393112418848549
1.2254055044785486 13.077285423748638 1150.9258112092218 36.65858400228946 0.34452130109082374
1.252392564459326 13.080451664369566 1021.9594894626428 38.330078721081 0.34985908787225606
1.2794279208423898 13.082903904337273 908.2833604363043 40.07833005861587 0.3553229802854462
1.3064619360574456 13.084509233404845 808.1597555115179 41.908667994659886 0.3609267169875698
1.3334907884023117 13.085229086792525 719.8576553956494 43.824358292255845 0.36667106281703943
1.3604925234425134 13.085043054519836 641.8256212669318 45.83047098480563 0.3725659183880052
1.3874183749240765 13.083800454930971 572.8129550919864 47.93213731227433 0.3786201495826937
1.4142663084092724 13.081531344633955 511.7401772337546 50.133872937162764 0.3848382133320058
1.4409926686615677 13.078115943545374 457.6958886469154 52.44133659825519 0.3912293918514071
1.4675754728787187 13.073519384185502 409.76281967957414 54.860709986417454 0.3978041971166797
1.4939783351407596 13.067680327426425 367.2108728068276 57.39816854293768 0.4045716659579284
1.5201865337992448 13.060560987963104 329.4451869353945 60.060324526830705 0.4115415433063667
1.5461663053585795 13.052098797198695 295.8459758053758 62.85426632523815 0.4187243404642562
1.5718802917458325 13.042248411966028 265.9873872755542 65.7876015255462 0.4261313981271622
1.5972961378019312 13.030940510292494 239.34927917807372 68.86850413081372 0.4337749547147676
1.6223886290582308 13.018162284008486 215.63571206419715 72.10576634752286 0.4416682206345744
1.6471404499512967 13.003854492150381 194.47281265395162 75.5088554284435 0.4498254591782785
1.6714939293201296 12.987958954325997 175.5687901080851 79.08797611432865 0.4582620748344691
1.6954291902676897 12.970447794594712 158.67896138841874 82.85276399964077 0.4669890645626718
1.7188925416426482 12.951236587143088 143.56312875853789 86.81611555050436 0.4760287496544253
1.741908640771468 12.930398159862273 130.04082975279866 90.99000486076059 0.4853971341343711
1.7643880786008617 12.90778209735816 117.91245416169937 95.38772832243427 0.49511305981366627
1.786316532263964 12.883380734835644 107.03469554927243 100.0237007944236 0.5051970795381591
1.807659120679035 12.857162581620063 97.27711966540122 104.91401745724612 0.515673296856913
1.8283880691792875 12.829108734028143 88.50440912642384 110.07483524955636 0.5265629262172155
1.8484655898571754 12.799163812528242 80.62291068192377 115.52429175374044 0.5378913686916689
1.8678622375323033 12.767312338220783 73.52863573969769 121.28242002615752 0.5496874092588533
1.8865424177758712 12.733519356430277 67.13990668077348 127.37047715196717 0.5619803741696858
1.904476759374237 12.69775274388897 61.378532561834746 133.8113362123084 0.574801233205967
1.921632746181961 12.65999839354869 56.18498558608559 140.62960956810755 0.5881826451789606
1.9379663497785198 12.62019617084029 51.493629194417515 147.8533836893144 0.6021645214500114
1.9534664573003444 12.57835889291685 47.25699998381146 155.51163526160167 0.6167844472640102
1.9681057977095562 12.534519869430033 43.42594770953704 163.63695903772626 0.6320866153350895
1.9818406833879803 12.488587750260953 39.955956968902555 172.26365781083092 0.6481146271266425
1.9946467501566312 12.440573034722338 36.81634704352801 181.4308343049424 0.6649212593341388
2.0065002764612325 12.390467694605022 33.971371431134926 191.18018497909028 0.6825601814100051
2.0173798653619985 12.338297824476355 31.39029039479537 201.55758840172794 0.7010904232743089
2.0272335624856233 12.283963807308876 29.048208991665007 212.6134880859608 0.7205766216656964
2.0360682480209706 12.227570092998889 26.921225425814487 224.40186262915546 0.7410845402294837
2.0438384823331344 12.169051115593362 24.987865372399494 236.98501052585374 0.7626954592145345
2.0505254141056923 12.108421593845218 23.230853208614455 250.4282580576777 0.7854874304099381
2.056120455670512 12.045721312661705 21.633024433346602 264.80562081826866 0.8095521390950532
2.060602228407623 11.980973819227826 20.179329871488783 280.1983732524364 0.8349883753889171
2.0639443548355376 11.914166781810982 18.854969226032527 296.6956665047539 0.8619019209576584
2.066131123865825 11.84532920265675 17.64985629473366 314.3969336139222 0.8904109603754101
2.0671561933903404 11.774517995328646 16.551908933723656 333.41238749604605 0.9206449163946412
