M[M_sun], R[km], Lambda[1], P_c[MeV/fm^3], rho_c[fm^-3]
0.24162668629717493 15.618656898711224 2160425.4255784233 3.5677272577965504 0.1711233750220791
0.25364385362840053 15.277275514993843 1723192.7073330188 3.7848167515532882 0.17388813747378631
0.2660395845895795 14.981275013881154 1382985.6082186354 4.011395485659523 0.17666658862988538
0.2788143907520016 14.723531424461349 1116435.7606968745 4.247719641056232 0.17945741477827168
0.29196795711811213 14.498449770251577 905932.8014939959 4.494414325540562 0.18226718076858803
0.3055047185110644 14.301211089143624 738696.6705555324 4.751634416515491 0.18509157861747233
0.3194201855709248 14.128146278616677 605111.1850093815 5.020063413506333 0.18793725378795756
0.333717326047337 13.97599803771653 497698.18264721584 5.299923670168455 0.1908007960341821
0.34839837644935906 13.842048808325835 411018.8605798098 5.591945792137401 0.1936885422806263
0.36345960454270093 13.724039922187032 340661.5467193312 5.896294549212666 0.19659550918671598
0.3789140462185263 13.620015750908925 279400.83133910265 6.213835057370231 0.19952939929269503
0.3947448275165533 13.528475019423237 236399.67965925884 6.544826216559511 0.20248641738564163
0.41097062512018434 13.447880819247871 195384.5349195836 6.889967469199854 0.20547022474820953
0.42757911018109507 13.377053246765454 166089.29107365778 7.24996521232455 0.2084839189109964
0.44457293066266074 13.314967694184366 139811.97772151424 7.625080624589838 0.21152308190973212
0.46195315324411557 13.26058561550041 117980.7698796565 8.016258295191856 0.21459380755640942
0.47971669881583445 13.213175525496418 99817.55279047336 8.424205217452329 0.21769777585120667
0.4978741584276316 13.17200765212339 84649.36493304113 8.84936533975173 0.22083249946444372
0.5164120833008746 13.13641489471398 71944.59401046802 9.292605788708183 0.22400129919100836
0.5353300358456171 13.10585122347142 61279.63359892169 9.754814214340575 0.22720713644798912
0.5546355736580271 13.07983053519619 52303.17826059058 10.23680013122533 0.2304513620535886
0.5743173937219175 13.057864636537143 44733.842385366064 10.739038807165642 0.23373072515338691
0.594373553302657 13.039529440799754 38330.33627110528 11.262766738119057 0.23705131117269493
0.6148101711227175 13.02452574297957 32904.46169754492 11.808925319744116 0.24041478506471825
0.6356142272409692 13.012457768339473 28294.97276507587 12.378493467026322 0.24382277961780394
0.6567825598028729 13.00302375989971 24372.920325537012 12.97216591376835 0.2472733105171962
0.6783137531242406 12.995982278543444 21029.368633838203 13.591257956141124 0.25077103518210586
0.7002017323098911 12.991066301486773 18173.87445051008 14.236972623518524 0.2543186527865372
0.7224356671906742 12.98799623524943 15731.273157082913 14.910499485913341 0.257918147725921
0.7450210641184186 12.986659502445724 13635.229960716195 15.612874712842574 0.2615694824088843
0.7679420023963803 12.986757379045502 11837.380461916062 16.34535142087119 0.26527442216965064
0.7911855440399785 12.988129086993277 10289.95684967763 17.109551713372205 0.26903772069857634
0.8147577596296535 12.990662838216995 8956.99990193002 17.906930480246935 0.272861810267202
0.8386410978362461 12.994132750306497 7808.8282808317945 18.73885855859959 0.2767478222669688
0.8628218363630632 12.998401321213567 6815.318638166904 19.60666920323109 0.2806961384277018
0.8872955793742112 13.003346487319336 5956.054865400104 20.512453340052996 0.28471316705568916
0.9120553988826885 13.00884947480101 5211.732379919236 21.458004882056542 0.2888019210721397
0.9370751463742596 13.014732529904155 4565.80771831511 22.44481484624698 0.29296237849830703
0.9623529095053608 13.020933359436583 4005.1459823664213 23.474894570144407 0.29719822723582684
0.9878770418885884 13.02732401806923 3516.9372392811906 24.55067277982501 0.301515621382457
1.0136187812693136 13.033778401022506 3092.188495543899 25.67409964040686 0.3059162520277044
1.0395816026448255 13.040237131957655 2721.759508274261 26.847120250432116 0.31040126081677016
1.0657318289311466 13.046564733175456 2398.619583737732 28.072838684020574 0.31497943977319254
1.0920636741211664 13.052699276278597 2115.9522568803504 29.353318182588154 0.31965129249164637
1.118559289887575 13.058532605216598 1868.816800729499 30.691297344985873 0.32442138810881826
1.1451903761067999 13.063991848170586 1652.3504805754785 32.09019358851609 0.32929790412760696
1.1719523453390355 13.069007115367214 1462.2411391557475 33.551927235502994 0.33427840452085394
1.1988076897020898 13.073456056641527 1295.6017501828985 35.08104992251482 0.339376520073835
1.2257531831471655 13.077325518348713 1149.2295627565754 36.67959641263474 0.34458908387394643
1.2527481521867256 13.080493889019872 1020.3226049557962 38.352604205727076 0.3499304436695376
1.2797885824946045 13.082930359064802 906.838086291104 40.10230991351658 0.3553971659453571
1.3068314433149906 13.08451928290754 806.8715180704826 41.93420131020464 0.3610039080687419
1.3338681073994199 13.085235631060643 718.7105633616933 43.85173124063716 0.3667524293758751
1.3608753466275554 13.085036992119093 640.6598584903297 45.85962622711549 0.37265069787220195
1.3878062561296063 13.0837807068557 571.8753127385858 47.963199336341 0.37870856213022697
1.414662724868556 13.08149005578083 510.8876308813819 50.16718222406647 0.38493154962466924
1.441384774842643 13.078036545764407 456.9434778403633 52.476840286953234 0.39132687167848934
1.4679803691848405 13.073441277584799 409.0865632785416 54.89856522677514 0.3979060966156061
1.4943870531285335 13.067580197087139 366.5810324588888 57.43854521138569 0.4046782826082194
1.5205993635597144 13.060435722583081 328.88201454628415 60.1034063655324 0.41165319768178726
1.546582267214504 13.051953488686546 295.33595273807765 62.90025219489668 0.4188413781585759
1.572298880001485 13.042073205143156 265.51001214626876 65.83670678450383 0.426254191872151
1.597722444781431 13.030749891549426 238.96038235999566 68.92096215463329 0.4339039067112336
1.6228100267490824 13.017931914329022 215.2705640035188 72.16183020498939 0.4418037651197439
1.6475611377372508 13.003596824477755 194.12893528402023 75.56879973189356 0.4499680652556072
1.6719103470590981 12.98766346495121 175.25394612402042 79.15183013453847 0.45841112653862204
1.695847888902118 12.970120589626825 158.3860858811573 82.92106217167624 0.46714601356309277
1.7193281009061898 12.950913736617832 143.30241088857028 86.88925323980455 0.47619437053626246
1.7423143645420445 12.92997570112346 129.79618988625882 91.06801251599148 0.48557067245367413
1.7647940677503264 12.907334396284268 117.69462317850174 95.47135708396208 0.4952965599898533
1.786721405790492 12.882902192932224 106.83657288753164 100.11302346984347 0.5053898339965606
1.8080605112275205 12.856652461566412 97.10080069559363 105.00949703743369 0.5158760479455743
1.8287719435471452 12.828521991692675 88.34620587945314 110.17731393871797 0.5267777321039663
1.848852305145793 12.79856273892443 80.47807871231095 115.63406350136754 0.5381181192429485
1.8682395680612558 12.766659120430084 73.39110761390236 121.40002169443773 0.5499268031592682
1.8869097362257523 12.732815835925988 67.01993117213947 127.49656870426978 0.5622334389090551
1.904833990720106 12.69700645834748 61.26642347766642 133.9461765567517 0.5750674499134535
1.9219772792676282 12.659196265728792 56.083752021593654 140.7744358582088 0.5884648218667324
1.938292350261174 12.619315500315762 51.39963579513311 148.00906279655115 0.6024639779582999
1.9537910003080146 12.577478722026601 47.169283536340465 155.67860682637195 0.6171008750933391
1.9684096632622317 12.53355678839252 43.3469031049014 163.8166458455216 0.632422896023589
1.9821266888210791 12.487565258218279 39.88595704176399 172.45688682763242 0.6484714033789428
1.994917521846139 12.439497520306821 36.75035558135957 181.6387171313768 0.6652999207849476
2.006757086697458 12.389343982974857 33.90801492532769 191.40407089939873 0.6829626638140514
2.017606629831701 12.337079345627311 31.33183338349118 201.79896579057228 0.7015188443295916
2.02744624105568 12.28270125185573 28.996150142430285 212.8733922641565 0.7210313084758767
2.036259044224678 12.226244549467486 26.87427298446551 224.6826978808097 0.7415699706477072
2.0440070622185336 12.167659022163107 24.946069668632177 237.2881443833035 0.7632123302878369
2.0506701599980905 12.106962132540547 23.19097374273988 250.7565126795323 0.7860407551569131
2.0562444528079884 12.044226818389877 21.596371035647238 265.16083189734024 0.810143230967957
2.0606957371219514 11.979386022961258 20.14450093713087 280.5829585179611 0.8356198914462835
2.064005261320247 11.912496641205772 18.823978177015956 297.11243193389294 0.862577155629358
2.0661699840118932 11.843607694983746 17.62099687892934 314.8496586782678 0.8911356841592605
2.0671671668012865 11.772726055013075 16.52606435091694 333.90405655028485 0.9214214683915644
