M[M_sun], R[km], Lambda[1], P_c[MeV/fm^3], rho_c[fm^-3]
0.24162668629717493 15.618656898711224 2160425.4255784233 3.5677272577965504 0.1711233750220791
0.25364505972837015 15.277281101954282 1723210.6518405245 3.7848505293107713 0.17388855849723842
0.2660428372195302 14.98122523668723 1382979.8118560982 4.011466493699351 0.17666744672014065
0.27881989704547167 14.72343152025178 1116343.5005761916 4.247830282156439 0.1794586980483015
0.2919772982492872 14.49826183957005 905762.7298176542 4.494567503489073 0.18226888644059544
0.30551360855760007 14.301112020661881 738560.3934081137 4.751835332968155 0.1850937488986159
0.31943265545306565 14.12801166866575 605002.9916185932 5.02031354896626 0.18793984903989772
0.3337337377462744 13.975822492384426 497592.02013298665 5.300229610661853 0.19080387634730353
0.34841655131904714 13.841896328631039 410925.32558831817 5.592308302036585 0.19369204966362394
0.3634824374142263 13.72383378390254 340599.1733812673 5.896721773563656 0.19659952176823078
0.37893829014996255 13.619859864438542 283232.7516145134 6.214332166920487 0.1995339323332345
0.39477214210319894 13.528338009240198 236350.24389305396 6.5453926956942405 0.20249138464237737
0.411000224968851 13.4477472505057 197805.43692219027 6.890614254744808 0.20547573304532338
0.4276102921131426 13.376960427782812 166025.86493663976 7.250698374496919 0.20848998417375506
0.44460981182616 13.314809595441726 139760.67833260875 7.625898137477692 0.21152958983797848
0.4619915663462912 13.260465454256884 117937.6640036968 8.017174419452827 0.2146008945182227
0.47976142334570737 13.213086172290057 99777.2676799034 8.425227097910055 0.2177054589636861
0.4979218209953068 13.17189862508479 84614.09292078554 8.850489208963278 0.2208406367577277
0.5164635644279779 13.136326242265008 71914.42799949374 9.293849836056518 0.22401005736189794
0.5353854187906778 13.105769280657006 61251.72680421803 9.756186876015748 0.22721653441640954
0.5546959452742793 13.079750037462865 52282.57342632093 10.23830439919186 0.23046134296863924
0.5743816349345857 13.057797918708681 44711.328284030824 10.740680033491627 0.233741262334788
0.5944415017405359 13.039474906133794 38308.873145605 11.264563649975022 0.23706253831048846
0.6148821043582763 13.024466899320826 32887.94018275337 11.810888533998755 0.2404267246829371
0.6356904587255352 13.012411661946755 28278.647956612822 12.380634262974766 0.24383545542946808
0.6568647071391924 13.003009025293073 24359.390499395297 12.974474460433317 0.24728650522326903
0.6784003732344177 12.995957228111529 20855.62785223221 13.593767038796296 0.2507850050821064
0.7002924833907306 12.991052273818575 18162.993039765042 14.239695697491426 0.25433342559573985
0.722531787505044 12.987985792083778 15720.721000253785 14.913450871146535 0.25793375281218195
0.7451229515374839 12.986651626099901 13626.829939779147 15.61604085006749 0.26158566560219626
0.7680473105988213 12.986763275621524 11829.47556050546 16.34877519093069 0.2652914888046861
0.7912966774294729 12.988146586740006 10284.29818882467 17.11325030211928 0.26905570568320614
0.8148741512938278 12.990686184760865 8951.068922222814 17.910922213046323 0.2728807507539125
0.8387623763126583 12.994141903974487 7803.1619651393285 18.743125729520006 0.2767674277094546
0.8629464921308502 12.998424518678426 6810.129876159394 19.611267302369036 0.2807167671986644
0.8874326890880583 13.003384480201374 5951.769821820584 20.517404501440357 0.2847348638125783
0.9121928144147282 13.008877995789065 5207.989689623278 21.4633327555582 0.28882473348359095
0.9372169331780609 13.014765629312816 4562.682516065919 22.450497236245827 0.2929859799113
0.9625049804632547 13.02097478628419 4001.992000332301 23.481002795463393 0.2972230345537778
0.9880299200126196 13.027360015454997 3514.4002838430556 24.557235595922474 0.30154169233529715
1.0137762922853772 13.033822644452613 3090.0388349353207 25.6810916413365 0.30594323550587527
1.0397446837104365 13.040281105159494 2705.3147484460555 26.854626925931562 0.3104296196850834
1.0658997827854078 13.046612637491661 2396.6977561302483 28.08089517827466 0.3150092442486706
1.0922356912635485 13.052738411598277 2114.2772968433464 29.361895939215415 0.3196821671487351
1.118738584453379 13.058570315819596 1867.0851064319797 30.700498787564953 0.3244538467937546
1.1453736895630855 13.064027928407686 1650.951840352762 32.09998868237004 0.3293315591053112
1.172141022638781 13.069031740446079 1461.1028725756566 33.562430891876545 0.3343138029258051
1.1990005456687214 13.073493469538407 1294.484432175375 35.09231172451918 0.339413759799982
1.2259504899214544 13.077356725518722 1148.2209979581169 36.6915836757348 0.3446277529291188
1.2529499774599373 13.080506797832573 1019.4534896878977 38.36536956761472 0.34997065139452904
1.2799960151720942 13.08294986527993 906.0386633605414 40.11599047516118 0.3554394890327051
1.30704935836671 13.084551452304328 806.1482111281045 41.948768327622844 0.3610479463692906
1.3340832754827803 13.08523661670822 718.0140331263555 43.867348058978436 0.3667988506364091
1.3610941833716088 13.085028338149247 640.1274293081099 45.87626011976941 0.372699066972496
1.3880359528323116 13.083779003411253 571.3242433959985 47.98092136219797 0.37875900473661034
1.4148805165079292 13.081450180868526 510.4207608826679 50.18618674164282 0.3849848023772593
1.441613598822822 13.078004988048315 456.5080879372173 52.49709712296412 0.3913824893605946
1.468209582976825 13.073396229061931 408.68277097353354 54.92016409026116 0.39796423687163957
1.494621175879027 13.067520693372654 366.23199777090866 57.461583078627775 0.40473911527048734
1.5208340940384755 13.060364383527528 328.579827085865 60.12798813077683 0.4117169057715024
1.5468192552132223 13.051868331027856 295.0462372893028 62.92649138601738 0.4189081589860863
1.5725377124578976 13.041974799370522 265.2423129676752 65.86472635083472 0.4263242582470315
1.5979510498074345 13.030627901301644 238.7077964241681 68.95089533508181 0.4339774882741359
1.62306029310223 13.017811710807784 215.04605125620057 72.19382148554176 0.4418811098093235
1.6478019930518286 13.003447215622916 193.92664792984908 75.6030059027501 0.4500494409254463
1.67215007125069 12.987498480321385 175.0878178793796 79.18824281136573 0.45849607689707195
1.6960865717205755 12.96993513531305 158.2272537800222 82.96003668033441 0.467235576870477
1.719566966677069 12.950706777992801 143.15665640822925 86.9309902464498 0.476288884321316
1.74254827001648 12.929754863128656 129.67303082352996 91.11252939200193 0.48566970611672433
1.7650267313253079 12.907085959413973 117.57114839962806 95.5190827563456 0.49540128077168755
1.7869391331297633 12.882603228000194 106.73098938580475 100.1639994971775 0.505499838052015
1.8082880685422498 12.85635865410542 96.998669467562 105.0639878019065 0.5159917591981494
1.828991557497669 12.82819554258517 88.25815963079675 110.23560781997217 0.526899609103044
1.8490723851254667 12.798216683896218 80.3967673250135 115.69671353341643 0.5382475325902975
1.868443276498635 12.76625805321073 73.31922299751123 121.46714188026844 0.5500634352608156
1.8871194526481279 12.732416436268013 66.94996804254143 127.5683366168017 0.5623771645367097
1.9050380986363056 12.696578625203852 61.20338333642051 134.0231386952407 0.5752193970713627
1.9221743619102996 12.658739066591108 56.02513743553198 140.8570995027759 0.5886258820817445
1.9384816516311485 12.61883613727151 51.34723678920616 148.09792307373888 0.6026349051225449
1.9539729535254662 12.57696109862854 47.125683730011424 155.77391480191494 0.617281493247456
1.968581192818278 12.53300630039631 43.30285767287019 163.91897919205272 0.6326140555653585
1.9804160988628323 12.490235806361003 40.20138630269002 173.09142235263525 1.434204707166368
