M[M_sun], R[km], Lambda[1], P_c[MeV/fm^3], rho_c[fm^-3]
0.24162668629717493 15.618656898711224 2160425.4255784233 3.5677272577965504 0.1711233750220791
0.2536443169299691 15.27731892890405 1723106.5549079692 3.7848542342226774 0.173888604677178
0.26604324899452264 14.981212875471043 1382924.7593998373 4.011474282267919 0.1766675408403953
0.2788210297806133 14.723385738709842 1116400.0529091717 4.247842417988463 0.17945883880566466
0.29197789929987783 14.498292933013895 905808.0560617424 4.49458430514907 0.182269073530979
0.3055151234058735 14.301107381843215 738516.4543854899 4.751857371078718 0.18509398695227036
0.31943622530913496 14.127942840233553 604999.5095748296 5.020340985982001 0.18794013370952575
0.3337350610526904 13.975772850563336 497556.5901833753 5.300263169074631 0.19080421422483673
0.3484185383637095 13.841879602285275 410914.96328807145 5.592348065752913 0.19369243438851802
0.3634841746669599 13.723830515391178 340578.38464688865 5.896768636108562 0.1965999619111697
0.37893983047132795 13.619868162317024 283221.890660402 6.214386695568721 0.19953442956884962
0.39477475827053987 13.528336499914007 236341.35851501182 6.545454833949996 0.20249192951093567
0.4110035702432543 13.447732948324747 197808.0555685605 6.890685202416129 0.20547633726546438
0.42761388756063157 13.37694451560124 166023.06001908024 7.250778797553191 0.20849064949308893
0.44461282278753816 13.314807023530735 139753.15334072761 7.6259878137474635 0.21153030371874754
0.46199588452731444 13.260456249369756 117928.71915590049 8.017274913410702 0.21460167192023274
0.4797661750892507 13.213055215021576 99772.13476679353 8.425339193438305 0.21770630176535186
0.49792661231304364 13.171892349172888 84606.42862242743 8.850612492838382 0.2208415293856586
0.5164698185988825 13.136329290401488 71911.31242048997 9.293986303798466 0.22401101810330903
0.5353913881270282 13.105762842476576 61250.74497107693 9.756337453205878 0.22721756534755833
0.5547012169837572 13.079754547361155 52279.28837644791 10.238468456410523 0.23046242553900717
0.5743883295948489 13.057779542129412 44305.95596929889 10.740860073467276 0.2337424182472011
0.5944493065690739 13.039475741733465 38307.71984218451 11.264760769570621 0.2370637699172889
0.6148896197377559 13.024484759317339 32885.87116994338 11.8111038980814 0.24042803445588665
0.6356985363628295 13.012399976781051 28276.747914221498 12.380869109100766 0.2438368459708064
0.6568722990615781 13.003006886297475 24358.129873845864 12.974727710127183 0.24728795269466924
0.6784098018132768 12.995958484319765 20853.898497786002 13.594042289081408 0.2507865376019499
0.7003035247531056 12.99104441416314 18162.069076662272 14.239994424705507 0.25433504620545566
0.7225419639418138 12.987992881071808 15720.669160828425 14.913774646505303 0.2579354647345518
0.7451339495443977 12.986637355660495 13625.822937496838 15.616388186014145 0.2615874409531585
0.7680586851409718 12.98676551523958 11828.489590053481 16.349150792269793 0.26529336108315743
0.791308815698819 12.988159546222903 10283.436279259362 17.113656054557463 0.2690576787199137
0.8148869527433014 12.990686327816922 8950.415427154432 17.91136012733681 0.2728828286259085
0.8387755346294326 12.994147881296572 7802.77783935177 18.74359386309167 0.2767695785409976
0.8629625952581619 12.998414222581161 6809.458982417477 19.611771743689 0.28071903030873263
0.8874471287628706 13.003377371465708 5951.247115887858 20.517947679217436 0.2847372441018185
0.9122072092569035 13.008880540761265 5207.520094907449 21.463917264849226 0.28882723618310885
0.9372333367595141 13.014766747491304 4562.416851536322 22.4511206417935 0.29298856918303173
0.9625202162203271 13.02098548391905 4001.6236795025384 23.481672922753376 0.29722575613981667
0.9880459941058928 13.027366924422438 3513.965351340949 24.557955600305664 0.30154455257090945
1.0137942188065587 13.033822561261525 3089.849029832831 25.68185873523525 0.30594619586896443
1.0397618559243675 13.040283717415337 2719.3911841140616 26.85545048998318 0.31043273096177165
1.0659187056893327 13.046614209349022 2396.5194239007214 28.081779068953626 0.3150125141446372
1.0922550224000698 13.052738333540052 2114.0233913913703 29.362837023174286 0.31968555447315855
1.1187581692750577 13.05857463120897 1866.913039369656 30.701508303860347 0.3244574079279016
1.1453947934759163 13.064037547954271 1650.7301523054978 32.10106333537977 0.32933525150720355
1.172161490180918 13.06903722160502 1460.9382465676513 33.56358329116952 0.33431768663023975
1.1990213718846685 13.073490401206527 1294.4556159460335 35.09354731120677 0.33941784555018956
1.2259721689350105 13.077353104591328 1148.098258514458 36.69289886332017 0.3446319955206825
1.2529717337988469 13.080515589122294 1019.345072698697 38.366769695213314 0.3499750602621116
1.280018770096553 13.082950751121128 905.917492062951 40.117491462107346 0.35544413258486923
1.307072267488533 13.084551943916768 806.0955698164304 41.95036658260127 0.36105277813622494
1.3341068145256878 13.085241372092115 717.9400346510477 43.8690615073723 0.36680394389116594
1.361117660122123 13.085031235944369 640.0609495032551 45.878085170274105 0.3727043739714493
1.3880583778506104 13.083779060862023 571.2708416832998 47.982865812859146 0.3787645392708744
1.4149054159735237 13.081449005753703 510.3691135695587 50.18827192185748 0.3849906452820124
1.441638607631083 13.078002696929651 456.45891277135223 52.499319721512954 0.391388591783474
1.4682352163933583 13.073392416473398 408.630111910993 54.92253395214835 0.3979706161136295
1.4946465086785208 13.067515668767326 366.1979356821791 57.464110846492424 0.4047457899703277
1.5208598378818912 13.06035664414355 328.5387398364833 60.130685316324495 0.41172389601557724
1.546845442120848 13.051860347292422 295.02979504608146 62.92937044858245 0.41891548642921006
1.5725630965139608 13.041966067695027 265.2143050077665 65.8678007838645 0.42633194624529197
1.5940005832800255 13.030323007311235 242.28189543707538 69.22481581219472 1.0608429782413433
