M[M_sun], R[km], Lambda[1], P_c[MeV/fm^3], rho_c[fm^-3]
0.24162668629717493 15.618656898711224 2160425.4255784233 3.5677272577965504 0.1711233750220791
0.25364496624738697 15.277251343144727 1723193.6532964492 3.784841350561942 0.17388844408856222
0.26604200240644926 14.981252022728025 1382943.1964395747 4.011447197925556 0.1766672135421019
0.2788178488663984 14.723472029129018 1116351.075321717 4.247800216333535 0.17945834933006402
0.2919742729316923 14.498325626470187 905808.6451703827 4.494525878441474 0.18226842293602977
0.30551099040597407 14.301165754894228 738619.8113265631 4.751780735072089 0.18509315913713675
0.31942897607363085 14.128060893108119 605034.9509827557 5.02024557580379 0.18793914379210186
0.3337270923305671 13.97592678982346 497636.9269175766 5.300146472381126 0.19080303928276796
0.3484116205195629 13.841937794078685 410951.6080109336 5.5922097908195605 0.1936910965404997
0.3634764354043007 13.7239203804333 340619.24454972893 5.896605675858993 0.1965984313540197
0.37893119675685605 13.619917339338794 283257.26116350206 6.214197077434615 0.19953270047978167
0.394764615832873 13.528380066410033 236379.76160493828 6.545238754443481 0.20249003478557268
0.4109920736014014 13.447787873309023 197823.4913926401 6.890438489432564 0.20547423615416727
0.4276022051685342 13.376996468001233 166049.34252033383 7.2504991353491794 0.20848833591934643
0.4445989973641912 13.314853121435569 139778.21439975302 7.6256759749485274 0.2115278212813963
0.4619805988248016 13.260494773408539 117943.91106749744 8.016925457879628 0.2145989685991772
0.479749431804436 13.213114537720672 99789.53449104994 8.424949395433062 0.21770337102928006
0.4979086167288977 13.17192747027841 84620.07443928263 8.850183789331824 0.2208384253891002
0.5164493253292161 13.136361286515145 71921.15697841639 9.293511755817896 0.2240076772559412
0.5353697698428262 13.105801363041909 61258.77568875435 9.755813842304635 0.227213980430165
0.5546787987145809 13.079760842956096 52289.426404692684 10.237897971332693 0.230458661058263
0.574364288240534 13.057806613227745 44717.11999631829 10.740234011583771 0.2337383987359793
0.5944229914437206 13.039493380430354 38318.348194791244 11.26407531686997 0.23705948719641107
0.6148633562162664 13.024471272088274 32892.42062288593 11.810355004095289 0.24042347993094906
0.6356699267249328 13.012429517961227 28282.737038952015 12.380052470613855 0.2438320105937284
0.6568425812495113 13.002997071189485 24362.141264087302 12.97384707734775 0.24728291935882246
0.678376854845654 12.995963366626736 21020.06730894853 13.593085154353947 0.25078120853221914
0.7002683813319558 12.991053970615539 18166.312617769196 14.238955654551361 0.2543294108266722
0.7225052092804762 12.988001340745798 15724.832742275219 14.912648777548508 0.25792951184097773
0.7450953196258295 12.98664098068113 13629.02442774865 15.615180390901756 0.26158126750570615
0.7680186472741138 12.986764163791241 11831.999578350109 16.347844711470827 0.265286850597951
0.7912672377541504 12.98814215689589 10286.407722318378 17.112245131190505 0.2690508178773589
0.8148448493987178 12.990660865222653 8952.926229923487 17.909837369726947 0.2728756032499321
0.8387293589112678 12.994146953474841 7804.741702934177 18.741966026017774 0.27676209947190855
0.8629119286472977 12.998422394829253 6769.094679206283 19.610017656522643 0.28071116082586206
0.8873965835110782 13.003374925861294 5952.825860398331 20.516058897034455 0.28472896716543233
0.9121545519603654 13.008862186497458 5209.0265653863735 21.46188476432985 0.2888185336044706
0.9371787451504325 13.01475511498867 4563.216276097963 22.448952890809604 0.2929795655795749
0.9624658115643087 13.02096546407698 4002.7449384584015 23.479342710994484 0.2972162924574904
0.9879881482115213 13.027356547102627 3515.0105240614434 24.55545195629947 0.30153460678180843
1.0137333711976475 13.033814420299958 3090.49215811699 25.67919135186508 0.30593590192282993
1.0397001636606422 13.040265460622178 2720.208361256972 26.852586749664493 0.31042191226652005
1.0658553403667723 13.046597068540901 2397.0350788350265 28.078705562410047 0.31500114390746947
1.0921892812922798 13.052729088451676 2114.6948172021416 29.35956464550499 0.3196737759227992
1.118690219596346 13.058561813589689 1867.5111150426928 30.697997975791875 0.3244450250181765
1.145323627906128 13.064012810566892 1651.2688134541947 32.0973265162053 0.32932241216458197
1.1720901383449251 13.069026252543367 1461.3830498504985 33.559576136406484 0.33430418210553337
1.1989482579215902 13.073485100126554 1294.7933620467481 35.08925090184673 0.33940363848919514
1.2258968610237966 13.077344924388488 1148.4730737465952 36.68832566996747 0.34461724310684183
1.2528946620883623 13.080510610002323 1019.655331777907 38.36190115344675 0.349959729690819
1.2799399820724644 13.082942211982237 906.2544015109906 40.112272219627826 0.3554279859922738
1.3069920946675229 13.08454717818082 806.3568997367638 41.94480912667029 0.36103597710499474
1.3340249771617032 13.085241778255677 718.1514486127354 43.86310351085593 0.3667862336442704
1.3610351368580216 13.085029201946826 640.2943919179278 45.871739120331135 0.37268592052026084
1.3879744746509326 13.083784792136882 571.4669907583722 47.976104595513135 0.3787452946637392
1.4148189924085595 13.081459395816369 510.57692493789307 50.181021374643215 0.3849703284496912
1.441551453568029 13.07801480965702 456.62595675331517 52.49159135762675 0.3913673725918102
1.4681470630737712 13.073410658477071 408.7807309819043 54.914293540531155 0.3979484344075617
1.4945580877713671 13.067537572560184 366.33266619580553 57.45532138279659 0.404722580943602
1.5207704060215013 13.060383770909338 328.67261448726 60.12130677456121 0.41169958982868987
1.5467546829539742 13.051890465835061 295.12174203141154 62.91935950798197 0.41889000778947677
1.5724716467582553 13.042001878538859 265.3134723017859 65.85711052818976 0.42630521394498333
1.597886236942689 13.030659263635304 238.77735280848992 68.94275934765275 0.4339574884391096
1.6229941213506258 13.017847766228597 215.0997618150091 72.18512605543084 0.4418600870390224
1.6477366578285717 13.003487955095896 193.97335826890054 75.59370840690737 0.4500273224031714
1.6720846635113895 12.98754513084417 175.13922098618048 79.17834552991249 0.4584729866526738
1.696021563897669 12.96998358570725 158.26974204649727 82.94944301728937 0.4672112326636533
1.7195011968431115 12.950762906603629 143.1960594339389 86.91964565000976 0.4762631943920269
1.7424829928206547 12.929815673335794 129.70226774118294 91.10042914075323 0.48564278751163836
1.7649644843792631 12.907151703936732 117.60396881589881 95.5061102429821 0.4953728161807466
1.786875860613085 12.882676936368298 106.76403103752864 100.15014342488448 0.5054699372491354
1.808226772202954 12.856437964317848 97.02834210913211 105.04917629633795 0.5159603069350285
1.8289389846539494 12.828301142381093 88.28186118568563 110.21976248224021 0.5268664807168293
1.8490125344590849 12.79830874363086 80.41498280217724 115.67968401181201 0.5382123554750989
1.8683852374055536 12.766358937506835 73.34249408433118 121.44889718275739 0.5500262957426187
1.887060430288491 12.732526973949435 66.9660496647191 127.54884366779123 0.5623381509425951
1.9024996017258546 12.69819092392482 61.8166020405692 134.33541258095528 0.9714537925854279
1.9064045308287614 12.661575972887618 59.26675056019008 143.12079490641446 1.5935716508781559
