M[M_sun], R[km], Lambda[1], P_c[MeV/fm^3], rho_c[fm^-3]
0.24162668629717493 15.618656898711224 2160425.4255784233 3.5677272577965504 0.1711233750220791
0.2536207010547402 15.277874528548333 1723917.5055807666 3.784405862070704 0.17388301593460553
0.26599257047598246 14.982292377778217 1384190.5034398984 4.010531780452322 0.1766561512621803
0.27874155525143507 14.724918762850027 1117748.1184112958 4.246373968062525 0.17944180699943063
0.29186796512997765 14.500000694490577 907345.540659176 4.492551444050684 0.182246437150846
0.30537754184138505 14.302913875896666 740080.0895708954 4.749191155125038 0.18506518673142097
0.31926336931044286 14.129927945325441 606423.5816748252 5.017021849023336 0.1879056963825104
0.33352946057181615 13.977825009820807 498964.9940206211 5.296203823398959 0.19076334334955525
0.348177405806632 13.843922866424535 412191.3043566699 5.587537638304939 0.19364588479821934
0.36320686367088206 13.725834255609197 341708.17047148204 5.8911008142752 0.19654672852907182
0.378622559610945 13.621870189792709 280346.94383296435 6.207792187678109 0.19947429559719163
0.39441990463336185 13.53025046974226 237261.8606412899 6.537940562292401 0.20242603949978233
0.41060437319170323 13.449572314831814 198662.0935384375 6.882106255843876 0.20540327535643985
0.42717249507526084 13.378658270386468 166794.16448501492 7.241054806103148 0.2084102054038682
0.4441261698855464 13.316447383400867 140427.19952402127 7.615145722995691 0.21144399370492195
0.46146500851114547 13.261981691995029 118537.9410589852 8.005125811984929 0.21450768879857773
0.4791838019440329 13.21448402349041 100317.26441280953 8.411788505540299 0.21760441953587312
0.4972946329937206 13.17320989476437 85084.93330987373 8.83571023893006 0.22073363070011914
0.5157834404358643 13.137510221990743 72332.89300053788 9.277491583666198 0.22389489424525194
0.5346553797343109 13.106840277111086 61628.57140568148 9.738138622058711 0.22709296651632216
0.5539120541764306 13.080703762379207 52611.52989096731 10.218454662200713 0.23032918838647534
0.5735415772817524 13.058633723695465 45005.827145737516 10.719103200990382 0.2336027323864638
0.5935498960846148 13.040230084668222 38570.254015701146 11.240941576619003 0.2369149471686879
0.613929076624696 13.025099860003161 33119.03372111063 11.785081921723844 0.2402697774229238
0.6346758346747947 13.012911144231797 28485.714997994375 12.352495133881778 0.24366884155810156
0.6557870060191177 13.003393795880744 24349.095053330737 12.944132017192597 0.2471130802602095
0.6772659302551894 12.99627535679608 21180.812117688274 13.560790955815813 0.2506014030868923
0.6990949335711588 12.991263070420919 18306.132027873115 14.203909486026975 0.2541392836519986
0.7212699941838394 12.98811544485699 15848.593953319014 14.874666716189255 0.257728686365125
0.7437975928285125 12.986681658390747 13740.914817658357 15.574302415824514 0.26137168063599425
0.7666549824862441 12.986709722225605 11930.086916045415 16.30378869922491 0.2650672424265345
0.7898425915138912 12.98803317008371 10373.193525889907 17.064655967234387 0.26881940788808334
0.813346524938121 12.990469030537387 9031.988109150876 17.858479756835045 0.27263191504900536
0.8371691074766779 12.993889745254432 7873.612860780694 18.686778280092852 0.27650730355108705
0.8612887495588738 12.998122207369875 6873.583995852482 19.550865652523914 0.2804457830891365
0.8856952499225511 13.00300588887222 6008.453552602884 20.452369189759683 0.2844498689929091
0.9103901204086051 13.00845755939143 5258.399096304291 21.39335378406337 0.2885251037926497
0.9353499343556442 13.01431958515025 4607.309073824712 22.375694451781882 0.29267463884850464
0.9605593008082618 13.020484030601517 4042.060068921513 23.400783876280965 0.29689724168761467
0.9860199299355714 13.026861090245271 3550.0502645894853 24.47105232181566 0.301199327100392
1.011702056865245 13.03330919384279 3121.8526657970096 25.588880354027214 0.3055859867492291
1.037592842484161 13.039738246474393 2748.5162817049495 26.756060841315787 0.31005725476615514
1.063687248341707 13.046094281863077 2422.0532666119407 27.97511695364893 0.31461792459988275
1.0899537124288237 13.052218846420955 2137.144916539532 29.24906490144683 0.3192753535843115
1.1163879665184742 13.058076722292531 1887.6764309418738 30.579702993821925 0.32402773180395383
1.142960114242155 13.06355029300931 1669.172663862237 31.970616629638705 0.32888464925982724
1.1696566758760105 13.068587780146478 1477.6294151238383 33.42455733185667 0.33384915481317917
1.1964622752320113 13.073103401942433 1309.3177107490226 34.944497190942734 0.3389249772100553
1.2233426502478366 13.076996033140482 1161.5207342905437 36.53425648267109 0.3441202397580213
1.250286464759845 13.080229817011416 1031.4061860026934 38.196808372278696 0.34943691662301557
1.2772762617105398 13.082744267911217 916.818704866398 39.93646361330286 0.35488409289816497
1.3042684820703263 13.084397055500093 815.8926028474439 41.756987866307234 0.3604665318692308
1.3312647013375223 13.08523560036135 726.7237056371699 43.66244044030414 0.3661897592232923
1.358212750097488 13.08507801649452 648.0022381370162 45.658021375550085 0.37206445834979873
1.3851066854237766 13.083951610430923 578.3779789800454 47.74765806980039 0.3780932400979205
1.411923356912798 13.081775023896283 516.8240334775735 49.93688122297018 0.38428622083990255
1.4386165252086667 13.078472786663982 462.22344717311375 52.231381263957076 0.3906529331668903
1.4651665865273673 13.073985185466338 413.8723167562959 54.63686381991754 0.3972016434943171
1.4915513561877707 13.06827902806563 370.9575766644674 57.159388580628836 0.4039410671919801
1.517740639135725 13.061289617031166 332.80388688286735 59.80523346925128 0.4108796375041097
1.5436945411936547 13.052966686901966 298.91389751245526 62.58188469939665 0.4180300446907432
1.5693947586531445 13.04326646816237 268.723794480402 65.49686916836384 0.4254034867987395
1.5948026832686943 13.032126069771248 241.84363760479127 68.55827189964344 0.433012048017748
1.619893786185252 13.01951412965735 217.89853441352986 71.77439591118222 0.44086707285017535
1.6446389619828758 13.005382194532116 196.51679115516447 75.15457765195887 0.44898264074380806
1.6689956264860553 12.989677652939916 177.4132253898814 78.70903314292363 0.4573745974191362
1.6929303369349455 12.972350624258034 160.35651220556215 82.44862111927387 0.4660593413948462
1.7164272887523597 12.953391832677713 145.0923119045081 86.38396648839772 0.4750501446501376
1.7394459231299262 12.932735333892094 131.42704676408664 90.52794566561558 0.4843671822584599
1.7619469046123937 12.910347229887057 119.16984966016834 94.89367245615837 0.49402899092574265
1.7838991527618697 12.886176185847262 108.19023843971198 99.49554258981095 0.5040564836271565
1.8052799058471007 12.860217095396075 98.32550259029468 104.34824918027338 0.5144689114670394
1.8260365867956465 12.832389299367115 89.46507977738337 109.46918354181805 0.5252927786317487
1.8461694800795037 12.802744355039108 81.49415282953663 114.87601608267993 0.5365522548579937
1.8656039620427904 12.77113110428705 74.32596189269215 120.5879664727531 0.5482737563129579
1.884342171864458 12.73761996953376 67.86912871913202 126.62595949863842 0.5604861331800657
1.9023486895582922 12.702183317692318 62.04188677876163 133.01279786392172 0.5732208788071771
1.919573811978399 12.664729521145652 56.79091222739869 139.77335408395328 0.5865123630876965
1.9359948382638315 12.625268807816871 52.05006542089324 146.93442890494686 0.600396866201429
1.9515750131881489 12.583760529966106 47.766332809129224 154.52427985119053 0.6149105070288738
1.9662984193431747 12.540229740893377 43.88948550202305 162.5758402206497 0.6300997403523844
1.980135467664773 12.49466114521248 40.38320175218229 171.1230230125438 0.6460079957823642
1.9930324752069197 12.446960740489985 37.20898417213035 180.2032556532969 0.6626837228877304
2.005004508696332 12.397242803986416 34.33080658894674 189.85829244897874 0.6801822593237571
2.015979145407221 12.345373029177816 31.720356363108614 200.13320812515727 0.6985615717217699
2.025967651752254 12.291454409403535 29.35114760621023 211.0769634534513 0.7178832095902667
2.034922452752214 12.23541091454067 27.200831698240815 222.74383148415072 0.7382159072785031
2.0428204039640105 12.177257125061377 25.24398805634971 235.19396262174422 0.7596361587865801
2.0496616798223934 12.11704863372794 23.467547210593793 248.49218826435035 0.7822229310627208
2.0554029770777498 12.054744934341052 21.850789208180657 262.7106295096366 0.8060645891810319
2.0600304646552066 11.990367661430096 20.378680994937852 277.9292971082577 0.8312590362587625
2.0635256874107735 11.923949547824117 19.039043419860526 294.23582850369337 0.8579107906186408
2.065848219154153 11.855603834636206 17.822962070601445 311.74614221045806 0.9183803258840436
2.0669117901406486 11.785457231346493 16.721864487614216 330.6043392365566 0.9882849906048061
