M[M_sun], R[km], Lambda[1], P_c[MeV/fm^3], rho_c[fm^-3]
0.24162668629717493 15.618656898711224 2160425.4255784233 3.5677272577965504 0.1711233750220791
0.2536400111848458 15.277414216865834 1723269.1981618602 3.7847638050318038 0.17388747752093825
0.26603324142011936 14.981415042299213 1383191.55252735 4.011284182604719 0.17666524359815466
0.2788046052434931 14.723745552734883 1116575.7428735157 4.24754621704525 0.1794554033210887
0.2919564178867231 14.498602917152766 906082.2167137876 4.494174230967391 0.18226450725979274
0.30548725204060667 14.301478826721345 738886.4992423502 4.7513195004201085 0.18508817692261578
0.3194000713711227 14.12837954798282 605225.3590124056 5.019671357377416 0.1879331860543003
0.33369297778629003 13.976210584079043 497848.7084411109 5.299444153864869 0.1907959681006664
0.34837130037192315 13.842249093053319 411159.6667717254 5.591377619702081 0.19368304505601572
0.36342811366892175 13.72423125989334 340776.74600106856 5.89562495780956 0.19658922024255737
0.37887506854813374 13.620282323828851 283435.95073082537 6.213055945887163 0.19952229473408073
0.39470344707978705 13.528705393137441 236527.2380658509 6.543938395183701 0.2024786323915637
0.4109232019648492 13.448099296380855 197979.37264252396 6.888953801197246 0.20546159192613006
0.4275242014707721 13.377301260821122 166189.61592403016 7.24881618786782 0.20847441332613562
0.4445151748769224 13.315130268567762 139884.36796783583 7.623799420631854 0.2115128827024151
0.46189004870965955 13.26076144482979 118057.70315187494 8.014822567949349 0.21458270104545302
0.47964825498173047 13.21334207559834 99875.44836035282 8.422603774135306 0.21768573523623938
0.4977980610862084 13.172166456461092 84703.92208581696 8.847604086087715 0.22081974723539047
0.516331849573951 13.136552709702354 71993.0610868776 9.290656226725945 0.22398757415311238
0.5352440698664696 13.105964958480302 61323.90990830103 9.752663128873877 0.22719240897824824
0.5545429618553761 13.079946426178921 52346.474002973584 10.234433504248893 0.2304356012411497
0.5742179839900701 13.057950447242138 44769.05098012798 10.736466922144837 0.23371421285488306
0.5942670214800073 13.039626720618397 38026.4879896985 11.25995092428186 0.23703371791688432
0.6146967983914354 13.024597313756475 32932.350151385435 11.80584894696014 0.240396075585377
0.6354902715952818 13.012506608266508 28320.619201562564 12.375138867838928 0.24380291678709415
0.65665546985743 13.003069588411531 24394.526163525246 12.968548492740569 0.2472526348219947
0.6781783778201546 12.996023409201113 21048.773171802215 13.58732635459242 0.25074914507802176
0.7000592372016903 12.991083730011427 18191.03903048748 14.232705766484424 0.2542955048788832
0.7222853947252548 12.988020839060427 15745.70555048991 14.905874944558402 0.25789369603254336
0.744864365841108 12.98665922848802 13648.846759721027 15.607913731061869 0.2615441251607706
0.7677760450053724 12.98675979689634 11848.664093993824 16.339986830052084 0.26524768102990326
0.7910125833584376 12.988114629415833 10232.600770714138 17.103756597121293 0.2690095410106392
0.8145769374457023 12.990649909784105 8967.361136912807 17.900676137954136 0.2728321338602296
0.8384512423034997 12.994096005117154 7816.265188117102 18.73217272782791 0.2767171043339147
0.8626241853956342 12.99836485074998 6822.776423316274 19.599464970796934 0.2806638175802414
0.8870895986600227 13.003303221459626 5962.724558946739 20.50469604194964 0.28467917337261217
0.9118407940357236 13.008790562113877 5217.515092413701 21.449657480980726 0.2887661799180318
0.9368524533303584 13.014681689257287 4571.212125002535 22.435912109561453 0.29292540159856495
0.962121115715032 13.020872942660281 4009.572686940498 23.46532480111942 0.29715936156036094
0.9876357074403948 13.027269103651273 3521.188085770167 24.540390947652856 0.301474776544252
1.0133769933128898 13.033726257301021 3079.710360270666 25.663145538166262 0.3058739780375169
1.0393250231690323 13.040179410098233 2725.1668383069045 26.83535999547867 0.31035683269121983
1.0654708041502254 13.046516200962072 2401.526399271645 28.0602172436688 0.31493274757710843
1.0917906268567985 13.052630947108705 2118.763241001617 29.33988028112867 0.3196029242973058
1.118280257272277 13.058474488693903 1871.28706608282 30.67688259011851 0.32437053912697084
1.1449034813565622 13.063944182421357 1654.3278665602465 32.07483031939171 0.3292450607391163
1.1716572113184958 13.068951116497024 1464.2989763843564 33.535472908242056 0.33422295174147243
1.1985040830681744 13.073412757935195 1297.348946120813 35.06340820318877 0.3393181836907047
1.225442941310325 13.077286449388826 1150.7846096741719 36.660818484739224 0.34452850918531625
1.2524302760204262 13.080456616740035 1021.7324271450431 38.33247408270382 0.34986667585276165
1.279465747036226 13.082909075230795 908.093317945799 40.08088005817489 0.355330869132182
1.3065017014032523 13.08450375605187 804.6275676615563 41.911383166513104 0.3609349253634288
1.3335310128443412 13.085229311335288 719.7273257698532 43.82726905890398 0.36667971512085534
1.3605307015792618 13.085047839545629 641.6938681537074 45.83357125042587 0.37257493353928955
1.387458420786323 13.083798896919857 572.720214795286 47.93544031074519 0.3786295509825729
1.414308538001888 13.081527317044635 511.6417295410151 50.137414862966466 0.38484813819843605
1.4410351516641828 13.078111152439819 457.62078344707777 52.44511183188076 0.39123975722848514
1.4676170648951021 13.073515326133448 409.6929308322162 54.864735233261904 0.3978150323572601
1.4940225115820969 13.06766752597305 367.1638978931887 57.402461861020434 0.4045830026830771
1.520230754708859 13.06054600007631 329.3857372093494 60.064905447843685 0.411553415591533
1.5462105209948525 13.052083107974592 295.7882697602909 62.85915598766971 0.41873678504388995
1.5719255686580202 13.042228519122993 265.9474541141946 65.79282282122139 0.42614445461975103
1.5973417562090044 13.030917785192115 239.31943789835495 68.87408186635983 0.4337886658705082
1.6224331973644108 13.018138275805295 215.59170369623772 72.11172742245166 0.4416826326081487
1.647185090088032 13.003826847042925 194.43495652628872 75.51522903175281 0.4498406218295077
1.6715388981101253 12.987928301252412 175.53988877957696 79.09479394176398 0.45827804205995437
1.6954738666308222 12.9704144390674 158.6512057686142 82.86002568853965 0.46700575190261195
1.7189384527004175 12.951198745890123 143.5414241748652 86.82389170640869 0.4760463588216071
1.7419525058638574 12.93035591067006 130.0126601048168 90.99829872152458 0.48541558492171055
1.7644322809675328 12.90773234942189 117.88893422458649 95.39661972136423 0.4951325695282715
1.7863590743024722 12.883325324535662 107.01092235598945 100.03319747152814 0.505217572955349
1.8077016737600213 12.857110775471606 97.24992722456005 104.92416862066116 0.5156948528737025
1.8284294786560449 12.829049176154168 88.49081445084832 110.08573748246218 0.5265857899268767
1.848507117914642 12.799098862649672 80.60574872429893 115.53596214643643 0.5379154756958359
1.8679026357861233 12.767242053365857 73.51259374414295 121.29492271090027 0.5497128601432667
1.8865815746058106 12.733444914918394 67.1272921866496 127.38388226649684 0.5620072781275857
1.9045149272539361 12.69767365698162 61.367493599212125 133.8256712761034 0.5748295350728962
1.9216693607192432 12.659913749297116 56.17498370242815 140.64500605245254 0.5882126433854518
1.9380024615179405 12.620104991740778 51.48438805153269 147.8699337157666 0.6021963562493073
1.9534989809493442 12.578261381398791 47.248234466717676 155.52938555469842 0.616818085846258
1.9681374065740784 12.534416998191132 43.41528811224785 163.65607280449035 0.6321224046024153
1.9818732202990457 12.48848092021873 39.949825694343204 172.28419889684506 0.6481525539960517
1.9946758358523193 12.440459917967164 36.80939304903175 181.45293284976432 0.6649615121399456
2.0065271068942696 12.390348110677282 33.964435127532134 191.2039843579793 0.6826029658388645
2.0173991078844975 12.338150201668196 31.382426330289313 201.58324676605866 0.701135964340007
2.027256170314116 12.28382899128859 29.042452853381366 212.64111545320014 0.7206249540917887
2.036088087327355 12.227428917751597 26.91549278060844 224.43171445538417 0.7411361398217912
2.043856708845455 12.168903534815206 24.984109433000594 237.01723212184632 0.7627503999956281
2.05054163522202 12.108266948529087 23.226815961045517 250.4631518584724 0.7855462534707215
2.056133238485922 12.045559694616584 21.628926845021184 264.8433766800283 0.8096149670425906
2.0606117949873535 11.980802514609008 20.174944992474025 280.23927800509483 0.8350555882902101
2.063952366679134 11.91399025703932 18.85169830985843 296.73996353978384 0.8619736900915991
2.0661357980516835 11.845146794352404 17.646797559723126 314.4450518111087 0.8904879881449848
2.067157500328805 11.774327592433634 16.549365658537045 333.46464391424996 0.9207274512329809
