M[M_sun], R[km], Lambda[1], P_c[MeV/fm^3], rho_c[fm^-3]
0.24162668629717493 15.618656898711224 2160425.4255784233 3.5677272577965504 0.1711233750220791
0.25363702394595883 15.277454905936278 1723359.9850838997 3.7847047489408574 0.1738867414152542
0.2660263220091885 14.981580198223066 1383280.2123061588 4.011160038748839 0.17666374339292104
0.27879401620021194 14.723943837889532 1116839.54453088 4.247352789390567 0.17945315985178364
0.2919422399600683 14.498849495126361 906311.5147746119 4.49390644790696 0.18226152543326563
0.3054698040853484 14.301687386004325 739018.7633340841 4.750968274214453 0.18508438300926944
0.3193769717835071 14.12865221015197 605434.4456900768 5.01923410510758 0.18792864939323686
0.3336669994579848 13.976478535011614 498058.4620283694 5.298909369478707 0.19079058370926552
0.3483383110176391 13.842548134067645 411310.5410420624 5.5907439723988155 0.19367691434404624
0.36339101284398 13.724514491821042 340947.2831014895 5.8948782185073565 0.19658220670900417
0.37883525043008637 13.620505248178954 283572.3314447665 6.2121870844601785 0.1995143717640439
0.39465629330100704 13.528957497625877 236664.4461215037 6.5429483181333286 0.20246995075336052
0.410870525506799 13.4483502043916 198093.4413644666 6.887823404011861 0.20545196498934654
0.42746751157785234 13.37750094353242 166285.38199322083 7.247534870880997 0.20846381331907704
0.4444512177765104 13.315367339051974 139982.0428086637 7.622370729321446 0.2115015094009388
0.46181879427864614 13.260978861239975 118137.0705724727 8.013221594291306 0.21457031621987643
0.4795719802041485 13.21353083033688 99957.40702455494 8.420818043430248 0.21767230903774307
0.4977159434607775 13.172328061880638 84765.56384503987 8.84564018592473 0.22080552775910048
0.516240700447935 13.136723549530684 72052.24706674981 9.288482390620219 0.2239722702114052
0.5351456126583495 13.106118924066818 61373.01200989864 9.750264629027882 0.2271759875787026
0.55443781608811 13.080069252632997 52388.14060034378 10.23179471844797 0.23041802795710925
0.5741040237087439 13.058054613297232 44805.33121370397 10.733599317562836 0.2336958019451939
0.5941521040687764 13.039730446443256 38397.15943912273 11.256811398715966 0.2370141021043348
0.6145699605144173 13.024667708904616 32961.66448089057 11.802418968257141 0.24037521559206967
0.635356029126291 13.012561428939238 28348.51242409886 12.371398748295842 0.24378077126175157
0.656508802153336 13.003113480821714 24419.607252732574 12.96451540660798 0.24722958335550563
0.6780286867963324 12.996061895153298 20909.070585212994 13.582943063088306 0.2507247400852809
0.6998999244078311 12.99111243627017 18210.26958933445 14.227948786115608 0.25426969802821786
0.7221170109315104 12.988032647444404 15762.980258036212 14.900719283764968 0.25786643611048743
0.744687352715962 12.98665677386602 13663.516242896325 15.602383070393982 0.26151585609206857
0.7675907487352001 12.986744452543139 11862.224352215939 16.334006317820357 0.2652178696763924
0.7908179553777226 12.988110227217705 10312.438053004149 17.09729624321241 0.2689781264972396
0.8143753343887371 12.990617927898537 8977.830024162453 17.893703964980645 0.27279905139800464
0.8382384298248057 12.994065184529878 7825.429098986553 18.724719650379686 0.276682861299366
0.8624028647791387 12.998320545617254 6831.11375927729 19.59143414360328 0.28062778832340113
0.8868595561497309 13.003249151793964 5970.265059515719 20.496048845707126 0.2846412800179085
0.9116032732640839 13.008736378652548 5224.4962515250745 21.44035265321168 0.2887263393400818
0.9366041267368451 13.014625513540468 4577.382717177462 22.42598839465402 0.29288418413654593
0.961863481600853 13.020809631387449 4014.8633405524192 23.45465775063417 0.2971160394988508
0.987370641451753 13.027200978418632 3525.934646877615 24.52893039688696 0.30142924921663794
1.0130980618898304 13.033651634397273 3100.303449445157 25.650935827845927 0.3058268584139333
1.0390402455982957 13.040106057111682 2728.9916434935353 26.822251969953005 0.31030731293114006
1.0651763691174876 13.046440916753017 2404.851083858516 28.046149600105693 0.31488070524648826
1.0914872900854775 13.05256379359469 2121.7350892280433 29.324902850291537 0.3195490147424815
1.1179682996716531 13.058407111935496 1873.9692401007947 30.66081669674433 0.3243138656470495
1.1445814480602299 13.063864771889786 1656.8888690558604 32.05760065609939 0.3291854738609475
1.1713282021014093 13.068893920128152 1466.4116441334654 33.51713445833354 0.3341611492745074
1.1981721787527624 13.073366213798266 1299.315292389385 35.043746783512276 0.33925316870605743
1.2250979332932928 13.077241960590948 1152.5311806118361 36.639891113820546 0.34446100072622
1.2520764752594646 13.080427132212645 1023.2063237881487 38.310040186946054 0.34979561018899996
1.2791038213022514 13.08288354149998 909.6129923975726 40.05699807758841 0.35525698626270164
1.3061329731630675 13.084487574694032 809.3711799444196 41.885954468200225 0.36085805055599807
1.3331557683003257 13.085230323241058 720.8364377669438 43.80000880378355 0.3665986835446716
1.36015221412265 13.085050238533663 642.7838677058859 45.804536514335005 0.3724905044708081
1.3870710025700201 13.083827766250671 573.6180136269078 47.90450718988101 0.37854150533516473
1.413907449676984 13.081547368759445 512.544359362102 50.10424449052777 0.3847551911594122
1.4406358777213106 13.078168757087639 458.3816123632871 52.40975682151967 0.39114268561641125
1.4672094813097911 13.073581151725728 410.4022227384544 54.82703918491761 0.39771356137460373
1.4936160830600445 13.067765005176206 367.77046772784166 57.36225571329816 0.4044768363014507
1.5198189645823235 13.060672375710826 329.9520316381829 60.02200634513689 0.41144223480948716
1.5457971006880793 13.052229224781476 296.29868248427664 62.81336603431475 0.41862024597213887
1.5715082112154615 13.042403160004172 266.3771864788743 65.74392771011352 0.42602218637533024
1.5969228545993726 13.0311183761652 239.73195868831596 68.82184936792613 0.43366026825917997
1.6220162183450002 13.018355008727418 215.97199023990305 72.05590571815186 0.4415476735719262
1.646765285261592 13.00408240967037 194.77363758872508 75.45554487430866 0.449698634633362
1.6711202187501928 12.988217360864269 175.8474969470316 79.03095062209661 0.4581285221886276
1.6950507124592111 12.970731018552991 158.9266977156523 82.7920265889086 0.4668494901697053
1.7185399284765361 12.951594201399901 143.7864792968233 86.75107589911111 0.4758814668441369
1.7415397753959907 12.930749405633163 130.2482129031895 90.92063588277165 0.4852428136921486
1.7640222794798108 12.908167271445974 118.09826075796092 95.31336256868903 0.4949498847448833
1.7859550381095572 12.883802774483556 107.20978866801403 99.94427353735902 0.5050256789632677
1.8072909916776834 12.857598375720785 97.43591332851898 104.8291172889381 0.5154930111715532
1.8280372999167456 12.829603998562407 88.64879263767584 109.98365473000803 0.5263717062218515
1.8481115684667604 12.799677124225788 80.75323973003388 115.4266879864053 0.5376897529888253
1.8675252465059191 12.767889447248177 73.64822738033902 121.17785686239806 0.5494745569755637
1.8862147282994066 12.734139111994114 67.24932396589863 127.25836824945743 0.5617553724968815
1.9041473549212666 12.6983863849571 61.47773779026155 133.69133674251043 0.5745641384407496
1.9213120337174177 12.66068127189287 56.27363191311308 140.50084998236207 0.5879317725411326
1.9376630470071425 12.620924820214476 51.580067888390346 147.71497918134278 0.6018982934928744
1.953181076946496 12.579169960462739 47.33142046409623 155.36319520477005 0.6165031384972551
1.9678400921465558 12.535390157941734 43.49551091924844 163.4771192211767 0.6317873258232727
1.9815847802469446 12.489499538706532 40.021123073886045 172.09188450933462 0.6477974665067338
1.994418879107599 12.441574739764588 36.87182042261938 181.24603971208788 0.6645846534209321
2.0062742950464143 12.391481466315453 34.02081495876744 190.9811706845695 0.6822024110259276
2.017160629418527 12.339329228794131 31.438305775225288 201.34303252234272 0.7007096077525925
2.027040101020685 12.285077054957414 29.093850580884812 212.38201216622855 0.7201709672012517
2.0358976645899136 12.228747796418975 26.963759689154077 224.15224930666776 0.7406530776591133
2.0436881044308346 12.170285226678995 25.026737959221908 236.71532975317461 0.7622352297530894
2.0503962883516316 12.1097153574919 23.26710079879987 250.13649563390902 0.7849955849131218
2.056012982056625 12.04707545862185 21.664717922154317 264.489933308304 0.8090268167374143
2.060510551791576 11.982367294200765 20.209004691519247 279.8563635831721 0.8344264000523722
2.0638784989584678 11.915624863377689 18.882455378660733 296.325300552984 0.8613018617532071
2.0660950622331296 11.846859501670043 17.674533980376257 313.9946274848145 0.8897669473902343
2.067145860802887 11.776107826053357 16.5750463167207 332.97549158738406 0.9199548742059085
