M[M_sun], R[km], Lambda[1], P_c[MeV/fm^3], rho_c[fm^-3]
0.24162668629717493 15.618656898711224 2160425.4255784233 3.5677272577965504 0.1711233750220791
0.2536447228554479 15.277275989615621 1723218.1697166918 3.784833489953068 0.1738883461098647
0.2660406834587487 14.981255084432693 1382983.2419193096 4.011430673228233 0.17666701385088698
0.27881648166532114 14.723501736111842 1116362.7803099942 4.247774468359088 0.17945805069236181
0.29197253270892953 14.498389793881765 905866.7092264979 4.494490231406535 0.18226802599802247
0.30550887671103105 14.301175890793488 738632.5474941491 4.751733978436661 0.18509265407623773
0.31942605804311375 14.128083224509709 605071.8480971673 5.02018736500368 0.1879385398325834
0.33372627014654394 13.975902434672717 497676.29173119116 5.300075274701295 0.19080232244027037
0.34840738026203977 13.841973818365497 410973.4131520088 5.592125428350322 0.1936902803104025
0.36346977224746047 13.723958321171473 340641.1148716356 5.896506253063397 0.19659749755408337
0.378925931660091 13.619946392400765 283282.67074023717 6.214081390947427 0.1995316455583141
0.3947603541507503 13.528395891306953 236376.40622103802 6.545106924230859 0.20248887881270186
0.4109850372530003 13.447820550204066 197836.15079742417 6.890287970238508 0.20547295426954776
0.4275935722014677 13.377019530339215 166059.85167440583 7.250328514472314 0.2084869244165585
0.44458986924280847 13.314909010815759 139785.38507710773 7.625485723832641 0.2115263067601828
0.4619732599418798 13.260528764387773 117962.70916798117 8.016712257721982 0.2145973193235929
0.4797392375419294 13.213114780964943 99804.93246544506 8.424711583435544 0.2177015830155138
0.49789711229509437 13.171956878579481 84630.3704466439 8.849922242233353 0.2208365316763568
0.5164370282586528 13.13637931645067 71926.68424581659 9.293222240487571 0.22400563904996654
0.5353573554501552 13.105818940477777 61267.30835164334 9.755494395399518 0.22721179332755947
0.5546651889003652 13.079798907284001 52297.93933067746 10.237548475551348 0.2304563457348698
0.5743495284179801 13.057828758376088 44722.67526003734 10.739852063252211 0.23373594650937787
0.5944074288355459 13.039528797538596 38321.223379410825 11.263657136702797 0.23705687439915907
0.6148463653872956 13.024482148122136 32896.539980179376 11.809898121229812 0.24042070132083473
0.6356519187975823 13.012440134758046 28286.41970283563 12.37955426001717 0.24382906065181673
0.6568239294631294 13.003015910342222 24366.429610300944 12.97330982691171 0.24727984865563998
0.6783570082963102 12.99596924354377 21023.87101846098 13.592501234020192 0.2507779574202424
0.7002465577263766 12.991057662421198 18168.68741105836 14.238321932846294 0.2543259728554934
0.722483057184881 12.988004187764238 15726.401904196455 14.91196192177085 0.257925880175569
0.7450720424766764 12.98663920001226 13631.067242394245 15.614443556636163 0.2615775012977019
0.7679946679652329 12.986746748272745 11833.835680759095 16.34704791907107 0.26528287878768064
0.7912406309140424 12.988143522020856 10286.167487121087 17.11138438095206 0.26904663234042386
0.8148157594891235 12.99067853333742 8954.22322985186 17.90890839673769 0.2728711953395228
0.8387016641218655 12.994137583151861 7805.954784705769 18.740972950935515 0.2767575368057364
0.8628821377238938 12.99842208463701 6812.489059193945 19.608947565068096 0.28070636000037685
0.8873666646233364 13.00336519122337 5953.936256666867 20.51490663787317 0.284723917787127
0.9121241720918003 13.00885150353021 5209.981402028869 21.4606448333335 0.2888132245790121
0.9371452445347407 13.01474364188127 4563.955141283385 22.447630453556197 0.29297407292810584
0.9624305821237644 13.02096170443263 4003.5652824863205 23.47792116925264 0.2972105191540956
0.9879523263349178 13.027345980173966 3515.603165872985 24.553924617667125 0.30152853939048385
1.0136956921731293 13.03380732173651 3091.0641258995206 25.677564129097334 0.3059296221567838
1.039661094351863 13.040263454984407 2720.7098144597235 26.85083974638927 0.31041531240272835
1.0658147076117466 13.046590423406368 2397.5056001883736 28.076830599308266 0.31499420760365954
1.0921487641204501 13.05271532164069 2115.085062468465 29.357568368578725 0.3196665905515849
1.118647780489642 13.05855097047285 1867.798822096934 30.69585654745993 0.3244374709909745
1.1452812836149981 13.064011600560574 1651.602029252607 32.09504692654683 0.329314579719046
1.1720457910310416 13.069012777785481 1461.6355989856115 33.55713164142266 0.3342959439053999
1.1989034613395726 13.07347915931734 1295.0497921131425 35.08662996166966 0.33939497175056804
1.225850386911266 13.07734181255964 1148.7102533429168 36.68553589143572 0.34460824371314686
1.2528474137182237 13.080502586793276 1019.8436664630661 38.3589312128977 0.349950377632748
1.2798916503532805 13.082940151716912 906.4388619742181 40.109088354287174 0.35541813617657053
1.3069356901372673 13.084521573036419 806.5365267429211 41.94141895340259 0.3610257280975975
1.3339745784024635 13.085238571800632 718.3757177799207 43.85946901291076 0.3667754300367534
1.3609834945584725 13.085031787573712 640.4197334451962 45.86786791442086 0.3726746635793374
1.3879167747507546 13.08376968189913 571.6208272358829 47.97198014343907 0.3787335551417343
1.414766477486485 13.081462526830713 510.6467711867239 50.17659844137301 0.38495793490325075
1.4414982302230404 13.078020899625676 456.7388021902874 52.48687696566411 0.39135442863781084
1.4680936693157134 13.073420228960943 408.89159295280274 54.909266810934156 0.3979349033555242
1.4944991495385056 13.067555931056022 366.393187881 57.44995974519786 0.4047084232663387
1.5207163243715476 13.060401770857657 328.740787133419 60.11558581570966 0.41168476292931355
1.5467001096463446 13.051910000357113 295.1929485633061 62.91325280516935 0.41887446574531423
1.5724162736590064 13.04202602377073 265.37601766346927 65.85058946587999 0.42628890722592067
1.5978295763100088 13.030687855487477 238.82902305053224 68.93579291542318 0.43394036359759175
1.622928102426835 13.017865557037025 215.16432386159957 72.17768062510825 0.4418420863686165
1.6476800980052813 13.003522206324366 194.0303023809419 75.58574748651249 0.4500083835622124
1.6720288008063828 12.987585459017787 175.1698881883138 79.16987107107488 0.45845321583715976
1.6959660198044921 12.970026913328898 158.31018275978664 82.94037231965734 0.46719038822691306
1.7194462345935797 12.950810443495698 143.23034829867078 86.9099320094288 0.47624119777531315
1.7424227775744225 12.929835615015895 129.7298081389714 91.09006851439096 0.48561973893159177
1.7649095009588613 12.907209521709255 117.63702495335572 95.4950027994649 0.4953484439694982
1.7868368912588777 12.882770315396165 106.79341342974057 100.13827949191003 0.5054443353964787
1.808174050312616 12.856504788164651 97.0532786461524 105.03649433983628 0.5159333767738148
1.8288824752865454 12.828364039023397 88.29819264228347 110.20619538264404 0.5268381155205275
1.8489609787986614 12.798388400032792 80.43594563067447 115.66510305095503 0.5381822362414711
1.8683365430005328 12.766444793766647 73.36267918870357 121.4332758269739 0.5499944963868318
1.887013655055518 12.732618810834476 66.98551318947735 127.53215359891746 0.5623047470911595
1.9049352763856073 12.696794965242072 61.23509857860278 133.98430651880963 0.5751427302978039
1.9220735257971329 12.65897063142084 56.05351859797621 140.81539039201883 0.5885446168728165
1.9383869316138216 12.619074102930702 51.374542264565086 148.05308717509175 0.6025486610407721
1.9538809102610832 12.577223403328468 47.148186791229435 155.72582542491742 0.6171903590642311
1.9684963553606807 12.53328280859761 43.327423645296165 163.86734482688524 0.6325176021421142
1.9822082869260034 12.487275816330882 39.866119493655134 172.51153304088024 0.6485723016368116
1.9949926896239933 12.439190426890859 36.73103324936668 181.69750868555988 0.6654070104160832
2.0068281682464195 12.389022919497815 33.891047558130225 191.46738960669467 0.683076492613551
2.0176726495980315 12.336738925151352 31.316569568411754 201.867232836109 0.7016400116014305
2.027507024508455 12.282347378289815 28.98173109056512 212.94690060129585 0.7211599069138379
2.0363127755657375 12.225870374309713 26.85996825436297 224.76212794965022 0.7417072674126598
2.0440539792196915 12.167267733114747 24.933935387525512 237.37388317328862 0.7633585228008609
2.0507108889820778 12.106551023691605 23.180173162976075 250.8491796790013 0.7861966784210409
2.056280496654322 12.043794450113616 21.586792129029057 265.2613051641856 0.8103104243213615
2.060723396449722 11.978936195168819 20.136153197560123 280.69161997303456 0.8357981215233361
2.064024989164578 11.912032277319916 18.81580924760828 297.23032197073945 0.8627681586127175
2.066181265026224 11.843120635586999 17.61323318968166 314.97772403604205 0.8913406916085398
2.067170557321892 11.772218621273867 16.51849275862238 334.0431419502339 0.9216411426707206
