M[M_sun], R[km], Lambda[1], P_c[MeV/fm^3], rho_c[fm^-3]
0.24162668629717493 15.618656898711224 2160425.4255784233 3.5677272577965504 0.1711233750220791
0.25364339653108414 15.277288041752671 1723280.227610836 3.784809893931531 0.17388805199683932
0.2660383053876648 14.981324505486722 1382997.463303657 4.0113810695879435 0.17666641442016814
0.27881256794222814 14.723579503038916 1116473.7863457615 4.247697178835202 0.17945715425035758
0.2919668194742572 14.498472473839055 905956.3785531337 4.494383227763521 0.18226683448762326
0.3055013343618116 14.30127613738678 738700.2576748112 4.751593627291703 0.18509113801600802
0.3194178225043733 14.128178250905062 605138.393687085 5.020012632393194 0.18793672691430904
0.33371613464392297 13.975952389437802 497711.82917875884 5.299861560267301 0.19080017069053642
0.3483947338400348 13.842079392036771 411039.89711971866 5.5918721983971285 0.19368783024094421
0.363454587065606 13.724077073905416 340676.8599045625 5.896207818284124 0.1965946945914809
0.37890947373968975 13.620038450790426 283327.13392416434 6.21373413972269 0.1995284790452622
0.39474001131589936 13.52849585556149 236420.90105538262 6.544711216993153 0.20248540899480147
0.41096395896126536 13.447917708694906 197881.86497422506 6.889836167707287 0.2054691065296003
0.42757054380358944 13.377103615146467 166108.3844787564 7.249816376835975 0.2084826876331427
0.4445647971285586 13.314976999486163 139820.2509950261 7.624914666491076 0.21152176077655527
0.4619457496455501 13.260606302435074 117992.41069408473 8.016072319849998 0.21459236888678554
0.47970857193237393 13.213192989946563 99826.43797916465 8.423997774718837 0.21769621617185045
0.4978647271756244 13.172012431079576 84653.15802388865 8.849137194516315 0.22083084759546037
0.5164010554305185 13.136433171773442 71947.64461370403 9.292353248968423 0.22399952129549644
0.5353168495412952 13.105885354584519 61285.648854830506 9.754535567883792 0.22720522868684984
0.5546235893118231 13.079834226812496 52308.01392761072 10.236493561800868 0.2304493204208148
0.5743045930907282 13.057860642563497 44737.8284842421 10.738705646824846 0.23372858616079883
0.5943605506883992 13.039535269297764 38335.77125155977 11.26240197675776 0.2370490321371087
0.6147953074785246 13.024535290770574 32907.34171379517 11.80852680262113 0.24041236141569935
0.6355958852238445 13.012438639928751 28297.658575049132 12.378058904975646 0.24382020654365608
0.6567659958230055 13.003032175163218 24375.555900224914 12.971697302361465 0.2472706321265576
0.678295932408795 12.996001525220688 21032.044659169245 13.590748641202229 0.2507681994529797
0.7001836671087933 12.991066404210207 18040.288416914438 14.236419874306968 0.2543156540950876
0.7224152414201397 12.988007786832036 15733.072952675668 14.909900396238319 0.2579149801129806
0.7450019349420252 12.98665421128893 13540.901894892084 15.612232034911605 0.26156619746560633
0.7679206379765021 12.986750205222942 11838.206808905712 16.344656451788428 0.26527095792307737
0.7911638112617416 12.988129498355022 10291.509551667245 17.10880096539273 0.2690340700653767
0.8147365083516 12.990659974752417 8958.677798544259 17.906120234399335 0.2728579657085905
0.8386176592028544 12.994111889511808 7809.586275357822 18.737992408577245 0.2767438427557742
0.8627955465583059 12.998400526354454 6816.248150812863 19.605735887422657 0.2806919512282809
0.8872682757776351 13.00334274528955 5956.671755392735 20.51144836664978 0.2847087631064127
0.9120286680850058 13.008833178585476 5212.518957730211 21.45692345167066 0.2887972907003955
0.9370465915765666 13.014725983684073 4566.559632421065 22.44366146360454 0.29295758800344684
0.9623225851059433 13.020938888445384 4005.7261602139733 23.47365476175277 0.29719319200556543
0.9878462092744207 13.027315948254294 3517.5437490044606 24.549340710325957 0.30151032970270036
1.0135863838615744 13.03377325109779 3093.0722900197106 25.672680465900932 0.30591077515996845
1.0395486877667863 13.04023043316586 2722.2838706132507 26.84559662205777 0.31039550482313094
1.0656971878027854 13.04656132398307 2399.00774276111 28.071203470123532 0.3149733904059419
1.0920269453129927 13.052688822507204 2116.303202051221 29.3515771784458 0.3196450259457159
1.118523776975331 13.05852803784051 1869.1706188671112 30.68942976586685 0.3244148001024598
1.1451530773239733 13.063979230750135 1652.5828678751539 32.08820552956729 0.3292910733528748
1.1719141139871612 13.06899422705198 1462.6172614592776 33.54979537833509 0.33427121994239445
1.1987679497225676 13.073455353715392 1295.8337461075107 35.0787642058694 0.3393689618285478
1.2257118522226638 13.077320189336138 1149.4205377006015 36.67716346918646 0.3445812355749938
1.2527054646489508 13.080485913433135 1020.4507227540103 38.34999604487773 0.3499221815877326
1.2797462229929326 13.082933895950315 907.0011430456577 40.099533333898165 0.35538857613561303
1.3067897553541337 13.084518309559087 807.0240828376132 41.9312448352803 0.36099497019714166
1.3338243474541869 13.08523327050714 718.7846533958558 43.848561725583714 0.3667430079379838
1.3608314999842415 13.085036110912489 640.8409379921399 45.856250312763464 0.37264088117184957
1.3877613261325308 13.083781334248275 572.0006579935045 47.95960260411619 0.3786983246692648
1.4146167763209985 13.081493767822396 510.9951177707238 50.16332523739698 0.38492074192297265
1.4413395363321695 13.078045441978588 457.03794133834157 52.4727291683362 0.39131558408706996
1.467931820618519 13.07345241547579 409.15719511614105 54.894181773891816 0.397894297148791
1.4943405802375915 13.067592597259429 366.6520709991133 57.43386974756783 0.40466593680778623
1.520551900640501 13.060448471791155 328.9442699372619 60.09841760776519 0.41164026841392387
1.5465340857864731 13.051968993360925 295.38877620985807 62.89492710865257 0.41882782539072155
1.5722498851562872 13.042094331852345 265.5551813885112 65.83102042393853 0.426239972427554
1.5976736023284472 13.030772514477068 239.00657152898583 68.91488748650126 0.43388897399881976
1.6227610499710787 13.017958513087024 215.30973679182574 72.15533791442944 0.44178806883658955
1.6475125676466953 13.003626537857937 194.16801951843445 75.56185800800883 0.4499515510589926
1.6718607328049409 12.987699666832908 175.28765730250717 79.14444067735083 0.45839388701954414
1.6957991184917995 12.97015921321925 158.41935958006349 82.91315289154782 0.4671278380603932
1.7192644235758747 12.950919716693235 143.3345683015288 86.8807834253725 0.47617519057380187
1.7422672015967857 12.930024485285339 129.8271398751165 91.05897864162723 0.4855505754084633
1.7647462182115874 12.907383947172736 117.7206622518476 95.46167213094708 0.49527530904039346
1.7866738805459705 12.882958185212045 106.85874135115871 100.10267900545644 0.5053675110911953
1.808014188370761 12.856711510824187 97.1194867834947 104.99843942490905 0.5158525670822006
1.8287261377763 12.828587041043733 88.36269377642519 110.16548467358538 0.5267530002572505
1.8488079434805578 12.798631204879024 80.49510068558514 115.62135039269901 0.5380918583473959
1.8681944637348202 12.766733572815465 73.40685973538427 121.38640161308504 0.5498990776648371
1.886867860231469 12.732896026526568 67.03330779275807 127.48196518884873 0.5622041297701286
1.9047925428205597 12.697092948726707 61.278842157482984 133.9305596152123 0.5750366172218374
1.9219376587674213 12.659289719037327 56.09397325342568 140.75766214960893 0.588432140303661
1.9382541861413645 12.619412870954793 51.41108190169197 147.9910318819476 0.602429294596966
1.953754753278435 12.577585056159778 47.178876685027085 155.6592677721327 0.6170642256496891
1.9683739172618666 12.533668912475923 43.35479814441894 163.79588146915472 0.6323841079959717
1.9820941010742403 12.487684189462453 39.89482748392753 172.43450596186847 0.648430079557383
1.9948883430621922 12.439620867214265 36.76019081861027 181.6146386507312 0.6652560614985846
2.0067216410866804 12.389461165561752 33.91725066017493 191.3781384580582 0.6829160447532406
2.01758058567206 12.337217446084027 31.339530280558847 201.77100692192744 0.7014692200956619
2.027421565642605 12.282847641020506 29.00199853998645 212.84328700666782 0.7209786411290406
2.036236724008552 12.226396396599307 26.878586878714696 224.65016761695085 0.7415137413121914
2.043987849926077 12.167818655869171 24.950907292223732 237.25303064898165 0.7631524581452155
2.050653415095445 12.107131146965866 23.196102141777082 250.71851000313816 0.7859767295817535
2.0557228647628274 12.046316138099238 21.673197671272476 265.4370222269906 1.1403777828845465
