M[M_sun], R[km], Lambda[1], P_c[MeV/fm^3], rho_c[fm^-3]
0.24162668629717493 15.618656898711224 2160425.4255784233 3.5677272577965504 0.1711233750220791
0.253641082092455 15.277386426142105 1723222.473107187 3.7847832983893186 0.17388772049623577
0.26603625661220154 14.98133232271984 1383040.4934301085 4.011325160870599 0.1766657387963141
0.27880771638825835 14.723664154679776 1116559.3279852048 4.247610065896488 0.17945614387154488
0.29196075775651553 14.498540226510233 906030.503338431 4.494262625141368 0.1822654915494352
0.30549343352948977 14.301394638991303 738814.3389933755 4.751435440489636 0.18508942929664163
0.3194067566422939 14.128307659969291 605282.0107372247 5.019815696641933 0.18793468362987947
0.3337034567674833 13.976098278335433 497813.6422662922 5.299620691410434 0.1907977455408215
0.3483811006689553 13.842184259612894 411118.66047531005 5.59158679553349 0.1936850688897269
0.36344025669573193 13.724154802152727 340758.1950182425 5.895871470190542 0.19659153553900713
0.378890606352528 13.620155005638274 283393.6756890029 6.213342776839414 0.1995249102869983
0.3947184102500052 13.5286219740575 236482.2813008773 6.54426524614136 0.20248149843290836
0.41094033953184717 13.448048862232573 197940.61783830757 6.8893269804517026 0.2054647700772596
0.4275450310835859 13.377193180763728 166147.28441656643 7.249239195917925 0.20847791276332645
0.4445367547455722 13.315055426798688 139864.62310328474 7.6242710876260675 0.21151663747496996
0.4619131682542805 13.260701584878518 118028.58048780136 8.015351118829486 0.2145867898138259
0.4796740039341571 13.213280991087576 99854.15891893057 8.423193328807802 0.21769016786319423
0.49782655467546777 13.17210198392808 84685.04409764349 8.848252470197995 0.2208244418133821
0.5163606737607921 13.136505788262012 71975.33363725182 9.291373930428867 0.22399262683192456
0.5352747913013265 13.105945738683689 61308.875748512335 9.753455016394781 0.22719783065938684
0.5545771775216427 13.079889271243944 52329.41894751846 10.235304735295339 0.23044140330005072
0.5742543180726788 13.057914678133937 44756.08921607212 10.73741371093352 0.23372029153218488
0.5943062015547816 13.039589240217873 38014.941732821535 11.260987505216102 0.23704019449331973
0.6147388035904238 13.024552160752497 32921.74872999411 11.806981441094784 0.24040296303924039
0.6355348950792509 13.012471240695405 28310.25507279536 12.376373777996436 0.24381022878177075
0.6566994518443303 13.00308089498755 24385.977986361493 12.969880148187816 0.24726024601846014
0.6782286969882675 12.996004220436822 21041.32881628145 13.58877365952941 0.2507572032841547
0.7001112826930183 12.991083175270672 18185.13624237456 14.234276477793333 0.2543040260643926
0.7223403875195217 12.988013084119354 15739.572496252871 14.90757731737687 0.2579026971193489
0.7449225321387879 12.986653315806246 13644.237686121827 15.609739945460486 0.26155345955740045
0.7678368890006475 12.986760774046692 11844.245748599691 16.34196160887812 0.2652575248070594
0.7910765173274863 12.98812678624491 10296.74264592487 17.105889847025868 0.26901991428254607
0.8146432819106731 12.990659091931036 8963.085155061804 17.902978422205972 0.2728430580343833
0.8385198122086077 12.994111901331387 7813.006072026003 18.734633836601216 0.27672841185531616
0.862698190270018 12.99837251422941 6820.212745216208 19.602116893416905 0.28067571508455713
0.8871659376726128 13.003315053596326 5960.184639618143 20.507551536285142 0.28469168659154176
0.9119199481321424 13.0088098114904 5215.462642164874 21.452730178286252 0.2887793363180809
0.9369340740809858 13.014701511916732 4569.1274918459485 22.4391892129478 0.29293901282033213
0.9622062481758087 13.020895972065878 4008.227906569697 23.468847420522735 0.29717366796443
0.9877258978816998 13.0272948622677 3519.597830221386 24.544175655953858 0.30148981139364645
1.0134610942654363 13.03375216811667 3094.6571293583006 25.667177689072076 0.3058895388844109
1.0394197558846303 13.040200428889388 2723.871200515636 26.839688863304374 0.31037318637436806
1.0655682066452086 13.046536286486965 2400.3201177952983 28.064863081929477 0.314949934553
1.0918902255723746 13.052659862140327 2117.6629019156294 29.344826629009216 0.31962072811260267
1.1183832280343946 13.058495870332322 1870.3890449159096 30.6821884771751 0.3243892559873759
1.1450089758374782 13.063952139503314 1653.7127819814068 32.08049713196593 0.32926458805796316
1.1717674609076323 13.068963702920152 1463.5725806774255 33.541529472803674 0.33424336298850305
1.1986161134755209 13.073426993466922 1296.6959828455801 35.069901788950645 0.3393396562184041
1.2255581384316159 13.077302510424456 1150.1833541336025 36.66773025445156 0.3445508054844893
1.2525462489398456 13.080468678871446 1021.1887915798479 38.339883523145076 0.34989014733576873
1.2795853352788829 13.08291724561446 907.6480161682358 40.08876786162718 0.35535527136091855
1.3066226243779875 13.084514004448534 807.5839688085975 41.9197819227282 0.360960316075873
1.3336546316451967 13.085237336955714 719.2911652302025 43.83627288579746 0.3667064791508191
1.3606590154356595 13.085039369359086 641.3015687655492 45.84316128971193 0.37260282007082507
1.3875863814067437 13.083791356053274 572.4178705556777 47.94565750432937 0.3786586324136953
1.414438269369188 13.081512568928245 511.37604385269697 50.14837118778306 0.3848788390279841
1.441166428508526 13.078091281646543 457.36846090490786 52.4567899027888 0.39127182083580353
1.4677503231148976 13.073488489115102 409.46420915929207 54.87718673308344 0.39784854955542626
1.49415623002599 13.067636773523654 366.92528082340255 57.41574265765627 0.4046180713032713
1.5203663129882454 13.060504235723123 329.19695423116474 60.0790759688463 0.4115901410591456
1.546347741979072 13.052034457887826 295.6196089498889 62.87428163217688 0.41877528101170275
1.5720627648811807 13.042171281063414 265.7599481179929 65.80897441341374 0.42618484366432446
1.5974838464110837 13.03086573142825 239.1913636752514 68.89133615510285 0.4338310802586038
1.6225723606892677 13.018062797321978 215.48296988716123 72.1301676323651 0.4417272151408549
1.6473236341543385 13.003742278926326 194.32485674835127 75.53494547159207 0.4498875267726389
1.6716725448963266 12.987833108238762 175.43601057718584 79.11579247272353 0.4583270510859054
1.6956117643856714 12.970306270775836 158.54636200586344 82.88248959454508 0.4670573738931869
1.719076393348143 12.951081283815723 143.45352590744577 86.84794723742893 0.47610083276382154
1.7420814506638276 12.930205143437636 129.93744370934763 91.0239558931234 0.48547266268445255
1.7645667072564521 12.907590966631625 117.81377818630617 95.42412554232021 0.49519292344120025
1.7864931408239477 12.883171058060281 106.94646791379019 100.06257588713271 0.5052809703016772
1.8078341764760262 12.856943849545686 97.19896929000788 104.95557188342548 0.5157615377680064
1.8285586035081884 12.828860929599934 88.43658101587076 110.1194644338388 0.5266565206873266
1.8486349775678887 12.798900914792352 80.55712111580748 115.57206566276673 0.5379900531022086
1.8680258360996167 12.767028195693717 73.46734333497383 121.33360122609996 0.5497915954261188
1.8867026068295611 12.73321265011198 67.08562480481562 127.42535279827331 0.5620905091539619
1.9046321319102957 12.697427568262324 61.32830685800775 133.87001896827005 0.5749170911870694
1.9217665450226633 12.659600142225315 56.139083556089 140.6926377100325 0.5883054479678214
1.9381116139751364 12.619825643484605 51.45369760637859 147.9211343861264 0.6022948432861366
1.9536074361627231 12.577974996639691 47.217433564227804 155.58429980873063 0.6169221538546433
1.9682392048056687 12.534100700185864 43.389604920737206 163.71520566043918 0.6322331269741703
1.9819665246621323 12.488145518013598 39.92376382308189 172.34774790596416 0.6482698902930852
1.9947643374142543 12.440104519567022 36.787005409133045 181.52130070843648 0.6650860451424909
2.006609642197521 12.389973988800257 33.944116025139486 191.2776147232757 0.6827353320296212
2.0174760869761803 12.337755950759195 31.364279220066095 201.66262902344315 0.7012768600164505
2.027326768446565 12.283417821805486 29.02539379284758 212.7265900320787 0.7207744867537551
2.0361519869797635 12.226992098550653 26.900565957365295 224.52407186885674 0.7412957818096967
2.0439118219088592 12.168445495769934 24.97082306233396 237.11692202151278 0.7629203804322297
2.0505895540503873 12.107783294856144 23.21505714163818 250.57111015654237 0.7857282467584923
2.05617260310262 12.045060552848435 21.616820005791034 264.9601908872623 0.8098093526701903
2.060642855423924 11.980283997552485 20.163443712319136 280.36583574794633 0.8352635424404081
2.063974591213331 11.91344493487934 18.841915810100605 296.87701800824635 0.8621957428880808
2.066148001794017 11.844578302164843 17.637086721372928 314.5939302699341 0.890726313275425
2.067161790799341 11.773738392377222 16.54120045454257 333.6263275524531 0.920982817624325
