M[M_sun], R[km], Lambda[1], P_c[MeV/fm^3], rho_c[fm^-3]
0.24162668629717493 15.618656898711224 2160425.4255784233 3.5677272577965504 0.1711233750220791
0.2536362150987882 15.277468914958627 1723454.9606980952 3.7846772375582267 0.17388639849914164
0.26602290170918536 14.98165008256659 1383512.270889658 4.011102207056177 0.17666304453104514
0.27879032543046434 14.723972317602493 1116846.7096392512 4.247262683655751 0.1794521147610462
0.2919350977577483 14.498944764298303 906395.0383508895 4.49378170658742 0.1822601364097216
0.30546115049226175 14.301803863359433 739157.1422060042 4.750804665128415 0.18508261571888757
0.31936651896816265 14.128773194835889 605517.6277259832 5.019030426123915 0.18792653614516847
0.3336545960915241 13.976593855177033 498122.8298003372 5.298660262262658 0.19078807561294353
0.34832349938704504 13.84263079640636 411397.0997121333 5.590448818131681 0.1936740586453176
0.36337424671388274 13.724627434193946 341019.0422527101 5.8945303908772555 0.1965789398382941
0.37881545784087123 13.620629570678929 283636.1058552539 6.2117823788492705 0.1995106813361697
0.3946346154402224 13.529054451961164 236708.83346622717 6.542487157853694 0.20246590700070513
0.41084629725574967 13.448468650353856 198141.76252606706 6.88729689266783 0.20544748099779886
0.42743974975649196 13.377613366347026 166329.5727342829 7.246938073303281 0.20845887616566272
0.4444210305743245 13.315472154602684 140025.92155739115 7.621705297872006 0.2114962121387302
0.46178762946576585 13.261051900920073 118176.28715923952 8.012475930576183 0.21456454790819673
0.47953722799731696 13.21360792028106 99986.08341743953 8.41998633955869 0.21766605578732964
0.4976770517619173 13.172413591192475 84797.56617781303 8.844725510876899 0.2207989051209436
0.5161974008004481 13.13677802246987 72080.47439591946 9.287469953087363 0.22396514258805578
0.5351009278990393 13.106180222390135 61401.18300332083 9.749147572460233 0.22716833961814797
0.5543887157305804 13.080153471503522 52407.96647628985 10.230565770020219 0.23040984363999475
0.5740524659603353 13.05811856580772 44826.25864383283 10.732263818228128 0.23368722762577915
0.5940965770996108 13.039764904191907 38412.03087760863 11.25534928033622 0.23700496676223923
0.6145110907150599 13.024703150549836 32974.56087773908 11.80082160369513 0.24036550095038872
0.6352936229681492 13.012594426064815 28361.250478257618 12.36965697263001 0.24377045807878925
0.6564417969252241 13.00315352022272 24430.827208779367 12.96263721766114 0.2472188483976731
0.6779574771123642 12.9960965340832 21081.179704913473 13.580901812714053 0.2507133749500808
0.6998259562918695 12.991138267664772 18219.0824169432 14.225733542884358 0.2542576802255734
0.722034242459984 12.988076436604453 15770.536862586861 14.89831841444181 0.2578537418093614
0.7446055323850135 12.986671193040635 13670.650448352579 15.599807601311028 0.26150269200249265
0.7675054212364392 12.986743059898398 11869.353305545064 16.331221403508998 0.2652039875770309
0.790728332425742 12.988093568940453 10317.933064337118 17.094287924309054 0.26896349806111486
0.8142810973519392 12.990600159679653 8924.142385545349 17.89045735736262 0.27278364647700065
0.8381419606458353 12.994040133723653 7830.87747214783 18.721249147152353 0.276666916132723
0.8623000829160887 12.99830095358 6835.035901208227 19.587694664103633 0.28061101163725255
0.8867519793250772 13.003226297154951 5973.841254563187 20.492022415118523 0.2846236355747613
0.9114904851797648 13.008708521537281 5227.506564870174 21.436020066821452 0.2887077884598195
0.9364877844311911 13.014592081346299 4580.214904919669 22.42136768907097 0.29286499235618474
0.9617439422273986 13.020776302854795 4017.390950713262 23.449691000662742 0.2970958680514516
0.9872457148071186 13.02717146692184 3528.17506338907 24.523594255609467 0.30140805126052767
1.0129662468856626 13.033626668842345 3102.3826493877923 25.645250935588887 0.305804919319865
1.0389069792976175 13.040076770503811 2730.755540397712 26.816148905563935 0.3102842566528542
1.0650405827356813 13.046406436187882 2406.4312173739727 28.0395998343783 0.3148564748150062
1.0913460619442628 13.052530675354184 2123.117563130946 29.317929577429368 0.3195239152417891
1.117822542127989 13.058375950136105 1875.2405325943093 30.65333676146158 0.32428747969065186
1.1444370338603551 13.063845950430954 1657.971588186479 32.04957901361039 0.3291577319007248
1.1711739701788297 13.068863316273063 1467.4125380357589 33.50859669927773 0.33413237614620955
1.1980086962621712 13.07333156396457 1300.319154260266 35.03459323358239 0.3392229003979723
1.2249363663475143 13.077226520464752 1153.3723631326613 36.6301483096173 0.344429571948014
1.2519172973254775 13.080415228871582 1023.9995780660963 38.29959617765251 0.34976252585711254
1.2789351276036787 13.082873401801384 910.1122603351795 40.045880060046045 0.3552225908307153
1.305961689465039 13.084482341573356 809.9332240699833 41.87411654506683 0.3608222627209283
1.332981801185103 13.085226640985812 721.416097890979 43.78731843399502 0.36656096120268417
1.3599735156232526 13.085056539549681 643.2286161077714 45.79102025789837 0.372451201033135
1.3868909924981836 13.083839500916008 574.1082045666803 47.89010739355099 0.37850051886645414
1.4137249682734365 13.081565319671629 512.887161542972 50.08880348384619 0.3847119237570563
1.440450404738357 13.078198735885328 458.72964670305896 52.393299086176796 0.39109749884134026
1.467021707958255 13.073618315926172 410.7229258466199 54.8094919517284 0.3976663273786594
1.4934248070466056 13.067815290319128 368.04995769365996 57.34354032378182 0.40442741736185456
1.5196281673948322 13.060732316452885 330.1940896187182 60.00203772474153 0.41139048251883653
1.5456033678185745 13.052297016762214 296.5315720394278 62.79205211313044 0.4185660003481929
1.571314686787896 13.042480831665241 266.6211389877187 65.72116878523154 0.4259652748819892
1.596732505072459 13.031221326076503 239.91476679116664 68.79753740089318 0.43360050472905354
1.621821036850667 13.018462966555303 216.14876164078092 72.02992356015976 0.4414848570197342
1.6465594629963483 13.00419957604906 194.93203440384994 75.4277654108531 0.44963254794812774
1.6709244128778598 12.988353520781532 175.98671709746387 79.00123582780088 0.4580589306911499
1.694855538618895 12.970884367650415 159.0627990959237 82.76037802744919 0.46677676186764716
1.7183452653414797 12.951761950847402 143.90421920517963 86.71718613223481 0.4758047231962446
1.7413468447912988 12.930933638229835 130.34877522907027 90.88449079373973 0.4851624041735816
1.7638331147512052 12.908367566134752 118.20116802278062 95.27461456935698 0.49486486298234095
1.785765791430432 12.884019762320378 107.29815752855085 99.90288890746211 0.5049363727273715
1.8071047806595844 12.85783878907734 97.51957545832543 104.78486536041072 0.5153990149163834
1.827855439551604 12.829861911017016 88.72740171851287 109.93614788012147 0.5262720768310554
1.8479324644562463 12.799955650163454 80.82280548645383 115.37583537227091 0.5375847090359117
1.867349632121545 12.76819131803536 73.70971883660309 121.12337929553934 0.5493636606132404
1.8860439537296827 12.734463989657524 67.30716789630952 127.1999604128568 0.5616381484348683
1.9039816210460832 12.6987331896094 61.531449755420205 133.62866442857543 0.5744400701049358
1.9211521936446707 12.661048338239965 56.322706434716686 140.43376970181086 0.5878010746452774
1.9375146904285818 12.621347192888845 51.621164558694325 147.64287561403881 0.601759598693789
1.9530325247236733 12.579586806837574 47.372835061794966 155.28586493461063 0.6163565898944339
1.967695874118634 12.535837671522065 43.53105600181158 163.39385201002202 0.631631413463544
1.9814516149585442 12.489976688468424 40.05499114515591 172.00240244955657 0.6476322476671197
1.9942936089816106 12.442073238586431 36.903442524200564 181.149776468386 0.6644093085877637
2.0061571360593455 12.392010152590414 34.05317088248002 190.87750236030223 0.6820160452360777
2.0170510386693756 12.339886276169207 31.463971378230646 201.23127096459862 0.7005112420119654
2.0269409906301266 12.285662459567323 29.116288684355084 212.26139740112842 0.7199595288509791
2.035801361540861 12.22934484933247 26.982140860913553 224.02223236408636 0.7404283402785969
2.043609170038455 12.170929875778437 25.04608973850538 236.57469999063923 0.7619949808839758
2.050328190038694 12.110390958420108 23.283918753401156 249.98453184791194 0.7847394083196579
2.0559556227236166 12.047770401307679 21.67581616784124 264.3255123481716 0.8087532107070975
2.060467562047726 11.983104849088624 20.224238413714478 279.678237815242 0.8341337115778178
2.0638464156031247 11.916393559283048 18.89670185105461 296.1321693531479 0.8609885540032027
2.0660767157736277 11.847658597001574 17.68792994245163 313.78510941532227 0.8894315501700099
2.0671407946458813 11.776938158920446 16.587429537978732 332.7479657974884 0.9195955153954001
