M[M_sun], R[km], Lambda[1], P_c[MeV/fm^3], rho_c[fm^-3]
0.24162668629717493 15.618656898711224 2160425.4255784233 3.5677272577965504 0.1711233750220791
0.25364502096280483 15.277276536026207 1723226.8248563048 3.78484108670261 0.17388844079968294
0.26604192402983845 14.98124728773485 1382910.9947763388 4.011446643235478 0.17666720683899967
0.27881899374038804 14.723432162898307 1116348.2240296858 4.24779935204141 0.17945833930557784
0.2919743221671051 14.498341319028285 905820.4057024885 4.494524681862196 0.1822684096118418
0.30551108367553564 14.301154470812957 738609.6403647233 4.751779165569955 0.18509314218351827
0.31942893100331216 14.12806893039368 605030.7956603707 5.0202436218117805 0.18793912351868058
0.3337283071358636 13.975866806218667 497620.2701765331 5.300144082448628 0.1908030152201133
0.34841138206558536 13.841889033290995 410944.8142051371 5.59220695897369 0.1936910691416119
0.36347527517080797 13.72390223295307 340601.3000205341 5.896602338469756 0.19659840000855372
0.3789299764287531 13.619935199354313 283250.1412257408 6.214193194106527 0.19953266506850534
0.39476453211420215 13.528369976552748 236369.19594471803 6.545234329202644 0.20248999598218873
0.41099185437846897 13.447790193346698 197833.42582582883 6.8904334368386975 0.20547419312415766
0.4276018316264646 13.377002847817042 166050.5422477863 7.250493407979453 0.20848828853828447
0.4445983952782211 13.314861409070796 139775.3786891628 7.6256695886274475 0.21152777044217413
0.46198024044074526 13.26049729337228 117946.42819512276 8.01691830119972 0.2145989132364722
0.47974879177323654 13.213098419143279 99784.62221794619 8.424941412575752 0.21770331100935292
0.4979086272703766 13.171922903573188 84622.52113421528 8.850175009726783 0.22083836182100847
0.5164490352544495 13.136346322232528 71922.61566765283 9.293502037364341 0.2240076088374223
0.5353696767016548 13.105805389357815 61259.781085228744 9.755803119094741 0.22721390701339395
0.5546798566506425 13.079751789753988 52290.48893320708 10.237886288191273 0.23045858396429048
0.5743634486247112 13.057804172574517 44717.90895888215 10.740221190294156 0.2337383164193284
0.5944224182851378 13.039495594641211 38316.94535925155 11.26406127932882 0.23705939948959992
0.6148621954198383 13.024475719835523 32891.742538643375 11.810339667357287 0.2404233866579932
0.6356693170279103 13.012430420664229 28283.27488052744 12.380035746558162 0.24383191156935366
0.6568419643965718 13.00299670359001 24362.752866974282 12.973829042775082 0.24728281628060053
0.6783758327873307 12.995965862241738 21020.596580404803 13.59306555312989 0.2507810993978551
0.7002674764611303 12.99105020526567 18166.440764924653 14.238934381553781 0.2543292954196221
0.7225040985835978 12.98800688595306 15724.498410129632 14.912625720899952 0.25792938993178555
0.7450953369712855 12.986636818468751 13629.080174450986 15.615155656531117 0.2615811410800104
0.7680178777141763 12.986764565452711 11832.140311217465 16.34781796436786 0.2652867172703511
0.7912664315702446 12.988148410205524 10286.365518672874 17.112216237086294 0.2690506773751145
0.8148442781431233 12.990661476375669 8952.851767243246 17.90980618544925 0.2728754552827642
0.8387282893883516 12.994134907761529 7804.658309732861 18.74193268989307 0.2767619463096641
0.8629110454358014 12.998424759142335 6811.382488043347 19.60998173502419 0.28071099966875296
0.887395571152086 13.003366224345635 5953.036072249191 20.516020217232455 0.2847287976645426
0.9121547692435718 13.00887087182083 5209.0571636262775 21.461843141450775 0.2888183553873558
0.9371776364957846 13.014755318725241 4563.296720735899 22.448908498258472 0.2929793811981908
0.9624648069129731 13.020965516104875 4002.83876803711 23.47929499157206 0.29721609865473714
0.9879870334425789 13.027351520777668 3514.9641946086326 24.5554006853411 0.3015344031066303
1.0137318156933395 13.03380914654788 3090.3569481688583 25.67913672785925 0.30593569111827146
1.039699091281549 13.040271255490117 2720.2030843549387 26.852528104690606 0.3104216907163689
1.0658533680680238 13.046592682724738 2397.1204053885863 28.078642621886132 0.31500091106310285
1.0921880821865033 13.052730580322313 2104.1011422802653 29.359497632535728 0.31967353471725607
1.1186889902078452 13.058559973018237 1867.5185196061918 30.69792609014613 0.3244447714369031
1.1453216500364334 13.064016782332644 1651.2710431123544 32.09724999253947 0.3293221492368034
1.1720889847509333 13.069019081213263 1461.3188044500448 33.55949407691698 0.33430390555659306
1.1989464009253916 13.073478479281384 1294.7721660947489 35.08916291913412 0.3394033475542167
1.2258947758139123 13.077349410791372 1148.4944283390203 36.68823201939436 0.3446169410045898
1.2528936835472668 13.080506936488101 1019.6717536016796 38.36180145487268 0.349959415749567
1.2799374008106161 13.082941191266416 906.2500407408565 40.11216533961877 0.3554276553412321
1.3069899377755267 13.084546495115548 806.3600378215355 41.94469532092692 0.361035633052991
1.3340228309716542 13.085242267222974 718.1782102511813 43.86298150313085 0.36678587097421367
1.361033661978329 13.085029803235463 640.285468489539 45.87160916632108 0.37268554263165254
1.3879732106661582 13.083785788496035 571.47372554609 47.97596614001857 0.3787449005747073
1.414817507812224 13.081457751610087 510.5852839159532 50.18087289908525 0.38496991240481543
1.4415501492196077 13.078011156239482 456.63977244548346 52.49143309775565 0.391366938069499
1.4681453102399744 13.07340865513554 408.78898737785295 54.914124795421394 0.3979479801760744
1.4945551663029637 13.067538787998428 366.33063483972523 57.455141394738504 0.4047221056759639
1.520768636449068 13.060386306915412 328.6767937732145 60.121114723975964 0.41169909209487
1.5467528244222568 13.051891423039578 295.1239446906641 62.91915450782926 0.41888948604778986
1.572470360122794 13.042002825343342 265.3179791984577 65.85689161781175 0.42630466653263477
1.5978841319718358 13.030660583426164 238.78176601844015 68.9425254859902 0.43395691356178695
1.622992267479344 13.017849432935197 215.1045123232936 72.18487611354075 0.4418594827594322
1.6477347193262213 13.003487842687763 193.97478062239708 75.59344115970212 0.45002668662840345
1.6720819754695881 12.987546723743014 175.13543569231777 79.17806104291876 0.4584723229477721
1.6960199508568645 12.969985100188419 158.27186276196326 82.94913851412606 0.46721053291627085
1.7194991096739556 12.950764811023157 143.1965320159361 86.91931956274158 0.4762624559648025
1.7424808988380271 12.929815615873848 129.70225841840144 91.1000813336654 0.4856420137688911
1.7630544986404393 12.907661718595584 118.45758367742843 95.67558662741413 0.8029234085295721
1.7695335970362869 12.879476304494847 113.29318667487637 101.73203370852424 1.415702151046493
