M[M_sun], R[km], Lambda[1], P_c[MeV/fm^3], rho_c[fm^-3]
0.24162668629717493 15.618656898711224 2160425.4255784233 3.5677272577965504 0.1711233750220791
0.25364197646824005 15.27736961917222 1723158.16576095 3.7848033245881822 0.17388797011314364
0.2660380033522879 14.981275772517957 1383033.6162635027 4.011367259569088 0.17666624753424037
0.2788113838871077 14.723607766838803 1116457.652968662 4.2476756609799455 0.1794569046756633
0.2919659268780793 14.498466122130628 905938.2804210661 4.494353437482341 0.18226650276592837
0.30549958771470725 14.30130116991916 738721.0730358841 4.751554553131341 0.18509071594050194
0.3194145111034182 14.128226187087266 605165.6638692918 5.019963986582695 0.18793622219524955
0.33371118596895866 13.976055559755414 497731.57211065263 5.299802062174057 0.19079957164346265
0.34839136002056487 13.842102444028837 411052.3629189617 5.591801699530169 0.1936871481450128
0.3634522412350784 13.724076529975484 340696.69141417166 5.89612473488358 0.19659391425460065
0.37890446706825787 13.620074978502641 283342.8962268788 6.2136374664548075 0.19952759750146132
0.3947354307706665 13.528527322997503 236441.63563782736 6.544601054290301 0.20248444301671997
0.41095830739544575 13.447960860642995 197898.99099907585 6.88971038901476 0.20546803534547375
0.42756465363516194 13.377123667790576 166111.39018456108 7.249673801977518 0.20848150814787747
0.4445577529609947 13.314988491417164 139830.7779869675 7.624755689584607 0.21152049521815797
0.46193782341997686 13.26062207157174 118001.47960549087 8.015894168133547 0.21459099073922933
0.4796997762748157 13.213229097034912 99834.73586905508 8.423799059133309 0.21769472210844656
0.49785484638846217 13.172044572655906 84661.03713074677 8.848918647802542 0.2208292652238748
0.5163911249467865 13.13645613279132 71957.12760650995 9.292111334592715 0.22399781820320985
0.5353081245247576 13.105880280079845 61291.979478740286 9.754268645774804 0.2272034011968016
0.5546132421799419 13.079841751363194 52314.637945333656 10.23619989223728 0.23044736469608218
0.5742925034042167 13.057872895318429 44742.44230119489 10.738386505822822 0.23372653717670833
0.5943472804448982 13.039549346191789 38336.21150124703 11.26205256523776 0.2370468490076087
0.6147809127202307 13.024552985490068 32633.80707920711 11.808145056648437 0.24041003976325628
0.6355797389725674 13.012454295454955 28301.91112449741 12.37764263186138 0.2438177417596578
0.6567507841360611 13.003032764012609 24378.418225209545 12.971248413683076 0.24726806646294738
0.6782807094435596 12.995984621520902 21034.768879469804 13.590260763126965 0.250765483078567
0.7001659400005287 12.991057827041045 18042.243500475666 14.235890391199632 0.2543127816233889
0.722396905305337 12.988007263555165 15735.310704476371 14.909326524416226 0.25791194583633453
0.7449822228709054 12.986654706144414 13639.03955147184 15.611616410689665 0.26156305080294345
0.7678998841507214 12.986758932370286 11839.973057191834 16.343990739022463 0.2652676395119056
0.7911418248439144 12.988132567446561 10292.778443509102 17.10808182338422 0.2690305731213113
0.81471372611241 12.990661450328897 8959.581921508845 17.905344100981196 0.2728542830110176
0.8385930652262596 12.994122972845688 7809.991528032217 18.737162726056965 0.27674003079388276
0.8627713972552522 12.998388007796487 6817.183389119734 19.60484186889444 0.2806879403309727
0.8872416591532666 13.003338471162886 5957.393323924251 20.510485709725927 0.28470454459451006
0.9120011430231854 13.008831760056857 5213.215247750547 21.45588755936736 0.2887928553095337
0.9370179419309302 13.014715105690042 4567.174593791908 22.442556650814918 0.29295299924010376
0.9622945410267638 13.020919845809521 4006.3267540610195 23.472467165246364 0.2971883688232836
0.9878156797671832 13.027311189040931 3518.003720678353 24.548064740880818 0.30150526088182594
1.013556464412085 13.033771006080777 3093.5068233617653 25.67132106227821 0.305905528959582
1.0395153694916746 13.040230167273478 2722.654694784923 26.844137167049627 0.3103899912649136
1.0656651583787435 13.046553030726896 2399.3935828243593 28.069637132943683 0.31496759584361805
1.091993260122888 13.052680495455268 2116.8240050202407 29.349909510026883 0.3196390233633614
1.1184891181233698 13.058517489244966 1869.4191351021404 30.687640858221794 0.32440848961482355
1.145117286891517 13.063970019221555 1652.7323692355285 32.08630122081084 0.3292845303355545
1.171877084787842 13.06898932751628 1462.8195694677645 33.54775333384118 0.33426433804190636
1.1987305237734585 13.073444397774956 1296.0344151180361 35.076574788974845 0.33936172202042975
1.2256736285165948 13.077319127496292 1149.620296827428 36.674833032794716 0.34457371794793784
1.2526670484165763 13.080481440594072 1020.6782454411564 38.34749777953571 0.3499142676308033
1.2797055887850979 13.082925415322975 907.1468840464117 40.09687375141719 0.355380348275926
1.3067484507819591 13.084521363992138 807.1508542851415 41.92841294346309 0.36098640895914846
1.333782359198006 13.08523398813077 718.8941321103175 43.84552577857182 0.36673398353338826
1.3607886447656368 13.085037375959816 640.9574290105508 45.853016671151266 0.37263147818129827
1.3877186732398046 13.083785214281056 572.0962540519289 47.95615745796147 0.378688518671191
1.4145730067798241 13.081500711058482 511.0890608251474 50.1596308150519 0.3849103897444279
1.44129422507287 13.078056163458227 457.0833324406806 52.468791333865695 0.3913047722689931
1.467887447686618 13.0734588167973 409.2232466251162 54.889983093505634 0.3978829950563076
1.4942941627717254 13.067599550946154 366.7208182163134 57.4293913754389 0.40465411143799973
1.520505472648785 13.060462910943542 329.01458840850023 60.09363915961855 0.4116278842014721
1.5464880150768188 13.051985307197329 295.4451140361575 62.889826522741494 0.41881484399406327
1.57220327198202 13.0421134144431 265.605089960867 65.82557380800456 0.4262263524939207
1.5976256713690553 13.030795390875772 239.0390331528398 68.90906894914194 0.43387467090552034
1.6227075106181934 13.017955372774223 215.35657722465214 72.14911937910541 0.4417730344060831
1.6474679841369224 13.003652904170394 194.20495103482574 75.55520900770236 0.4499357332448336
1.671814547839013 12.987731467194815 175.32596475119394 79.13736283992843 0.4583773745058134
1.6957527622586102 12.97019473605663 158.45354421311427 82.90557717343692 0.46711042908223843
1.7192179999562391 12.950961293957043 143.36776353844294 86.87267083555591 0.4761568195493374
1.7422204949590554 12.930071692134163 129.85431616794753 91.05032580304614 0.48553132602761573
1.76470357274056 12.907431793540782 117.74591821465968 95.45239570282065 0.49525495448575835
1.7866292038706675 12.883011106575864 106.88062052243993 100.09277091100185 0.5053461298532127
1.8079696200252695 12.85676947544415 97.13955239268144 104.9878482943324 0.5158300767942212
1.8286833413213064 12.82864952423953 88.38328225874139 110.15412946943141 0.5267292187589997
1.8487644803426453 12.798697049289261 80.51051249821133 115.60917367970556 0.5380667054602121
1.8681531855071427 12.766808512693466 73.42220719755387 121.3733562334992 0.5498725220525986
1.8868271492922324 12.732974554253808 67.04791137243232 127.46797791433708 0.5621760574217901
1.9047530228547944 12.697175394001711 61.291697635187376 133.91560172084405 0.5750070856939695
1.921899251216562 12.659379818492887 56.10588090834235 140.74159635736146 0.5884008380308509
1.9382179901208518 12.619507917726397 51.422232042710434 147.97376200120684 0.602396075122131
1.9537200750389012 12.57769041065199 47.19391756797036 155.64074502247735 0.6170291231849389
1.968340421711958 12.533776715881242 43.363134181811574 163.77598773291348 0.6323469373950701
1.9820646926687682 12.487801262975436 39.90049438443796 172.4130699456799 0.6483905002972562
1.9948582888481345 12.439742095191894 36.766865030803345 181.59157676832194 0.6652140539600051
2.006693582551851 12.389589984002674 33.9224043536828 191.3533009798007 0.6828713941206964
2.0175540856809904 12.337350905257988 31.345401286686656 201.74422868056328 0.7014216913586963
2.0273978857911943 12.282986660569279 29.00673670590716 212.8144531160816 0.7209281979625369
2.0362163761355756 12.226543711407043 26.88423763313103 224.6190112563277 0.7414598868011265
2.043968572205227 12.167973017022998 24.95536908867834 237.2194000609939 0.763095114903338
2.050637564264361 12.107292304683215 23.200484241468317 250.68208927162047 0.7859153324609167
2.0562123212924255 12.044548206973262 21.604150850911175 265.0802752056875 0.8100091799528016
2.0606757907857034 11.979744102420856 20.15248999146452 280.4958375698527 0.8354769928141627
2.0639963132676575 11.912885969510329 18.83132856916472 297.0179128062651 0.8624240177065582
2.066161207517132 11.843996594960371 17.62759209719789 314.74698251850214 0.8909713198223219
2.067165329543543 11.77313118430879 16.532062837941613 333.79254626934 0.9212453468101904
