M[M_sun], R[km], Lambda[1], P_c[MeV/fm^3], rho_c[fm^-3]
0.24162668629717493 15.618656898711224 2160425.4255784233 3.5677272577965504 0.1711233750220791
0.2536436123653189 15.277281124407201 1723183.3895615798 3.7848127696511247 0.17388808784129678
0.2660393581663699 14.981270793039055 1353470.8324975166 4.011387114912393 0.1766664874743464
0.27881399496686915 14.723540194766366 1116459.8948154047 4.247706598274845 0.17945726350166263
0.2919673424888075 14.498481091630648 905972.6401911114 4.4943962684787575 0.182266979699014
0.30550349590954 14.301232329763288 738711.8124516822 4.751610732060077 0.1850913227801514
0.31941873005459814 14.128167410752095 605123.9507809572 5.020033927198834 0.18793694785613657
0.3337169270363407 13.975975588847774 497703.68647029356 5.299887605725413 0.1908004329250824
0.3483962352047878 13.842066886140678 411029.92052635405 5.591903059522374 0.19368812883082057
0.3634585538790508 13.724024043335014 340672.92082877335 5.896244188391443 0.19659503618722557
0.37891143384096476 13.620062665635167 279404.3874269492 6.213776458919087 0.19952886494537772
0.39474241006118355 13.52849208075937 236418.43048523096 6.5447594413261685 0.20248583185705413
0.41096648767190924 13.44792764766705 197890.22768450636 6.889891228112475 0.20546957544711608
0.4275740382212417 13.377087423040356 166099.1006563269 7.24987878996447 0.20848320396095962
0.4445680884552987 13.314963293145105 139811.7829989384 7.6249842598263236 0.2115223147842522
0.4619494357002211 13.260586171907342 117995.27185786657 8.016150307221821 0.21459297218215667
0.47971261691120326 13.21317518098789 99827.34086048574 8.424084764225242 0.21769687021132952
0.49786966189862186 13.171993731983534 84651.26906795142 8.849232865402827 0.22083154029355573
0.5164053024564682 13.136429488275562 71946.341027246 9.292459149428787 0.2240002668413395
0.535323319262317 13.105862857177314 61283.057225767276 9.754652415907081 0.22720602869026854
0.5546282676673618 13.079847276821923 52306.843121824626 10.236622119002291 0.23045017656162597
0.5743100064416355 13.057870845252062 44736.78575939879 10.738845354618334 0.2337294831281091
0.5943645044842313 13.039549631904976 38332.47133169046 11.262554936059491 0.23704998782959394
0.6148014465602161 13.024515040114238 32906.168827031936 11.808693916984907 0.24041337774985527
0.6356025773726932 13.012437811136627 28298.50716019986 12.378241134323265 0.2438212855371453
0.6567732785646012 13.003038065799734 24374.762505984272 12.97189380987064 0.24727175528289833
0.6783039589861165 12.995988023625594 21031.147316599716 13.590962217198078 0.2507693885869042
0.7001908320846277 12.991069527975398 18175.238939271603 14.236651663875547 0.2543169115648096
0.7224239508822415 12.988009789293766 15732.216275574456 14.910151618036595 0.2579163084173268
0.7450105075334038 12.986653541381745 13636.301473485611 15.612501534836468 0.26156757497045585
0.7679290348826889 12.986762510410141 11837.504370202912 16.34494787925157 0.2652724106158886
0.7911732050168638 12.988141820296319 10290.797081192397 17.109115782911935 0.26903560091636647
0.8147462237881515 12.990655005528543 8957.98280122 17.906460001451496 0.2728595778789585
0.8386278641796305 12.994124296169506 7809.146805449051 18.73835561820059 0.27674551151606375
0.8628061563397748 12.99839652947617 6815.835331658536 19.60612726196635 0.2806937070790314
0.8872804303380583 13.003334612447134 5956.505429605375 20.51186978966075 0.28471060984738944
0.9120380900906973 13.00883815752168 5212.069023733742 21.457376935671014 0.28879923238756194
0.9370577598752835 13.01472600134959 4566.279072220177 22.444145119613612 0.29295959683515654
0.9623353872540678 13.02092756026 4005.2617116745205 23.474174658941173 0.29719530346252404
0.9878595527102227 13.027324946188804 3517.2483732800974 24.54989929562276 0.3015125486969117
1.013599802833819 13.033783735915978 3092.450715931483 25.67327557718987 0.3059130718090444
1.0395619686789994 13.04024382312057 2721.976259301808 26.84623553421823 0.31039791851822457
1.0657122677888224 13.0465623942528 2398.826779621603 28.07188917365071 0.31497592712145567
1.0920434892861806 13.052691252389693 2116.2612227405 29.352307243204603 0.31964765373058557
1.1185396812198405 13.0585320743183 1869.0165168040758 30.690212907471608 0.32441756268521693
1.1451686074380794 13.063982949313996 1652.49417508918 32.08903919214411 0.3292939377353763
1.1719298305938086 13.06899948865524 1462.5089254185336 33.550689339912644 0.3342742326850821
1.1987850300911729 13.073452876985325 1295.7188726077175 35.07972268538759 0.33937213126047006
1.225728989123737 13.07732391356721 1149.3520492343885 36.67818368537972 0.3445845266345072
1.2527242148076736 13.080488662091579 1020.4185039118288 38.351089734922795 0.3499256461580347
1.2797638469534758 13.082936098148123 906.8934718115123 40.10069764694508 0.3553921781312083
1.306807356348885 13.084518303322815 806.9645154777953 41.93248458372893 0.3609987181445229
1.3338433379630168 13.085240145128173 718.7777916118063 43.84989080786769 0.36674695865788254
1.3608497557387453 13.085034947612193 640.7681259896949 45.85766594421295 0.37264499763580566
1.387780288763469 13.083776857777554 571.9579244777585 47.9611108307838 0.37870261756922696
1.4146364013129127 13.081490188692975 510.95415753771556 50.16494259594858 0.3849252739398708
1.4413583362303866 13.078041918731813 456.9894314399106 52.47445309146119 0.391320317334073
1.4679514813386334 13.073447525475649 409.12723997092604 54.896019894234165 0.39789924503817387
1.4943604179438623 13.06758421087518 366.62491542628527 57.435830315991545 0.40467111378860304
1.5205714689827357 13.060443687715127 328.92671666001445 60.10050954870182 0.4116456900571437
1.5465543647110227 13.051962557818406 295.367485725123 62.89716008097067 0.41883350848280027
1.5722701092341747 13.042087783619154 265.52979475156525 65.83340488795162 0.42624593507335146
1.5976940614724413 13.030762151498694 238.98668052725859 68.91743477780093 0.43389523573486616
1.6227812333429366 13.017948585719367 215.3000106860757 72.15806032532151 0.4417946507558413
1.647533543731868 13.003613676071602 194.1502892530453 75.56476887742132 0.4499584759483422
1.6718818390424577 12.987684306583178 175.28199159172303 79.14753929247485 0.458401116053178
1.6958195106423017 12.970143358631463 158.4050637194402 82.91646948089652 0.467135459573057
1.7192843734283314 12.950903645998785 143.3211686099522 86.88433505995278 0.4761832332786887
1.7422862057952724 12.930003706445696 129.81117479396443 91.06276679985218 0.4855590026661429
1.7647666559469823 12.907363869884183 117.70988569406161 95.4657333012303 0.4952842201548101
1.7866940523539094 12.882934685548639 106.84967673649982 100.10701672384194 0.5053768716992846
1.8080334463314873 12.856685628640871 97.11104285608192 105.00307618220123 0.5158624132460295
1.828745452558784 12.828559335058 88.3552654242927 110.1704450016668 0.5267633709837829
1.8488259727833993 12.798602564946565 80.48500453895954 115.6266813348661 0.5381028702343463
1.8682135734324372 12.766702690296857 73.4024292710217 121.39211286781011 0.5499107036865161
1.8868853221830186 12.732863150278293 67.02764223348083 127.48808881750459 0.5622164198439795
1.9048098709949999 12.697056717702564 61.275041712895685 133.93710819403893 0.5750495461497568
1.9219547460636703 12.659250315914942 56.090502368003435 140.76469578329636 0.5884458444968398
1.9382697748095183 12.61937288476671 51.405784874337314 147.99859268582387 0.6024438381793954
1.953769583594299 12.577540700688466 47.1743181769545 155.66737710346894 0.6170795936443269
1.9683892379912638 12.53362267657812 43.35108095225968 163.80458846400646 0.6324003727347149
1.982107960189183 12.487634476535142 39.89055019206516 172.44389077862667 0.6484474075954123
1.9949013193638225 12.439568919788044 36.75657381479742 181.6247353063521 0.6652744526967962
2.006740098969278 12.389420119007568 33.91087985837928 191.38901250992578 0.6829355931666976
2.01759210844291 12.337159096908948 31.33678110634685 201.7827306869128 0.7014900286220569
2.0274310003102305 12.28278624098577 28.999079627192106 212.85591078599842 0.7210007256757228
2.0362461815310624 12.226332662027529 26.876822460052075 224.6638082369648 0.7415373194486227
2.0439960238855592 12.167751391076763 24.94933351080672 237.2677545551565 0.7631775637578047
2.0506607084504997 12.107059582852003 23.193890297011695 250.73445551918638 0.7860036101175037
2.056236068493045 12.044328312475669 21.597950651713035 265.13693833096477 0.8101034706853213
2.0606905739630546 11.97949117112822 20.147563042794943 280.5571178814051 0.835577506787976
2.0640007371350153 11.912609775950793 18.825989567866237 297.084396859011 0.8625317337846933
2.066167744245101 11.843722649541261 17.62327735444803 314.8192040649983 0.8910869323133774
2.0671671143844903 11.772843613104417 16.526417690659212 333.8709815530338 0.9213692290754185
