M[M_sun], R[km], Lambda[1], P_c[MeV/fm^3], rho_c[fm^-3]
0.24162668629717493 15.618656898711224 2160425.4255784233 3.5677272577965504 0.1711233750220791
0.25364355871538596 15.277315679803063 1723147.5117375436 3.7848114645731714 0.17388807157412967
0.26603858230572375 14.981308922817323 1383039.775216362 4.011384371382744 0.1766664543204097
0.27881347544041774 14.723554485242245 1116511.183981655 4.2477023234804125 0.1794572139204892
0.2919668371887509 14.498470364600662 905959.4161582539 4.494390350250659 0.1822669137981706
0.30550309789689517 14.301229230980177 738690.456609896 4.751602969452937 0.1850912389291791
0.3194184604097431 14.128156200994178 605128.464099382 5.020024263036733 0.18793684758672477
0.33371507109283993 13.976038471451659 489746.7371378936 5.299875785584752 0.1908003139158791
0.348395533418685 13.842072810951334 411033.5461768491 5.591889053896778 0.1936879933225401
0.3634585080065594 13.724006418126422 340672.4796318325 5.8962276826341835 0.1965948811616604
0.3789105746539392 13.620059760695042 283323.9068123862 6.213757253296111 0.19952868981322125
0.3947407773206658 13.52850380928602 236426.64518503548 6.544737555783395 0.20248563995040994
0.41096494413167195 13.447918760920313 197885.7647425239 6.889866240163628 0.2054693626392579
0.42757234069777444 13.377096326893897 166095.69453460356 7.249850465137203 0.20848296963692267
0.44456579633952104 13.314986189536452 139818.47793198493 7.6249526764126285 0.21152206335997112
0.4619478010615517 13.260592078286603 117990.93101377577 8.016114914349151 0.21459269838967268
0.47971022503444183 13.213199343547545 99829.65655968119 8.424045285919536 0.21769657338966028
0.49786691583551906 13.172007588750484 84650.95808871664 8.84918944723088 0.22083122592743967
0.5164041086794622 13.136420678076075 71947.70013646736 9.292411088772992 0.2239999284913265
0.53532113659471 13.105875304212981 61284.85830832834 9.7545993869211 0.22720566562576064
0.5546267439971183 13.079825921393576 52305.63075250028 10.236563776040741 0.2304497880202617
0.5743075302611941 13.05787273559493 44737.94641584299 10.738781951183359 0.2337290760584166
0.5943634424654272 13.039540105923104 38335.269091549795 11.26248551868993 0.23704955410861273
0.6147988153130176 13.024516279845988 32906.89740655477 11.808618075618783 0.24041291650781071
0.6355994588197597 13.012438936727452 28298.67167721281 12.378158433316834 0.24382079585834954
0.65676987688771 13.003033885570556 24375.190860395905 12.97180462899855 0.24727124556160382
0.6782994962807025 12.99601106439881 20869.24562833405 13.590865290122295 0.2507688489229145
0.7001876397109075 12.991068499328437 18175.656313170246 14.236546470918425 0.2543163408878833
0.7224201175218408 12.987995321708587 15732.568427365617 14.910037606131272 0.25791570559340626
0.7450061061667641 12.986655746392083 13636.60296290254 15.612379227750177 0.26156694981776024
0.7679255485563854 12.98675599745959 11837.985348636534 16.344815620763388 0.2652717513404966
0.7911689974670564 12.988130203053354 10291.196852390098 17.108972909282432 0.26903490617028725
0.8147418867348686 12.990653014734752 8958.275443282051 17.90630580493774 0.2728588462275263
0.8386223346110225 12.994123536052337 7809.005700495947 18.73819078270925 0.27674475418226924
0.8628008340041008 12.998398290772512 6815.89322107286 19.605949644339802 0.28069291022075865
0.8872734909166794 13.003351205038802 5956.630367246371 20.511678535081497 0.28470977174016865
0.9120341069811182 13.008839329819917 5212.367447493795 21.45717113078806 0.28879835119065156
0.937051539624262 13.014724563352482 4566.288222550243 22.44392562170734 0.292958685165817
0.9623291503247177 13.020928035060555 4005.3382527776384 23.47393871361816 0.2971943452184611
0.9878526177551284 13.027319252437103 3517.4661006905553 24.549645792382254 0.3015115416488808
1.0135938738247 13.033779620967207 3092.600569273534 25.673005497271376 0.3059120295186245
1.0395559572143385 13.04023314620302 2722.0989307435852 26.84594557603363 0.31039682310841576
1.0657062996018483 13.046559705461645 2398.9222954175693 28.071577980009014 0.31497477588085765
1.092035220908001 13.052693463069836 2116.207331474144 29.351975916982475 0.3196464611596212
1.1185322769238528 13.058525982274586 1869.061979202749 30.689857493221925 0.3244163089384209
1.1451613543436252 13.06398226268983 1652.5324116828203 32.08866084980911 0.3292926377883784
1.1719219435185793 13.069001307018608 1462.4819191287695 33.5502836318815 0.33427286540718687
1.1987774856839397 13.073456002854128 1295.766577124517 35.07928769695518 0.3393706928716497
1.2257209949954015 13.07732446231692 1149.3506501167815 36.67772067878015 0.34458303304688886
1.2527163383422726 13.080484545557178 1020.461203726167 38.350593383409304 0.349924073825251
1.2797559498768372 13.082935653478746 906.9286486233257 40.100169244332825 0.35539054343005394
1.306798676840274 13.084522308700006 806.9447555867829 41.931921945978964 0.36099701720536553
1.3338341992153753 13.085240855745846 718.7936287446926 43.849287627370785 0.36674516569350374
1.3608416351848904 13.085037719158422 640.7857371424258 45.85702348475104 0.37264312945096195
1.3877713482509237 13.083779224427026 571.9729565174567 47.96042634843935 0.3787006693115189
1.4146275293227824 13.081492988734176 510.9778554080537 50.16420858577818 0.38492321716248373
1.4413499196841852 13.078041501735376 457.01964983687617 52.47367071860322 0.39131816923133483
1.4679426317685669 13.073448359928234 409.134274026301 54.89518569471436 0.39789699952309404
1.4943513697691382 13.067587237935786 366.64060589185334 57.434940545262705 0.40466876430365833
1.520561357887808 13.06044819650658 328.929255212327 60.09956015652602 0.4116432295356429
1.5465451256064866 13.051966585199578 295.37549814530803 62.89614668379286 0.4188309293064141
1.5722613596181736 13.042089047223378 265.5435775018161 65.83232273848927 0.4262432290254059
1.5976847694219196 13.030767710673056 238.99695703526965 68.91627873153543 0.43389239394893736
1.6227716852084946 13.017952952785793 215.3027480754031 72.15682480353836 0.4417916636591344
1.6475235871881317 13.003619049644318 194.15621619545834 75.56344782640697 0.44995533319928577
1.6718721023926297 12.987692414303794 175.2873051333645 79.1461330357368 0.45839783527229677
1.6958106507896473 12.970149416967523 158.41562338510533 82.9149642995701 0.4671320006707527
1.7192749065914243 12.950910884341484 143.32570576546956 86.882723206554 0.47617958322378745
1.7422772667560238 12.930013691030204 129.8167470285608 91.06104760342951 0.4855551780869159
1.7647577686329046 12.907372246968535 117.71566950248507 95.4638902019105 0.4952801759833584
1.7866849451376985 12.88294527107576 106.85258920482325 100.10504811684032 0.5053726235307807
1.8080247414693587 12.856698258277603 97.11615182639619 105.00097186030993 0.5158579447140825
1.8287368293887118 12.828573096384352 88.35689910450922 110.16819383135015 0.5267586643854796
1.848817443993693 12.798615459533433 80.49032139206136 115.62426196598695 0.538097872653102
1.8682056171588832 12.766715400809794 73.40388786520519 121.38952089882633 0.5499054273875157
1.8868775564802698 12.732877325311247 67.02955152519797 127.48530969767698 0.5622108421726605
1.9048026645429939 12.697072995171514 61.27749066481803 133.9341362157886 0.5750436785418996
1.9219468255560392 12.659269185881744 56.09278782027764 140.76150366865377 0.5884396250436161
1.9382626295744019 12.619391205020717 51.40828215993288 147.99516132112726 0.6024372377786804
1.9537633550313096 12.577559682357759 47.17797269028026 155.6636967959406 0.6170726190931567
1.9683825624407396 12.53364386886482 43.35230734195322 163.800636913681 0.6323929912058672
1.9821016765599904 12.48765722024831 39.89234804675451 172.4396316062562 0.6484395434993185
1.9948954021945104 12.439592728692386 36.75788056457677 181.62015307364894 0.665266106096391
2.006727754024806 12.389429443301225 33.91573552805479 191.38407746419054 0.6829267213757925
2.017586675813102 12.337185873985105 31.33813077238681 201.77741000768296 0.7014805849412658
2.0274268545003347 12.28281449188016 29.001056883105242 212.85018164448496 0.7209907028854087
2.0362418326312786 12.226362003666656 26.878026982489978 224.65761761231312 0.7415266188065344
2.0439923489736063 12.167782057980379 24.949881427493303 237.2610722915905 0.7631661698845815
2.0506574175481713 12.107092572847394 23.1956859534609 250.72721883932198 0.7859914107110235
2.0562348213542165 12.044361430884221 21.59911111819451 265.1291078300619 0.8100904402768764
2.060687815849534 11.979526840545569 20.148107023503652 280.54864929214983 0.8355636163305505
2.064000068100365 11.912644987387402 18.826862533000583 297.0752091168819 0.8625168479961742
2.066166797560208 11.84376037314782 17.623352462911782 314.8092234029405 0.8910709552364681
2.067166491100565 11.772882848813833 16.528222873322765 333.8601421522315 0.9213521091076965
