M[M_sun], R[km], Lambda[1], P_c[MeV/fm^3], rho_c[fm^-3]
0.24162668629717493 15.618656898711224 2160425.4255784233 3.5677272577965504 0.1711233750220791
0.2536416336657065 15.277353021485284 1723240.1764928498 3.7847927818410323 0.1738878387028864
0.26603715788256943 14.981296431444243 1383040.9440680088 4.011345096764978 0.1766659797098323
0.27881078644330176 14.723616412826985 1116505.5254844276 4.2476411284757605 0.17945650415065414
0.2919628745357409 14.498500550958248 905958.8013499678 4.494305629283512 0.1822659704105387
0.3054957564700862 14.301351898443745 738739.2406742543 4.751491846119732 0.18509003858509843
0.319410807362275 14.12826080220128 605188.0550235854 5.019885919017227 0.1879354122141265
0.33370671159900395 13.97606769826714 497772.48769766506 5.299706578978691 0.19079861028612058
0.3483856472192412 13.842154774117134 411104.33094924333 5.591688562486815 0.19368605351299542
0.36344584410554664 13.72411509878322 340735.59972771484 5.895991402487205 0.19659266196851777
0.3788974774810393 13.620110643772083 283365.97492255335 6.213482325463102 0.19952618280241888
0.3947266017352503 13.528578984518441 236462.73368112376 6.544424265958221 0.20248289282187698
0.4109487992526989 13.44800999348757 197923.15890754425 6.889508540824976 0.20546631632158724
0.42755406363665716 13.377165977399578 166131.74123235178 7.249445000140535 0.208479615328917
0.44454663013413076 13.315026718395174 139841.39583331798 7.62450056664952 0.21151846427555115
0.4619249078160589 13.260662404017317 118019.7269106913 8.015608274643174 0.21458877912194632
0.47968643882529055 13.213248219698215 99846.79702073068 8.423480166132697 0.2176923244788862
0.49783970097445396 13.17207716540726 84673.63829569043 8.8485679312344 0.22082672588607183
0.5163760157866528 13.1364694515412 71964.38720118674 9.291723119428339 0.22399508514425023
0.5352901696801756 13.105909583335862 61300.599695940284 9.753840300296785 0.2272004685169226
0.5545931926426695 13.079887748863493 52320.86934123955 10.235728624835513 0.23044422623902844
0.574271380807233 13.057900949649218 44749.20743840564 10.737874364220119 0.23372324906897737
0.5943259424094001 13.039571793833414 38345.136397364375 11.261491848519295 0.23704334563940482
0.6147597003045565 13.0245327367506 32916.76656689532 11.80753245299117 0.24040631411091348
0.6355565254726456 13.012460377146422 28307.2076291386 12.37697462285261 0.24381378642874862
0.6567254446483329 13.003045918336849 24383.0117764777 12.970528066884725 0.24726394925604012
0.6782527295910695 12.996004086855214 21037.97011718225 13.589477850817449 0.2507611240325824
0.7001373099887429 12.991072362172558 18182.248867858638 14.23504071633909 0.25430817209580203
0.7223665331908847 12.988005716084785 15736.787249732866 14.90840562033083 0.25790707666929763
0.7449493618621287 12.98665432597048 13641.688211556462 15.610628507842693 0.26155800129889156
0.7678670575413035 12.986760357945686 11842.08735608555 16.342922461078413 0.2652623144142878
0.7911079406342447 12.988120231274891 10294.869029138941 17.106927809934323 0.26902496154468614
0.8146776671403473 12.990643081860469 8961.695352601675 17.90409863627225 0.27284837337002865
0.8385554803706802 12.994107334308232 7811.706888491206 18.735831333797428 0.27673391373533107
0.862731615718789 12.998379248451075 6818.74393604239 19.603407240469018 0.2806815040580007
0.8872027451611917 13.003324384040512 5959.157398501258 20.508940941707586 0.2846977751815336
0.9119602554419975 13.008810784239916 5214.457566429832 21.454225275657997 0.28878573789206596
0.936973639167038 13.014707411271125 4568.14523172648 22.440783775178716 0.29294563572403326
0.9622472408653855 13.020909987047032 4007.119692109155 23.470561453155067 0.29718062916023863
0.9877684955496502 13.0273002515719 3518.7913908167525 24.54601722422564 0.30149712707015675
1.0135065923298197 13.03376206851436 3094.1772235966732 25.669139665777905 0.3058971105303741
1.0394653337604567 13.040215347167287 2723.331147292753 26.84179522754036 0.3103811438391596
1.0656149267127337 13.04654725679055 2399.80455526813 28.067123690292654 0.31495829752632326
1.091939194986351 13.052667510554176 2117.317403603498 29.34723347111175 0.3196293912663632
1.1184333412522598 13.058505112846216 1869.9283295001833 30.684770280042464 0.32439836346428713
1.1450603428253578 13.063961289325237 1653.1562807313476 32.08324547096065 0.3292740310800485
1.1718190319688364 13.068978964580229 1463.2076340388967 33.544476575993784 0.33425329503011275
1.1986691841637798 13.07343797239787 1296.3575823489734 35.07306156118565 0.33935010472856914
1.2256127917620578 13.077312322898258 1149.8407818464423 36.67109352851886 0.34456165488600676
1.2526037856989523 13.08047382081109 1020.9293711426697 38.3434889830536 0.3499015686423635
1.279642999245975 13.082924498578253 907.4143191092787 40.092606111056824 0.35536714562237753
1.306682207936729 13.084512690108765 807.3835166830413 41.923868822373095 0.3609726713926621
1.3337151575709423 13.085234060884945 719.177916794663 43.840654241238475 0.36671950280506
1.3607195800648488 13.085037241542317 641.1380124112158 45.84782792312228 0.37261639000686814
1.3876488631348114 13.083787028663586 572.2662874071478 47.950629341615894 0.37867278386755676
1.4145028484614999 13.08150587434612 511.24407952688745 50.15370272744818 0.38489377858967355
1.44123053006332 13.07808161268982 457.2313559125693 52.46247268373184 0.3912874236231191
1.467816685589938 13.073472980924247 409.34463038208094 54.88324590923247 0.3978648597679004
1.4942227211240198 13.067616191789856 366.83490136715346 57.42220542000854 0.40463513655655026
1.5204315295166362 13.0604879932533 329.1049678779708 60.08597172780836 0.41160801266544567
1.5464146913741637 13.052011216912916 295.5457935427531 62.881642218096935 0.4187940142880618
1.5721297515539827 13.04214343482779 265.68959122209634 65.81683429732695 0.4262044982716184
1.5975521410421372 13.030831631286514 239.12374472043928 68.89973269196479 0.4338517205746681
1.6226404219328359 13.01802895575673 215.43028467815054 72.13914132932199 0.4417489106714347
1.6473911294959425 13.003702011944876 194.26661286880642 75.54454028415549 0.44991035260434636
1.6717403179068069 12.987785292474431 175.37899297983805 79.12600605367322 0.45835087925341006
1.6956784536662948 12.970254384367967 158.50093785852087 82.89342155243042 0.4670824955005684
1.7191508384928385 12.951053519935229 143.41257437295212 86.85965382371128 0.476127342422001
1.742146623249053 12.930141160559934 129.89870238822743 91.03644198145999 0.4855004396350376
1.764631782290985 12.907518266424653 117.77892213085048 95.43751136348241 0.49522229492173875
1.7865578996902973 12.883094940407291 106.91544616772956 100.07687309492385 0.5053118230558237
1.8078987030473068 12.856860969698522 97.1727362014853 104.97085458615592 0.5157939906192882
1.8286126789630857 12.828749058463318 88.40697995751573 110.13587809583792 0.5266909427369807
1.8486954691594144 12.79880467493785 80.53647757982058 115.58963602033425 0.5380263473978788
1.8680864730609268 12.766923597425022 73.44878955668725 121.3524248691156 0.5498299134652029
1.8867619061627323 12.733100024555592 67.06889196092905 127.44553536358073 0.5621310154014943
1.9046886593946937 12.697308870710064 61.31085532740231 133.89160189771638 0.5749597025912365
1.921836931777801 12.659521955406154 56.12360242433324 140.71581902861726 0.5883506139918344
1.9381579055271387 12.619662307663528 51.43842264816893 147.94605284965525 0.6023427751905053
1.9536633294462258 12.577852776093854 47.20523811607036 155.61102578802732 0.6169728022607187
1.968285841083015 12.533948063012168 43.3770445345874 163.74398499699856 0.6322870143832978
1.9820120759451727 12.487981210296251 39.914725388489956 172.3786767624016 0.6483269970448058
1.994810474898801 12.439932485783634 36.77727666495226 181.5545751163369 0.6651466549378574
2.006649484059498 12.389791904279438 33.933431046129094 191.31345065646036 0.6827997547164947
2.0175129460798615 12.337564642924335 31.355694480242917 201.70126471949538 0.7013454345658461
2.0273610900527648 12.283215349170733 29.016280567599157 212.76819120990584 0.7208472655254443
2.036182328212007 12.226779811002125 26.89257139839212 224.56902337255076 0.7413734815539754
2.043938657981304 12.168220125308878 24.963603599186676 237.1654427459618 0.7630031127246049
2.050610553235989 12.107551009827484 23.20714369591105 250.62365574223 0.7858168267386152
2.056191209425732 12.044818017903207 21.610770902651765 265.01704734976136 0.8099039651270796
2.0606583694400564 11.980026599193335 20.15839075079984 280.4274352233349 0.8353647600053586
2.0639851665714377 11.913179785693366 18.836821286540566 296.94372717671433 0.8623038236940221
2.0661548562760883 11.844302083759107 17.63312371696822 314.6663953301559 0.8908423155840597
2.067161975828563 11.773447718222524 16.53621982826986 333.7050261996056 0.9211071158510987
