M[M_sun], R[km], Lambda[1], P_c[MeV/fm^3], rho_c[fm^-3]
0.24162668629717493 15.618656898711224 2160425.4255784233 3.5677272577965504 0.1711233750220791
0.2536420354050426 15.27734558460772 1723271.3735539212 3.7848044333240844 0.17388798393300178
0.2660381273503122 14.981273060974287 1383068.110956781 4.011369590342065 0.17666627570025628
0.27881170558612905 14.723591339757009 1116473.011032648 4.247679292632183 0.1794569467973565
0.2919657770585864 14.498472335527149 905973.1555132136 4.494358465299288 0.18226655875183698
0.30549956470810685 14.301294281741356 738678.9014636972 4.751561147816799 0.18509078717569105
0.3194152038114618 14.128211241924747 605153.5853416917 5.019972196702121 0.1879363073784074
0.3337119838788363 13.976050353722393 497729.9730966901 5.299812103860706 0.19079967274658505
0.34839211610093046 13.842097510928088 411054.1953331596 5.5918135978425925 0.19368726326445862
0.36345368721365773 13.72404908165529 340691.73448213673 5.89613875711371 0.19659404595435345
0.3789051386049817 13.620071728099802 283352.64390845515 6.213653782271805 0.1995277462820668
0.39473628772892655 13.528504177465031 236427.7773064999 6.544619646741156 0.2024846060473968
0.41095817613552993 13.44795292509444 197907.16601293316 6.889731616998291 0.20546821613188948
0.42756453939367417 13.377161491681425 166110.9024509996 7.249697864670168 0.20848170721236703
0.4445589231349003 13.31500639962303 139822.363384194 7.624782520467689 0.21152070880923948
0.4619383697402051 13.260644903227274 118003.57129352738 8.01592423516498 0.21459122333202563
0.4797015672026158 13.213210835668127 99832.06876134187 8.423832596741642 0.2176949742643765
0.49785642849009887 13.172040614925042 84661.40260315695 8.848955532319643 0.22082953228353816
0.5163927857615369 13.136448974121933 71953.20619832343 9.292152162876128 0.22399810563687042
0.5353098272700656 13.105878850601037 61289.96734586259 9.754313694615036 0.22720370962500755
0.5546142422675246 13.07986149729515 52312.26867564176 10.236249455242246 0.23044769476636068
0.5742943067689028 13.057886349192414 44741.28029713008 10.73844036763655 0.23372688298623676
0.5943488607846851 13.03955864582328 38336.50704841086 11.262111535792961 0.23704721745670473
0.614783102019252 13.024528963746423 32910.68844013503 11.808209484268595 0.24041043159068196
0.6355832857454464 13.012458605812705 28301.766617755788 12.377712886599005 0.2438181577431724
0.6567535681833406 13.003052762671198 24377.926288346323 12.97132417292033 0.24726849947168097
0.6782828707673256 12.995986615362536 21034.002434610375 13.590343102560256 0.2507659415224715
0.7001689868208393 12.991071753775751 18041.83886349609 14.235979752259434 0.25431326641149954
0.7224014936794347 12.988005290768513 15734.978223617174 14.909423376893178 0.257912457931889
0.7449859990531185 12.986640284246615 13638.520477481747 15.611720309655233 0.2615635818655365
0.7679024036904736 12.986764447611478 11839.338373087483 16.34410309134105 0.2652681995600348
0.7911457538292026 12.988130440385365 10293.695269738102 17.108203192850194 0.26903116329992516
0.8147177015160979 12.990659227163823 8959.632535568404 17.905475088764486 0.2728549045386833
0.8385972989889144 12.994118438006327 7810.058972103027 18.73730275120638 0.2767406741369934
0.8627759578827074 12.99838273642742 6817.135857222484 19.604992751872985 0.2806886172477406
0.8872477312764148 13.003331179010466 5957.259060594226 20.51064817662492 0.2847052565496523
0.9120055284416999 13.00883403138428 5213.182673865861 21.4560623859947 0.2887936038665245
0.9370238669239174 13.01471954218247 4566.9457215498205 22.442743108959686 0.29295377368108394
0.9622998870388765 13.02091629680917 4006.2382916549204 23.472667594538983 0.2971891828261943
0.9878214855796204 13.027318697689882 3517.8692873376026 24.54828008458102 0.3015061163401184
1.0135606462884714 13.033774535172718 3093.410454453446 25.67155048689071 0.3059064143533463
1.039520484777372 13.040225507079398 2722.58730764059 26.844383476969796 0.3103909217794391
1.0656704110121669 13.046554489084741 2399.3340407579763 28.069901480958894 0.3149685737818736
1.0919974837718518 13.052685389424305 2116.5453672111817 29.350190959332423 0.3196400364080506
1.1184957175609822 13.058515220904303 1869.3352378034986 30.687942768566895 0.3244095546231292
1.145122561120267 13.06398347485049 1652.7674250714113 32.086622606927435 0.3292856345865959
1.1718833768624202 13.068987809119477 1455.9362230861534 33.54809796499768 0.33426549948443673
1.198737130147228 13.073442945841451 1296.0028185353835 35.07694429147886 0.3393629438650382
1.2256800894010518 13.077315694637809 1149.589657022801 36.675226334505034 0.34457498667837355
1.2526733719488619 13.080481713250103 1020.6038694467964 38.347919404889446 0.34991560324749443
1.2797118403572842 13.08292700463273 907.1173671645342 40.09732260145835 0.35538173686800223
1.3067544109280453 13.084523774149991 807.115228896998 41.928890873261565 0.3609878538133353
1.333789412323973 13.085233339592978 718.8619378690473 43.846038145623915 0.36673550655324383
1.3607956928667584 13.085038828172987 640.8789799235826 45.853562402026 0.37263306509255006
1.3877258286585041 13.083779945681473 572.0905925179717 47.95673888324916 0.378690173595248
1.4145799368136784 13.081497486365675 511.07207275263414 50.16025430914607 0.38491213684359027
1.4413017656806015 13.078051150278775 457.0663515042227 52.469455907135824 0.39130659693819875
1.467894544076083 13.073459127077257 409.21954014635116 54.8906916880967 0.3978849024655088
1.494303050066389 13.067596814722764 366.7138676500338 57.43014717178829 0.4046561071567693
1.5205133121301884 13.060462531045074 328.9983447903692 60.094445597788706 0.4116299742318171
1.546495790435708 13.051982573535065 295.435849130492 62.89068732588051 0.41881703480648896
1.572211142994873 13.042111558812438 265.5970773535856 65.82649300817238 0.4262286510670959
1.597634606004236 13.030792242311064 239.03725817108003 68.91005091576778 0.4338770847699332
1.6227151218309015 13.017951499540551 215.3449029113705 72.15016885037417 0.4417755716921218
1.6474732362935267 13.003651326680828 194.19275038985944 75.55633112520725 0.44993840273578545
1.6718230879141944 12.987725717120961 175.32356972813108 79.13855732897488 0.45838016123509295
1.6957605957578925 12.970187048076337 158.44541575398284 82.90685568573156 0.46711336709976786
1.7192252433260136 12.950955962632953 143.35995331546786 86.87403995116452 0.4761599199225732
1.7422283795055156 12.93006246832517 129.84741622712474 91.0517860919046 0.4855345746328128
1.7647094441942341 12.90742484936395 117.74126186211024 95.45396122934156 0.4952583896005103
1.7866377092324912 12.883001440994123 106.87808853164738 100.09444303823854 0.5053497382312463
1.8079781100988401 12.856758257362262 97.14087874659027 104.98963569134497 0.5158338723355239
1.8286900699069 12.828639773172249 88.37755392525335 110.15604915294816 0.5267332446394727
1.8487716518743198 12.798686044978885 80.50891487168198 115.61122866017948 0.5380709503407519
1.868160488333362 12.766796059777542 73.42180982159401 121.37555781022304 0.5498770036560205
1.8868340503980459 12.732960922603695 67.04454252088296 127.47033844507683 0.5621807949881498
1.9047598713271439 12.697161271424665 61.28961487151106 133.91812605319396 0.5750120695098264
1.9219058707617462 12.659364616281769 56.104746908491755 140.74430765776202 0.5884061206750866
1.9382238434652126 12.619492820856701 51.41991582057739 147.97667650236343 0.6024016813101112
1.9537257309306306 12.577673398845588 47.19056811286222 155.64387095643932 0.6170350471427072
1.9683452595624187 12.533758337000922 43.361794108001156 163.77934993048478 0.6323532269443496
1.9820687537425998 12.487781990557602 39.89881522025387 172.41668751769413 0.6483971797484434
1.9948626178720548 12.4397218967448 36.763967440653445 181.59546871824952 0.6652211432007631
2.0066984881530594 12.389568149815727 33.921946441329176 191.3574925751411 0.6828789294019104
2.017558425288238 12.337328852426348 31.343644392936852 201.74874779391374 0.7014297123391195
2.0274019011662334 12.282963483938543 29.006696343490983 212.81931913502638 0.7209367107715561
2.036219362913045 12.22651952440909 26.88369208666323 224.62426920756255 0.7414689752950101
2.043971751844119 12.167947143639728 24.954296499225787 237.22507555413677 0.7631047921405062
2.050639809245114 12.107264969057253 23.19956898084928 250.68823561806738 0.7859256938117128
2.056214462706479 12.04451918954122 21.603365259872653 265.08692586905477 0.8100202470430402
2.0606780288435784 11.979713823349355 20.151624178060835 280.5030301431221 0.8354887903083812
2.0639972089191905 11.912855774261612 18.830746629815188 297.02571612917194 0.8624366604878754
2.0661619635568385 11.843964225224065 17.62684292219471 314.7554592337002 0.8909848893761125
2.0671650746937025 11.773097737916254 16.531274522850055 333.80175227024404 0.9212598869532481
