M[M_sun], R[km], Lambda[1], P_c[MeV/fm^3], rho_c[fm^-3]
0.24162668629717493 15.618656898711224 2160425.4255784233 3.5677272577965504 0.1711233750220791
0.25364497490357113 15.277293682849852 1723117.909566381 3.7848450444711226 0.17388849013135815
0.266042442187642 14.981227153640058 1382863.7345172015 4.011454963337166 0.17666730738251837
0.278823574857047 14.723288769356705 1116216.0947030447 4.247812316043075 0.1794584896684608
0.29197524609625713 14.498320444890089 905802.0001669255 4.494542630036792 0.18226860946893148
0.30551185924096047 14.301162721955206 738566.4412334012 4.751802707442458 0.18509339648067163
0.31943046842953926 14.128040864798798 605036.3576826776 5.020272930889286 0.18793942761167198
0.33372989070067405 13.975851781453926 497603.95849146723 5.300179930477219 0.1908033761502786
0.3484136069489122 13.841921010255223 410942.2818274909 5.592249435551174 0.19369148011418397
0.3634790210041826 13.723859381284319 340610.9795183298 5.896652398031125 0.19659887017854782
0.37893340655541463 13.619909019936507 283248.68460927566 6.214251442577943 0.19953319622442892
0.39476772180549663 13.528357352111403 236358.88182047117 6.5453007062009805 0.2024905780187932
0.4109953782074974 13.447778535603607 197828.36565937888 6.890509223950046 0.20547483855900073
0.42760598549151946 13.376956690718442 166044.51712624653 7.2505793165411285 0.20848899923779873
0.4446033179062608 13.31485605056181 139768.9726050208 7.625765381283439 0.2115285330133103
0.46198505799134193 13.260480930908866 117948.08979199681 8.017025649041845 0.21459974365881804
0.4797533555677778 13.213098115026598 99779.2627789241 8.42506115287791 0.21770421128903128
0.49791437534815847 13.17195270802113 84620.4412125631 8.850306701058887 0.2208393153225203
0.5164559637303312 13.136327908029651 71920.15194385922 9.293647811216555 0.22400863509442984
0.5353754205840238 13.105792508123022 61254.947348592425 9.755963964081314 0.22721500824331223
0.5546861921523105 13.079748295553717 52287.91970220261 10.23806153195631 0.23045974035173103
0.574371028166993 13.057815404064508 44715.24504093616 10.740413506066876 0.23373955114616124
0.5944319999623904 13.039492499221497 38314.538171086606 11.264271838657997 0.23706071506809898
0.614870332882469 13.024474452812763 32890.683262061815 11.810569714421865 0.2404247857279709
0.6356786778790449 13.01240160888609 28281.45513727114 12.380286603170745 0.24383339690997108
0.6568515547043533 13.002993274863215 24361.131738540367 12.974099556943006 0.2472843624286548
0.6783870111571042 12.995962207001604 21019.593487323582 13.593359566853644 0.25078273638749793
0.700278040137637 12.99104611377048 18165.13517728455 14.2392534716691 0.2543310264990709
0.7225160186941866 12.988001706878164 15722.512326707118 14.91297156557312 0.2579312185429397
0.7451063106941659 12.986652990173535 13628.046143180753 15.615526666845222 0.2615830374386352
0.7680301928093051 12.986763901706723 11831.282873054202 16.34821916547101 0.2652887171572256
0.7912784893435744 12.988145373297366 10285.211437933738 17.11264964302309 0.2690527848814216
0.814855612569308 12.990679578230122 8952.294414791862 17.910273943813877 0.27287767476275804
0.838742541188589 12.994143747781274 7804.119189477233 18.742432725799638 0.2767642437159293
0.8629256922012436 12.998424520545514 6810.703033771063 19.61052055138918 0.280713416997969
0.8874113893862469 13.003370883843607 5952.458198066264 20.516600408023347 0.2847313401505483
0.9121706009787011 13.008862952086496 5208.644191468034 21.46246747829144 0.2888210286169077
0.9371948627885222 13.01476206190595 4562.949593996357 22.449574380076474 0.2929821468921671
0.9624806209193427 13.020973610551136 4002.459262412586 23.480010776403258 0.297219005669617
0.9880055690374498 13.027353755406082 3514.661831836988 24.55616974319044 0.30153745820837685
1.0137505117151044 13.033811992431342 3090.535375042722 25.679956081392213 0.3059388531613537
1.0397177926106904 13.040271056413106 2719.9728563384815 26.853407772799308 0.3104250139440821
1.0658725587640403 13.046600134790761 2396.864173743172 28.07958672335014 0.315004403704945
1.0922088406458408 13.052729455231415 2114.6233800205587 29.360502820766182 0.319677152777697
1.1187098125379067 13.058562240551815 1867.3054161482444 30.699004368741747 0.3244485751345198
1.14534356989244 13.064017078316345 1650.9738804394171 32.09839784162939 0.3293260931332178
1.1721101835703271 13.069028006251466 1461.157914141562 33.56072496372185 0.3343080537720352
1.198969853595175 13.073480523645358 1294.6615357658877 35.09048265474029 0.33940771156208516
1.225918127948584 13.07734594122762 1148.3627501358333 36.68963677332397 0.34462147252331543
1.2529176706532734 13.080512292553198 1019.5708198335345 38.363296929316746 0.3499641248552254
1.2799610746765522 13.082945945463177 906.131453118684 40.113768536366116 0.35543261509637497
1.30701550289249 13.084546363346476 806.295802476575 41.94640240441406 0.36104079382499465
1.3340475716207307 13.085240499060422 718.1332610653787 43.86481161741591 0.3667913110203343
1.3610584137684079 13.085028039647451 640.213532858553 45.873558475892814 0.37269121095909347
1.387999014641103 13.083782542777016 571.4167491475839 47.978042973031265 0.37875081191187765
1.414841436376545 13.081453325889306 510.4853174602454 50.183100034702335 0.38497615308424993
1.4415764918897174 13.07800785160469 456.5828125038256 52.493806999654026 0.3913734559146878
1.468171904319147 13.073403990761475 408.7482601398861 54.91665597771706 0.39795479366359116
1.4945838985457478 13.067529116713924 366.2968810128548 57.45784122333962 0.40472923471094563
1.5207961072969203 13.060375932835786 328.6343890375246 60.12399549285975 0.41170655812835744
1.5467805590291366 13.051880453266854 295.0931460791155 62.922229522931 0.4188973122056983
1.5724987741006586 13.041991221903384 265.28523933723176 65.86017528937445 0.4263128777576045
1.5979119455429427 13.030648146085388 238.75200680119463 68.94603343032507 0.4339655367693067
1.6230205675391811 13.017832237451152 215.08029858226047 72.18862526526713 0.4418685470097985
1.6477627979641993 13.003471934375186 193.95576795125248 75.59744989566737 0.45003622331626447
1.672110834764492 12.987526333504874 175.11890831259234 79.18232838013928 0.4584822785966861
1.6960480158504734 12.969964424208097 158.2500530132324 82.95370609962752 0.46722102921445025
1.7195273439490175 12.950740111475653 143.18008377497068 86.92421091631212 0.476273532474048
1.7425083225435223 12.92979066959514 129.6873136258942 91.10529849102936 0.4856536200236593
1.7649901391149498 12.907125848405766 117.59169273827247 95.51133060027676 0.4953842708103002
1.7869003564189458 12.882645734929985 106.74869427639065 100.1557193351715 0.5054819698216307
1.8082517217227496 12.856406074079693 97.0180556747055 105.05513668202673 0.515972963826532
1.828955676420193 12.828253751058726 88.27244336188183 110.22613889117403 0.5268798120917356
1.849036243689725 12.79827066488474 80.41157432694187 115.68653694541983 0.538226511271167
1.8684080618768568 12.766318726729954 73.33136968817918 121.45623911235886 0.5500412412207704
1.8870828121770422 12.732484283294935 66.95758053458175 127.55668790323952 0.5623538505587873
1.9050047696120274 12.696648470052095 61.21384287535356 134.01063708083825 0.5751947150028154
1.9221426194047213 12.65881400988242 56.03479191298985 140.84367165144047 0.5885997195209893
1.9384515372290934 12.618908698170547 51.355134971837145 148.08348854072037 0.602607139580121
1.9539427668487723 12.577045705643412 47.130264512542645 155.7584327978256 0.6172521532999362
1.968552721532816 12.533096501113764 43.309770550557644 163.90235585987142 0.6325830030426943
1.9822643378749008 12.487077716557202 39.84691035454027 172.54927019794263 0.6486419791712319
1.9950466113545062 12.438976565565124 36.7201205530222 181.7381087994178 0.6654809640864279
2.0068778278126134 12.388798717801032 33.878762353335844 191.51111640471387 0.6831551008027742
2.017718525275773 12.336504771456182 31.306623681845345 201.9143772451538 0.7017236882770725
2.0275488150388807 12.282104154801932 28.97116370356137 212.99766496774822 0.7212487161358108
2.036350869861491 12.225613038563404 26.851681562472347 224.81698229404594 0.7418020844528445
2.0440869208800865 12.166997341605619 24.925769595571758 237.43309480255888 0.7634594840680397
2.050739492647877 12.106266848404115 23.17168707755379 250.91317651246385 0.7863043607159733
2.0563030071840367 12.04349801743561 21.57975726781308 265.3305809789272 0.810425523531467
2.0607412596135837 11.9786257903082 20.129297247206683 280.7666641185488 0.8359212113883513
2.0640378917141557 11.911706012741863 18.809779786255593 297.311740377996 0.8629000710211141
2.0661863550703674 11.842779618981115 17.60871972980104 315.0661707147084 0.8914822773449618
2.0671730173877694 11.771871689336933 16.513232571253184 334.1392004291329 0.9217928593650444
