M[M_sun], R[km], Lambda[1], P_c[MeV/fm^3], rho_c[fm^-3]
0.24162668629717493 15.618656898711224 2160425.4255784233 3.5677272577965504 0.1711233750220791
0.25364482481443673 15.27725012702347 1723157.773179891 3.784835178329152 0.17388836715465808
0.26604099754943794 14.981243026707762 1382943.724766509 4.011434222555258 0.1766670567424094
0.2788173236479272 14.723492838483361 1116397.0458242863 4.2477799987405245 0.17945811483645238
0.2919728263976998 14.498381230899854 905856.4004835354 4.494497887988851 0.18226811125584358
0.3055092072957908 14.301163021545847 738574.045112117 4.751744021225165 0.18509276255752055
0.3194278136309531 14.128057881872492 605052.6767999621 5.020199868002192 0.18793866955601868
0.3337272949201241 13.975848179262957 497658.60826868383 5.300090567113091 0.19080247640948245
0.348408293913342 13.841966054205221 410968.57772746234 5.592143548383554 0.19369045562670867
0.36347171406772755 13.723925860029642 340630.41300707427 5.8965276078492765 0.1965976981227515
0.37892591652465896 13.61998496114903 283271.4221632931 6.21410623894699 0.19953187214215118
0.39476002067195204 13.528400952203231 236379.37930089305 6.545135239672197 0.2024891271008701
0.4109865525103609 13.447813200605864 197836.8491670669 6.8903202998006154 0.20547322960166522
0.4275957946652124 13.377008372123564 166067.2724282672 7.250365161576725 0.20848722758866145
0.44459148647201324 13.314885581043269 139772.9340552139 7.625526587215176 0.21152663205898284
0.4619753925235623 13.260522485498505 116649.73764393406 8.016758050204388 0.21459767356546594
0.4797412754577991 13.21311262470835 99791.55060639471 8.424762662154146 0.21770196705607095
0.49789890000164655 13.17195190610852 84625.39967618544 8.849978418873281 0.2208369384192323
0.5164398577409284 13.136367732987916 71926.40489845937 9.293284424249375 0.22400607682752635
0.53535987516566 13.105810604032728 61264.1967120339 9.755563007969263 0.2272122630855307
0.5546677600767227 13.079778533413752 52294.36866662972 10.237623964241296 0.23045684846009665
0.5743526739184142 13.057825386657322 44721.47627181753 10.739934100074338 0.23373647321118776
0.5944112167849762 13.0394989336852 38321.80521174616 11.26374695549745 0.23705743558861345
0.6148498024113717 13.024481517904452 32894.87337047083 11.809996252685574 0.24042129812381446
0.6356561939265344 13.012439180261806 28286.32690185814 12.379661267934436 0.24382969425363515
0.6568278043580328 13.003001820563385 24365.101534709203 12.973425219887746 0.24728050819457187
0.6783613986137529 12.995980567706768 21023.311455290932 13.592626650838342 0.2507786557074847
0.700250828874378 12.991061438682323 18167.95200990783 14.23845804607732 0.25432671127641476
0.7224868169695383 12.9880071156548 15725.41093099649 14.912109447203871 0.2579266601981435
0.7450770633928828 12.986639086148742 13630.643888514443 15.614601816508006 0.26157831021718886
0.7679997982943756 12.986764036818979 11833.286178969774 16.347219056798124 0.26528373186632714
0.7912477366715864 12.988145920594638 10286.272011214562 17.11156925557795 0.26904753132312575
0.8148228426878777 12.990672727135388 8954.023315499053 17.909107924265445 0.2728721420833751
0.8387073462822712 12.994140258607807 7805.625829962188 18.741186246328454 0.27675851678770497
0.8628888309280576 12.99842213287714 6812.291302788737 19.609177402024603 0.2807073911338501
0.8873717943508933 13.003370894155287 5953.5359607724595 20.51515412277523 0.28472500230434095
0.9121258525382082 13.008870520271213 5209.4086755653625 21.460911148333302 0.2888143648627199
0.9371534973348689 13.014744094931848 4563.942577156053 22.447914489196855 0.29297525265045177
0.9624380001474492 13.020959147620093 4003.3169001378196 23.478226490443202 0.2972117591541702
0.9879602016961074 13.02735320014435 3515.413355190971 24.554252661766913 0.3015298425539624
1.013704364940377 13.03380395161379 3090.8168277791156 25.677913626178363 0.3059309709333288
1.0396705707529497 13.040264774053137 2720.5676464528706 26.851214969705335 0.31041672992885017
1.065824152854023 13.046584875785943 2397.467678526298 28.077233305564615 0.31499569738921185
1.092157229852916 13.052723418003094 2114.9639802288402 29.35799713036967 0.31966813383077125
1.11865704074078 13.058552241037754 1867.7508451549934 30.69631648449214 0.3244390934486588
1.1452897041701904 13.064005760625433 1651.5642584537673 32.09553653752017 0.32931626197412567
1.172054901313402 13.06901873212642 1461.5388480588174 33.55765667025145 0.3342977133066857
1.198912636668621 13.073476777709969 1294.971200704825 35.087192886801695 0.3393968331913703
1.2258605029809482 13.077343128870503 1148.6487682781333 36.68613507911442 0.34461017659984605
1.2528574926289562 13.080504135428798 1019.8694677228831 38.35956909514107 0.3499523862627808
1.2799017858882364 13.08294090153879 906.414663398662 40.109772182415185 0.3554202517123464
1.3069464395166752 13.084522849733181 806.4948187497375 41.94214709151389 0.36102792936942035
1.3339851230493898 13.08524346647192 718.3219910120145 43.860249625937236 0.36677775042237143
1.3609951277334789 13.085032351545014 640.3933569732487 45.86869936649942 0.3726770813290376
1.3879274427331938 13.083768097001437 571.5998672658724 47.97286598650417 0.37873607653705393
1.4147778830992292 13.081460389483485 510.6258894382298 50.17754839059387 0.3849605967656542
1.4415098090946394 13.078022364786012 456.70798280113985 52.48788951280575 0.39135720871289315
1.4681051474638425 13.073417209872323 408.8691113810389 54.91034644017809 0.3979378095232818
1.4945153171339942 13.06754710676222 366.39702006785296 57.45111130398643 0.40471146401599367
1.5207276820534628 13.060397680633113 328.7277078750343 60.11681454727307 0.41168794740934983
1.54671194790818 13.051906212720038 295.1811095036827 62.914564384299716 0.41887780381847617
1.572428183557076 13.042019807552428 265.36086182893894 65.85199003831131 0.4262924095296987
1.5978422632933431 13.030680406998178 238.81949761462238 68.93728914122634 0.4339440416107999
1.6229397516111819 13.017859617616804 215.15584410148864 72.17927972655205 0.44184595248471564
1.6476919725344086 13.003514763866589 194.02114819584276 75.58745730090702 0.4500124511701373
1.6720410659751874 12.987577190240597 175.16282889411002 79.1716911793122 0.458457462128854
1.6959781959621878 12.970016841647828 158.3025504969704 82.94232048305987 0.4671948651007381
1.719458109496164 12.950800199602192 143.22323220849742 86.91201825850082 0.4762459221030072
1.7424335680629535 12.929823223916905 129.73321316274283 91.09229371744776 0.48562468918932533
1.7649215845985742 12.907197212274943 117.63576359863104 95.49738839688455 0.4953536785029149
1.786848045435769 12.882756761389906 106.78393364006735 100.14082756103053 0.5054498340190959
1.8081854636957106 12.856490935532445 97.04884299080337 105.03921809608454 0.5159391606759172
1.8288988691864705 12.828357076317278 88.299151672687 110.20910924099216 0.5268442076232245
1.8489722393636996 12.798371568203432 80.43096335418156 115.66823465545461 0.5381887050557337
1.8683472295841999 12.766425597725991 73.35835861236689 121.43663087618036 0.5500013260375278
1.8870222309377347 12.732600289143772 66.9809261649878 127.53573817469005 0.5623119213357641
1.9049451054336708 12.696773863288016 61.23121942162211 133.98815352718734 0.5751503254868271
1.9220843848006388 12.658948204385304 56.05112273546362 140.81952239571302 0.5885526675873344
1.938396766303849 12.619049802515548 51.37071439239626 148.0575289236196 0.6025572049650562
1.9538908615926902 12.577196602672286 47.146137932977155 155.73058946808192 0.6171993874029154
1.968505121215444 12.533253501191426 43.325417443086735 163.87246004038403 0.6325271574034403
1.9822161146414337 12.48724757228398 39.86348450164263 172.51704653389146 0.6485824816988239
1.9950018343218283 12.439157663434553 36.73034539964225 181.70344044845743 0.6654178152044496
2.0068358188955697 12.388989773665704 33.889661376791004 191.4737781677262 0.6830879774063366
2.017679128605143 12.33670553639418 31.315498478490987 201.87412069694594 0.7016522368749847
2.0275126245445936 12.282312271070944 28.979908579990536 212.95431732316467 0.7211728820250191
2.036318887485643 12.225832407222939 26.85945507488726 224.77014219722957 0.7417211202303928
2.0440583269143517 12.167229250783205 24.93209759365933 237.38253399759017 0.7633732732509733
2.050714826826473 12.106509511945786 23.178852362628895 250.85852959410082 0.7862124107668597
2.056283593077993 12.043751215617414 21.585731485519737 265.2714425691258 0.8103272932174863
2.0607253733735 11.978890781745967 20.134110593054306 280.70258382688365 0.8358161047954632
2.064026953548151 11.911988016915092 18.81520744516369 297.2422170559861 0.8627874307821918
2.066183711716665 11.843071013022348 17.61247137076378 314.99064589402917 0.8913613769616433
2.0671710716855594 11.772170112112835 16.51788728313412 334.0571758264114 0.9216633080571248
