M[M_sun], R[km], Lambda[1], P_c[MeV/fm^3], rho_c[fm^-3]
0.24162668629717493 15.618656898711224 2160425.4255784233 3.5677272577965504 0.1711233750220791
0.2536458096751088 15.277252533806017 1723107.3634866553 3.7848627015544904 0.17388871021838428
0.26604398021378883 14.981199892285764 1383012.1170637915 4.011492082568357 0.17666775594652107
0.2788222274058511 14.723417654739363 1116254.4240132244 4.247870153756607 0.17945916049877822
0.2919797418563084 14.498258766924312 905685.0090710775 4.494622704489643 0.18226950111654827
0.3055171825378983 14.301055440454336 738497.458291525 4.751907738170797 0.18509453101299184
0.3194385324790195 14.12792875702906 604955.37348025 5.020403692153691 0.1879407843102594
0.3337391551364071 13.97573946410432 497560.40097029915 5.300339865610459 0.19080498643168994
0.34842309409000977 13.841841131560559 410891.11743517814 5.59243894446495 0.19369331366505685
0.36348944659573823 13.723793751136126 340550.55537289125 5.896875739190319 0.19660096784597902
0.37894480605527747 13.61984891749624 283221.6864335148 6.214511319579369 0.19953556598976965
0.3947826466538953 13.52828285053674 236323.88303275136 6.545596849816186 0.20249317479822812
0.4110111551151798 13.447699077758097 197784.49588863965 6.890847352370594 0.2054777182025202
0.42762402278152906 13.376878591906932 166009.77714754254 7.250962603742162 0.2084921700745848
0.4446224153680423 13.314777123900047 139743.0649438131 7.626192768442955 0.21153193528990907
0.4620061451305185 13.260423360449666 117918.46007652984 8.017504592335118 0.21460344867240053
0.47977715698636736 13.213026145032131 99761.55958010444 8.425595388253356 0.21770822799220726
0.49793961800578024 13.17185617102496 83723.45271067503 8.85089425915508 0.220843569494181
0.5164821624107422 13.136289990325192 71899.34164255911 9.294298202556622 0.22401321389001108
0.5354054888765127 13.105740533024873 61247.129655040495 9.75668159995222 0.22721992155835125
0.5547185942580867 13.079707959572632 52273.87999969566 10.238843412618852 0.2304648997762502
0.5744046245465241 13.057760877951228 44703.73824344317 10.741271559388611 0.23374506011427845
0.594465481096479 13.039465396841086 38301.069665077026 11.265211292256208 0.23706658479118123
0.6149093805878411 13.024440586975718 32880.436647225804 11.811596120022726 0.24043102798654406
0.6357184318182675 13.012387275600139 28273.49561934402 12.381405858938752 0.24384002410642555
0.6568940940414932 13.00297756804544 24354.18314622565 12.975306522954563 0.24729126095143716
0.6784312718960539 12.995948438105687 21012.88098868448 13.594671386379535 0.2507900402471606
0.7003260551845822 12.99103057093935 18159.506548031204 14.240677180911119 0.254338750191193
0.7225651083595425 12.987989818739804 15717.977794623186 14.914514652924204 0.25793937742743606
0.7451591991231962 12.986637605337991 13623.725157981951 15.617182042704153 0.2615914986219719
0.7680853296559613 12.986760381963 11827.165178879532 16.350009252806295 0.26529764029362257
0.7913355355079665 12.98815284897268 10281.407706817987 17.114583429101216 0.2690621882282846
0.8149161969999675 12.99069285925916 8948.92409301626 17.91236101187878 0.27288757775149347
0.8388050611100267 12.994149912668158 7801.087320079027 18.744663817644568 0.2767744944285588
0.8629925546236589 12.998430678279236 6808.311751330496 19.612924684555978 0.280724202827281
0.8874796112240322 13.003384810342457 5950.146418990385 20.51918915774944 0.28474268445324
0.9122423294900962 13.008878987769961 5206.672476509985 21.46525321263624 0.2888329563246597
0.9372684621265157 13.01478335788616 4561.446108140865 22.4525454926723 0.29299448720239524
0.9625581791073068 13.020989704107421 4000.9133059580013 23.483204563495963 0.2972319765879671
0.988085055338019 13.027383296737597 3513.335606581353 24.55960124323115 0.301551089929029
1.013833742716261 13.033837680592939 3089.269341546966 25.683612008829932 0.3059529620894278
1.0398029552959218 13.0402983219538 2718.992117487273 26.857332835821506 0.31043984212539566
1.065960971358107 13.046623945952433 2396.0769403333557 28.083799302005378 0.31501998786516033
1.0922980990888214 13.052746967376974 2113.701802113428 29.364987981532654 0.3196932966025535
1.1188036132230108 13.05857894578889 1866.5331448366405 30.70381567716072 0.3244655473367328
1.1454409587189207 13.06404647458193 1650.3170169628713 32.10351959075171 0.3293436909587301
1.1722087166563864 13.069045012371841 1460.5509773849187 33.566217251060166 0.33432656334664385
1.1990695722195648 13.073498730674514 1294.1417444441936 35.096371412840114 0.33942718408867534
1.2260220586810213 13.07735844846075 1147.8158341414219 36.69590490888445 0.34464169255834703
1.2530230038293415 13.080518650791506 1019.116895224319 38.36996988874177 0.34998513736474124
1.2800696201752766 13.082955856920668 905.735670230098 40.12092219181479 0.35545474611645134
1.3071249577593451 13.084551898680404 805.8692389740303 41.95401963957741 0.3610638218808995
1.3341605659724014 13.085238724017657 717.7685409334279 43.87297786548901 0.36681558533288006
1.361173109899499 13.085025460272504 639.9046999201761 45.882256620589224 0.372716503982317
1.388114405702088 13.083778068602777 571.122870804742 47.98731018022714 0.3787771893750767
1.4149613942463046 13.081439418555194 510.25085131367547 50.19303796151894 0.38500400025037224
1.4416958278330945 13.077992397219163 456.3272545300887 52.504399864658694 0.3914025399531871
1.4682933023347504 13.073378412094941 408.5451853299748 54.92795070280111 0.39798519703220536
1.4947052589448542 13.0674989465508 366.107867631921 57.46988853200826 0.4047610462433143
1.5209191115449041 13.060338439939963 328.4586219343575 60.13685025068926 0.41173987355777947
1.5469044047704195 13.051837847477124 294.9559579057959 62.93595111200538 0.4189322347408073
1.5726230929318115 13.041939701249472 265.1466348264844 65.87482802048804 0.4263495187155374
1.5980363639359396 13.030588916265549 238.61537833878586 68.96168699719526 0.43400401627258856
1.6231463041501744 13.017764354471916 214.97039900431568 72.20535524552595 0.44190899475391654
1.64788782757811 13.003393158795106 193.8508240111298 75.61533830399046 0.4500787794157399
1.6721798329674535 12.987485639517521 175.07334672184427 79.14349789036957 0.5033826564811915
