M[M_sun], R[km], Lambda[1], P_c[MeV/fm^3], rho_c[fm^-3]
0.24162668629717493 15.618656898711224 2160425.4255784233 3.5677272577965504 0.1711233750220791
0.25364724409062495 15.27717130840994 1723055.2883485828 3.7848720907572764 0.1738888272502675
0.26604546966722215 14.981213933734578 1382951.544278406 4.011511820921989 0.17666799447287593
0.2788242576041135 14.723356097630122 1116274.5074641644 4.247900909426822 0.1794595172182049
0.29198177289675353 14.49821945871627 888514.6180261155 4.494665284928394 0.1822699752596162
0.30552153595446746 14.301010213415584 738506.8715486025 4.75196358964373 0.18509513431549368
0.31944099569727974 14.127910134348365 604931.6116882038 5.020473226496182 0.18794150575590052
0.33374273564336693 13.975738856302288 497542.0472835723 5.300424914014134 0.19080584272799414
0.3484281459394751 13.84179846966713 410864.67686623544 5.592539719705316 0.19369428869322972
0.3634953807428098 13.723738550297728 340509.34375670954 5.896994505966554 0.19660208332867515
0.37895195240022733 13.61983108067604 279274.32817010535 6.2146495157587935 0.19953682617252697
0.394789860098067 13.528227432346341 236299.28366747237 6.545754332344437 0.20249455570725242
0.411020020107175 13.447675085503397 197768.1410337242 6.891027162282685 0.20547924953918587
0.4276317762438842 13.376867598589483 165996.408490267 7.251166429096899 0.20849385626950856
0.44463303435093393 13.314750717571375 139727.6691528619 7.626420046283087 0.2115337445676557
0.4620171022653199 13.260390209937587 117910.8132901593 8.017759288041894 0.21460541894960508
0.4797879678736341 13.213015064340333 99752.02518370957 8.425879488798229 0.21771036403113944
0.4979522232825877 13.171835759398906 84591.49629021717 8.851206717339894 0.22084583182494213
0.5164961227380623 13.136266214702264 71175.15971805452 9.294644076393299 0.224015648863384
0.5354212915166997 13.105711319811945 61238.11474652385 9.75706323562702 0.22722253443819249
0.5547350444517376 13.07968332317608 52267.45639398341 10.239259214940034 0.23046764354623178
0.5744227614010992 13.057754941270174 44696.54367325657 10.741727872093112 0.2337479897831893
0.5944855926421401 13.039447908687457 38297.6510174309 11.265710895743393 0.23706970632281013
0.6149290284447589 13.024429168394025 32595.42919481149 11.812141967090017 0.24043434764743893
0.635739645068266 13.012377272440592 28268.90499602334 12.382001086659853 0.24384354849392986
0.6569170959664858 13.002989499260515 24351.024900811924 12.975948397858879 0.24729492964517705
0.6784549637102776 12.99593960881265 21012.091312946155 13.59536902622658 0.2507939245189201
0.7003506740390725 12.991029066309224 18156.242053534366 14.241434328118242 0.25434285775174426
0.7225921294730852 12.987985566121408 15715.912277924976 14.91533529044067 0.2579437164473273
0.7451874690134529 12.986652488343431 13621.590749741947 15.618062400049956 0.2615959984247595
0.7681146730314004 12.986766941962316 11824.246804264534 16.35096125605625 0.2653023857910529
0.791367884872632 12.988142182251023 10279.62827219873 17.11561185849761 0.26906718913218386
0.8149505353916005 12.9906839897869 8947.461412452389 17.913470964685345 0.2728928443981952
0.8388384880428269 12.994172824315196 7799.579086540802 18.74585036987543 0.27677994602212097
0.8630264154635192 12.998443753843135 6807.123662786032 19.614203270097565 0.28072993903424437
0.8875161915878577 13.003406619599051 5949.186937893701 20.52056593348323 0.28474871769797794
0.9122816803648449 13.008886196353535 5205.538671699905 21.466734757182152 0.2888392998693693
0.9373073767548936 13.014788281161815 4560.464929635021 22.454125632973543 0.2930010502056111
0.962598273352808 13.021004066599543 4000.0138082149806 23.484903137209017 0.2972388750005112
0.9881264955928278 13.027396449629554 3512.5238064941095 24.561426249490104 0.30155833981252467
1.0138771539180635 13.033856244895906 3088.538456472219 25.685556381309695 0.3059604657972922
1.0398482570407228 13.040310558651926 2718.389382957855 26.859420354991403 0.3104477283969209
1.0660073347971397 13.046631920516862 2395.5075675747016 28.08603974459146 0.31502827623650537
1.092331257212242 13.052768369897182 2113.444077346979 29.583871612463835 0.32049494842280046
1.1009315675784968 13.045283273434295 2016.0988165683104 31.39841395621807 1.5338966256830122
