M[M_sun], R[km], Lambda[1], P_c[MeV/fm^3], rho_c[fm^-3]
0.24162668629717493 15.618656898711224 2160425.4255784233 3.5677272577965504 0.1711233750220791
0.25364472930994514 15.277302656910154 1723232.379591639 3.7848503906904685 0.1738885567694032
0.2660428933180954 14.981214098727618 1382948.6375670163 4.011466202288127 0.17666744319860797
0.27881990249246397 14.723435034855726 1116366.5242180366 4.247829828091581 0.1794586927818334
0.29197732707710117 14.498294928624587 905797.3422328833 4.494566874851652 0.18226887944057188
0.3055135619078304 14.301125857845603 738586.1038199882 4.7518345084084705 0.18509373999179762
0.319432513910803 14.128013536529775 605052.6201026983 5.020312522406269 0.1879398383889416
0.33373273618184096 13.975881187415013 497594.60929892736 5.3002283550697324 0.19080386370557428
0.3484164771568904 13.841896951094995 410925.7144012963 5.592306814273204 0.19369203526910395
0.36348235046020333 13.723834435561761 340599.47761460074 5.896720020198059 0.19659950530025005
0.3789376752816905 13.619866697875253 283230.74076659913 6.214330126728379 0.199533913729139
0.3947725151717365 13.528321463293393 236348.27070895708 6.545390370789671 0.2024913642561051
0.4110000738188692 13.447747943173479 197808.04985648298 6.890611600237386 0.20547571043842425
0.42761094362539426 13.376965367507873 166031.43543487188 7.250695365469872 0.20848995928084543
0.4446095931387321 13.31481767657726 139763.016087402 7.625894782243713 0.21152956312815863
0.4619918599948187 13.260472716353231 117938.88198946131 8.017170659477834 0.2146008654317763
0.4797612428028992 13.213086610222753 99777.42871109914 8.425222903865674 0.21770542743033552
0.49792087248407096 13.17190619084782 84613.21766866582 8.850484596310373 0.22084060336014985
0.5164629519837358 13.13633115715493 71914.81098561244 9.293844730133793 0.22401002141588364
0.5353855412520607 13.105767855786738 61253.27627223278 9.756181242193326 0.22721649584427908
0.5546950448521789 13.079742093413042 52282.24822540234 10.238298261019455 0.23046130246445654
0.5743811904105083 13.057800041296296 44711.42576241455 10.740673297331238 0.2337412190865517
0.5944414403953625 13.03950039083558 38312.12274599676 11.264556274788445 0.23706249223018927
0.6148824756886307 13.02447686157637 32887.42348651393 11.810880476203542 0.24042667567809808
0.6356901312849612 13.01240833828302 28278.939680738637 12.380625476268886 0.24383540340273055
0.6568642978065888 13.003002033968736 24359.738851102542 12.974464985167568 0.24728645106653552
0.6784000401892211 12.995957458511688 21017.527073917314 13.593756740390788 0.2507849477433436
0.7002920146410491 12.991052850515851 18162.86008527579 14.239684520710506 0.2543333649611579
0.7225309131847821 12.987992536725459 15720.57354033682 14.913438757204789 0.25793368876120554
0.745122534213207 12.986651215720007 13626.882605543384 15.616027854620993 0.261585599178094
0.7680467267445835 12.986766043654828 11829.830534975643 16.348761137953403 0.26529141875411894
0.7912963100923819 12.98815203168123 10284.446310361973 17.113235121059606 0.2690556318628537
0.8148736460947867 12.990684254881115 8951.097977131922 17.910905828674096 0.27288067301123786
0.8387604123213984 12.994152757911648 7803.125934956892 18.74310821451523 0.27676734723707014
0.8629464108747553 12.998425746115284 6810.030493570847 19.61124842893787 0.2807166825254816
0.8874317304345729 13.003374866641742 5951.711323182603 20.517384178715538 0.28473477475524706
0.9121916877737143 13.00887482204039 5208.0483282488185 21.463310886448838 0.28882463984639767
0.9372163088780727 13.014769778423398 4562.648504345304 22.450473911865064 0.2929858830351012
0.962504356289691 13.02097968204216 4002.0182258262494 23.48097772302956 0.29722293272717426
0.9880290726604579 13.02736179254169 3514.3590078869775 24.557208657382215 0.301541585321265
1.0137759215740931 13.033818602497885 3090.065509604597 25.68106294098433 0.30594312474568885
1.0397439736485374 13.040277704132167 2719.608206608259 26.85459611280245 0.31042950327863017
1.0658995575686931 13.046604374285952 2396.748654182875 28.080862108084023 0.31500912190765545
1.0922367575108578 13.052731922566407 2114.3412859660243 29.361860729193953 0.3196820404142769
1.118737801392572 13.058566922886587 1867.0774258119245 30.700461017218462 0.3244537135564099
1.1453729630675096 13.064026059473777 1650.9347412966192 32.09994847500022 0.3293314209567487
1.1721403784193793 13.069028950684368 1461.1375967796143 33.56238777571412 0.3343136576198923
1.1989993488420292 13.07348974364329 1294.4761015599113 35.0922654959935 0.3394136069347802
1.2259506500088235 13.077349636206298 1148.2309658283682 36.69153446902975 0.34462759419590533
1.2529497134044274 13.080514544503052 1019.3953607994517 38.36531718297538 0.3499704864403217
1.2799950511178197 13.082944092311863 906.019139480121 40.115934316990455 0.35543931529808614
1.307049209203885 13.084545959912052 806.1702499057121 41.94870853028441 0.36104776559287727
1.3340822243538515 13.085235610351122 718.0044609487647 43.8672839518233 0.36679866007679024
1.3610929893819288 13.085026998616673 640.1136219361425 45.87619183716069 0.37269886841594535
1.388034012628386 13.083782043034212 571.3187740665934 47.98084861238498 0.3787587976671584
1.414879652234459 13.081452332736749 510.40874504317054 50.186108726623026 0.3849845837705764
1.4416125573293623 13.078004871140449 456.5039665696802 52.49701396662149 0.39138226104443374
1.4682084257301526 13.073398534879189 408.6831039516502 54.920075424262336 0.397963998198717
1.4946202373652804 13.067521765630172 366.23187686891936 57.461488504797714 0.4047388655434704
1.5208332508028637 13.060364433709639 328.5730286838979 60.127887218426324 0.4117166442388982
1.54681790587648 13.051867571701877 295.04056275154306 62.9263836690042 0.4189078848377239
1.572536701789255 13.041975191377848 265.2477952900863 65.86461132432738 0.42632397060908994
1.5979501434102756 13.03062957880651 238.71433121092693 68.950772451995 0.4339771862036761
1.6230588314538923 13.017811323020151 215.0451081424963 72.19369015260305 0.4418807922882615
1.647800936263068 13.00344595347227 193.9217808667131 75.60286547615908 0.45004910685391414
1.6721493690423201 12.987499720044253 175.0916926595169 79.18809332556717 0.4584957281484141
1.6960856178413903 12.969937344733664 158.22933545833266 82.95987667628388 0.4672352091816349
1.7195657858935391 12.950706823959733 143.1546516201827 86.93081890016256 0.4762884963062794
1.7425468115095109 12.929754525657014 129.6723991636562 91.11234663216821 0.4856692995433658
1.7650260001721743 12.90708822060163 117.5703296780075 95.51888682164349 0.49540085084720104
1.786938432109941 12.88260339271539 106.73448907374356 100.16379021697811 0.5054993864344242
1.8082863775369307 12.856359432501414 97.00012446242107 105.06376409056764 0.5159912841466524
1.8289907210694085 12.828198482805778 88.25783288326028 110.23536849329656 0.526899108734628
1.849072275246691 12.798216364475541 80.40060420447024 115.69645632035419 0.5382470012768683
1.8684425340815558 12.76625946304424 73.31945804583374 121.46686631269668 0.5500628743062237
1.8871188465692323 12.732417876428894 66.94945710506587 127.56804219513229 0.5623765752750488
1.9050373540029433 12.696580858940994 61.203002765184024 134.02282271607078 0.5752187732303706
1.9221736364247506 12.658741539607725 56.02619379957799 140.85676011246 0.5886252208203455
1.9384809073695861 12.618839550619713 51.34764877754633 148.09755823894818 0.6026342033446733
1.9539713786037367 12.576963907862224 47.12340684521224 155.77352349166304 0.6172807516753579
1.9685812781299052 12.533010850714541 43.30391975640695 163.9185590339984 0.6326132707066213
1.9822918667018714 12.486984962508991 39.84558674596214 172.56673510965658 0.6486742262211377
1.99507048566321 12.438881093501646 36.71317588830939 181.75689878213223 0.66551519030048
2.006900320276534 12.388695603405374 33.874803092502184 191.53135352871067 0.683191481323291
2.0177395882781846 12.336396772040484 31.30164317803405 201.93619617141817 0.7017624147189322
2.0275651853434473 12.28199019947584 28.96750835261776 213.02115935433685 0.7212898181595231
2.036367886950138 12.22549327495434 26.848135271456094 224.84236970365546 0.741845967194743
2.044102554967533 12.166871987451486 24.92212830421095 237.4604989632964 0.7635062106794862
2.0507517433772695 12.106136756665236 23.169463037854385 250.94279549974755 0.7863541981899813
2.056314375358334 12.043360384875683 21.576880774380903 265.3626345379026 0.810478765260031
2.0607495526555595 11.97848233437045 20.12611780183927 280.80139639630363 0.8359781804077361
2.0640428711067 11.911557144032832 18.806236772517646 297.34942303861203 0.8629611236833332
2.0661898279013453 11.842624633685274 17.606187314154337 315.10710649681346 0.8915478074806633
2.0671758504993383 11.77171228520843 16.511762647751652 334.18365944420367 0.9218630788279876
