M[M_sun], R[km], Lambda[1], P_c[MeV/fm^3], rho_c[fm^-3]
0.24162668629717493 15.618656898711224 2160425.4255784233 3.5677272577965504 0.1711233750220791
0.25364511573002074 15.277288636133877 1723136.2119408872 3.784853572487164 0.17388859642896407
0.2660431948502451 14.981216809864678 1382858.1522398717 4.011472891148379 0.17666752402953662
0.2788208744873779 14.723398235326338 1116352.1482311853 4.247840250401143 0.17945881366491823
0.29197752459929 14.498266640190721 905773.8476284212 4.494581304194167 0.18226904011464964
0.3055148970148851 14.301111058281785 738518.4709949055 4.751853434835993 0.1850939444333365
0.31943417506363936 14.127990279286108 604992.303714144 5.020336085434437 0.18794008286445332
0.333734801868264 13.975811194530547 497587.53112159995 5.300257175176206 0.19080415387622526
0.34841818235526717 13.841882608934798 410916.82666863134 5.592340963516107 0.19369236567242318
0.3634839370617568 13.723830546855122 340563.91694136563 5.896760265938599 0.19659988329676212
0.3789397381253071 13.619885095421271 279320.7415604882 6.214376956142715 0.19953434075701149
0.394775011489573 13.528325459591166 236344.15059054972 6.545443735357804 0.20249183219127562
0.4110029999528765 13.447756625926242 197807.07706831367 6.890672530356726 0.20547622934488888
0.4276133262872025 13.376945209195027 166024.69781647198 7.250764433075287 0.20849053065944453
0.44461210703220466 13.314807997351076 139760.85658709955 7.625971796532574 0.21153017621141798
0.461995080159583 13.26045873232954 117929.87309363818 8.017256964023218 0.21460153306720908
0.4797655050673463 13.213051911702584 99773.70968385517 8.425319171865857 0.2177061512311167
0.49792572928653117 13.171896948920159 84610.77161286089 8.850590472886799 0.22084136995180073
0.5164689503848935 13.136304896928532 71910.9023623298 9.293961929041254 0.22401084650349867
0.5353904486273361 13.105771088275915 61249.44672398511 9.756310558320875 0.2272173812109393
0.5547008621740456 13.079735169087016 52279.61045082967 10.238439153819177 0.23046223217892614
0.5743873714271894 13.05779237031655 44709.94669971944 10.74082791614803 0.23374221178725044
0.5944466892038786 13.039475999932344 38311.64711233806 11.26472556160766 0.23706354993729917
0.6148885693402025 13.02446389365037 32886.4403277849 11.811065431412272 0.2404278005143581
0.6356970572985693 13.012399321845468 28277.231686284595 12.380827162679543 0.2438365976029338
0.6568716149262479 13.002989066569375 24357.768373772396 12.97468247658306 0.24728769415827992
0.6784078485328435 12.99597171304016 21016.58185275334 13.593993125934821 0.2507862638747213
0.7003027811294198 12.991044710818317 18163.13080048617 14.23994106826018 0.2543347567441357
0.7225360244020494 12.988024734827903 15719.587937958115 14.913716816118148 0.25793515896349556
0.7451319764270075 12.986638120267555 13626.029450317948 15.61632614738267 0.2615871238528263
0.7680571213354305 12.986765395159495 11828.89556355695 16.34908370504665 0.2652930266701761
0.7913065405654528 12.98814998495765 10283.04312344978 17.113583581926225 0.2690573263100493
0.8148846700592404 12.990689339758477 8950.524845064152 17.91128191014551 0.2728824574909286
0.8387734746859182 12.994156678272319 7802.769078178625 18.743510248310724 0.27676919437434255
0.8629587400048373 12.998426077249698 6809.825144510307 19.611681643825808 0.28071862608746945
0.887443767649384 13.003379452751156 5951.38174704688 20.51785066046591 0.2847368189506063
0.9122051680633366 13.008882665833664 5207.7828296261905 21.463812863690585 0.28882678916758076
0.9372304142072814 13.014772628866787 4562.595059092893 22.45100929320048 0.29298810670436864
0.9625182347765615 13.020979009336852 4001.7088229520623 23.481553228971574 0.29722527002780424
0.9880447118109014 13.02736274685091 3514.0603740034935 24.55782699773792 0.30154404169395826
1.0137908749607292 13.033823692628458 3089.932531916002 25.681721721785102 0.30594566710767307
1.0397594601320221 13.040284118981898 2719.443753159544 26.855303390118337 0.31043217524497047
1.06591477063842 13.046613438240486 2396.534941769672 28.08162119384341 0.3150119300959552
1.0922530245975812 13.052735476541509 2114.194749176823 29.362668932483516 0.31968494944987996
1.1187546750095736 13.0585754239071 1866.9444168621471 30.701327990108908 0.32445677185945937
1.1453906761158366 13.064033723136683 1650.7051248092052 32.100871387218135 0.3293345919922263
1.1721583449313318 13.069031047301273 1460.9955773986492 33.56337745631836 0.3343169929455689
1.1990184976709455 13.07348579439579 1294.3917569340479 35.09332661778972 0.3394171157768895
1.225968986525977 13.07735381422106 1148.1379601052024 36.692663951944304 0.34463123773294746
1.2529684800164027 13.080514007580838 1019.394362791789 38.366519612221694 0.3499742727747456
1.2800148342175626 13.082951942375562 905.9432064663605 40.11722336403254 0.35544330317899153
1.307068452783155 13.084553220459236 806.1039613393494 41.950081110912706 0.36105191511206164
1.334103142896029 13.08524081292954 717.9378679159508 43.86875546028253 0.36680303416093923
1.3611131320188052 13.085028156660545 640.0647841830589 45.87775918925187 0.3727034260629178
1.388054502037245 13.083777549288449 571.2866462049426 47.98251850503563 0.37876355072069523
1.4149007513798801 13.081448829714203 510.3641897800818 50.18789947741982 0.38498960165165386
1.4416340060868222 13.078003597757892 456.4739644990722 52.49892273190313 0.3913875017987446
1.468230535918948 13.073395049412236 408.6507499523758 54.92211065887059 0.3979694766842534
1.4946424217267313 13.06751558474252 366.20349201705545 57.463659348577295 0.4047445977670783
1.520855218541806 13.060358986894878 328.55030682590314 60.13020355757014 0.41172264745064957
1.5468404947078078 13.051860331998645 295.03550731320735 62.92885620352093 0.41891417763464417
1.5725589891469853 13.041966679871003 265.2156832918125 65.86725164231419 0.4263305730492449
1.5979723599855873 13.030619548608017 238.68126557375297 68.95359311147925 0.4339841199317383
1.6230819180003708 13.017798393617742 215.0269095376659 72.19670477181315 0.44188808067381463
1.6478232488749711 13.003433456235124 193.9026173452786 75.60608883318892 0.45005677514389997
1.672171705724893 12.987485881795191 175.07339556049735 79.19152462971583 0.4585037333417363
1.6961080958952028 12.969919341220947 158.21150562960096 82.9635494191763 0.46724364913410493
1.7195883718808165 12.950687076881202 143.1440562939754 86.9347519959826 0.4762974028331918
1.7425720946985004 12.92974010495298 129.6544774434853 91.1165417177434 0.4856786320646151
1.7650488126841954 12.907068199860841 117.56647229931383 95.52338432736046 0.4954107193789883
1.7869598830217452 12.88257883109711 106.72625024815028 100.16859405948973 0.5055097529181555
1.8083088277716601 12.85633069864888 96.99367687182416 105.06889919031433 0.5160021885417281
1.8290135090761555 12.828172013026949 88.25007131310629 110.24086203303398 0.5269105942648947
1.8490921228843167 12.798185319175367 80.3877146884956 115.70236043125082 0.5382591971326287
1.8684629740823078 12.766223578677279 73.31401035377422 121.47319174028746 0.5500757505587879
1.8871383392798016 12.732382769161205 66.94099303172754 127.57480040716976 0.5623901013013688
1.9050561198381935 12.696540928409911 61.197638862813015 134.03007576837626 0.5752330930076743
1.9221922103080171 12.658697839203157 56.02071799992788 140.8645505549311 0.5886403995648347
1.9384995682723785 12.618783717653653 51.342199393711454 148.1059327461045 0.6026503121258462
1.942125892146784 12.590438253099228 49.58848738983245 159.3108181099733 3.341540084327795
