M[M_sun], R[km], Lambda[1], P_c[MeV/fm^3], rho_c[fm^-3]
0.24162668629717493 15.618656898711224 2160425.4255784233 3.5677272577965504 0.1711233750220791
0.2536444863213222 15.27728201890175 1723194.167026115 3.784828949244906 0.17388828951212795
0.26604028708220107 14.981273859977744 1383037.8309622817 4.011421127701298 0.17666689849882736
0.27881691287446325 14.723470857948383 1116383.1744489206 4.2477595950197005 0.17945787818403858
0.29197130359738116 14.498378243739458 905841.5282052095 4.494469639911474 0.18226779670694593
0.3055072197713742 14.301193333072105 738621.7637481135 4.751706969545363 0.18509236232866447
0.31942483209869516 14.128104041387584 605076.4017021339 5.0201537397040985 0.18793819095712208
0.33372245412454987 13.975956590157669 497666.64575423964 5.300034147657346 0.19080190835917993
0.3484049389274981 13.841994420751961 410986.2368871625 5.592076696818722 0.1936898088194287
0.3634683842772004 13.72394851656604 340653.75373976346 5.896448822135801 0.1965969581506577
0.378922685957056 13.619961683745336 283290.4368141962 6.214014565544942 0.19953103619110646
0.3947552571670955 13.528429329607246 236396.1035688465 6.545030773676466 0.2024882110752142
0.4109808804991377 13.447845318246136 197852.5219017356 6.890201024338388 0.2054722138017769
0.4275910848291068 13.377005428860487 166067.26984771533 7.2502299572386 0.20848610907782203
0.4445854651530714 13.314921195873012 139792.446487479 7.625375827612989 0.21152543191561132
0.4619678329958539 13.26056675092441 117973.66626071335 8.016589105517944 0.21459636664173037
0.4797330729025784 13.213162748512486 99798.15257083009 8.424574214808118 0.21770055019547338
0.4978917058611703 13.17196126188839 84636.08361288572 8.849771163637275 0.2208354378027703
0.5164300254201476 13.136391617767119 71931.90811861557 9.293055006809524 0.2240044617144473
0.5353497338471195 13.105826797656176 61269.79055267612 9.755309872612314 0.22721052998688468
0.554657604044463 13.079806037094242 52301.946237637436 10.23734546071329 0.2304549937352447
0.574340871271862 13.057822545309062 44723.93898377066 10.739631438439902 0.23373453002974184
0.5943987629832106 13.039533688259121 38321.72593650862 11.263415583765584 0.23705536517203613
0.614836945691422 13.024485932671006 32898.975929492946 11.809634213009716 0.2404190963185354
0.6356414437138889 13.012439974165806 28289.067579110873 12.379266480311795 0.2438273566868271
0.6568129761863425 13.003022156181657 24368.366140363807 12.972999497262775 0.24727807493862333
0.6783453817441941 12.995980041876223 21025.09479004799 13.592163947291972 0.2507760794981042
0.7002347033494287 12.991062925865783 18170.75400636444 14.23795588033111 0.25432398700273334
0.7224700622409589 12.988005307121828 15727.655548853501 14.911565178538401 0.25792378244454556
0.7450575631502271 12.986656780963354 13631.799169687052 15.614017945395682 0.26157532585535964
0.7679798120437801 12.986761266032525 11834.499048384667 16.346587675621244 0.26528058458951626
0.7912259306956003 12.988147123905897 10287.515296007634 17.110887195124064 0.26904421469410356
0.8148001495211626 12.99066566617073 8954.96177152558 17.90837180518883 0.27286864925099164
0.8386847265918995 12.994127580129064 7806.487258202064 18.740399333776693 0.2767549013316891
0.8628665940292324 12.998402889972654 6813.190987816725 19.60832946314714 0.28070358696687403
0.8873489733065563 13.003354266875727 5954.428686462193 20.514241075884172 0.2847210011912942
0.9121050147616135 13.008861739887058 5210.446803755963 21.45992863221206 0.2888101580132126
0.9371263265690426 13.014740309635311 4564.560212974001 22.44686659691982 0.2929709003025123
0.962410851250273 13.020955813086106 4003.9426203378152 23.47710007024401 0.29720718442704924
0.9879326154583077 13.027352014941071 3516.0463350432105 24.553042410927848 0.3015250348019119
1.0136757743632525 13.03379603359151 3091.6151704908225 25.676624229775033 0.3059259949042846
1.0396406069693038 13.040254669554649 2721.00913384117 26.849830662774654 0.3104115002665376
1.0657926327964329 13.04658170430018 2397.7739404507174 28.075747607272966 0.31499020114519993
1.0921252013418963 13.0527083406899 2115.302699353264 29.356415306745998 0.3196624402369707
1.1186243308445842 13.058545042984003 1868.2975393711656 30.694619647885624 0.324433107747577
1.145255695556824 13.06399915473551 1651.8117888751055 32.09373022655974 0.3293100556675801
1.1720202039260825 13.069013524824829 1461.7986909367596 33.55571969450211 0.33429118549869985
1.198876708940161 13.073468529286405 1295.149901417995 35.08511610282069 0.33938996582976255
1.2258237936090775 13.077338195678067 1148.8520084646689 36.68392451416904 0.3446030456595204
1.252820204300612 13.080501640810784 1019.9800771787021 38.35721577706308 0.3499449758897577
1.2798642142068488 13.082934636700319 906.5418005929658 40.107249359771984 0.35541244694190893
1.306907823289657 13.084525330706787 806.5797959700056 41.93946079946232 0.361019808301577
1.3339461631468081 13.085237019394471 718.4712130580072 43.85736974263558 0.3667691899198329
1.3609554030498299 13.085033560301573 640.5082214638495 45.86563192694732 0.37266816163150024
1.3878865067839712 13.083770357730655 571.7038075387331 47.96959788702179 0.37872677447096165
1.4147436144570782 13.08148127281912 510.72110391704507 50.17404379037472 0.3849507764896252
1.4414676160842814 13.078026036298935 456.7909164653688 52.48415397598429 0.39134695232836614
1.4680619707493774 13.073425734933423 408.93345422028256 54.90636342391632 0.39792708795983495
1.494472167561753 13.06756187709594 366.45690517819196 57.446862925341634 0.40470024595572057
1.5206846290927554 13.060410909933463 328.7703131668394 60.112281463203836 0.41167619910227354
1.5466681165644658 13.051921960249851 295.233310176468 62.90972565969613 0.41886548887966435
1.5723842254379126 13.04204034492202 265.4107763797827 65.84682300071852 0.42627948871612426
1.5978088213084813 13.030708174540324 238.8770983450638 68.93176922076361 0.43393047257574724
1.6228961796911212 13.017882978180127 215.18563006037618 72.17338027934825 0.4418316895072796
1.647647504351612 13.00354247859157 194.05943841368415 75.58114941416477 0.4499974448570637
1.6719969207005523 12.987605773218457 175.1906002577894 79.1649763990643 0.45844179662335777
1.6959339905381867 12.970052079718196 158.33189763145396 82.93513328579515 0.46717834894235627
1.7194141095875266 12.950839158364891 143.2488287345288 86.90432164060675 0.4762284930502852
1.7423946397098575 12.929886299871855 129.76341191432599 91.084084475483 0.4856064266476671
1.7648784835030287 12.90724446703285 117.65263681121914 95.48858743522872 0.4953343672278828
1.7868052787380782 12.882806544782452 106.80524055239856 100.13142721603211 0.5054295484824117
1.8081434309678128 12.856545168487948 97.06517837873501 105.02916961474614 0.5159178227047326
1.8288523541567843 12.828407469109777 88.30976132337123 110.19835944515867 0.5268217326596658
1.8489317820156494 12.798435662025021 80.44802156388117 115.65668156417244 0.53816484035581
1.8683073719607066 12.766495090081307 73.37212978145475 121.42425346685248 0.5499761301679508
1.8869854784157554 12.732672064099733 66.99528506338048 127.52251401053017 0.5622854542182047
1.9049085667031476 12.69685195409149 61.24606130416705 133.9739612157792 0.5751223054574338
1.9220484493641172 12.65903214063145 56.06255493357571 140.80427870182447 0.5885229670747557
1.938362151324738 12.619140318874564 51.38066068884869 148.0411425449167 0.602525684950348
1.9538563243210136 12.577293290565354 47.15452721286702 155.71301410727784 0.6171660803348732
1.9684724646439944 12.533357577360686 43.33110910667002 163.85358917357422 0.6324919064674117
1.982184913245797 12.487352816806204 39.871523026514325 172.4967063739026 0.6485449258173516
1.9949743538709168 12.439273914430844 36.73829564498099 181.68155724968042 0.6653779546544496
2.0068093744642868 12.389110168451463 33.89638315653436 191.45020979833546 0.6830456082660228
2.0176545773487073 12.336831746671981 31.32136980343828 201.84871036735112 0.7016071360464762
2.027490655863412 12.28244231153287 28.98544415655409 212.92695598079973 0.7211250149935287
2.036298532953141 12.225972850156406 26.864009821590397 224.74057653811286 0.7416700152847511
2.0440418821412996 12.167373474009777 24.937023478815718 237.35061996170458 0.7633188568881151
2.050694130974424 12.106664596736223 23.17784438833762 250.82403656719302 0.7861543721406397
2.056270871268845 12.043911614475778 21.589970980423654 265.2340438847174 0.8102650599684794
2.060715387086389 11.979058603283788 20.13838563406941 280.6621368928114 0.8357497624096433
2.0640202074907013 11.912159336335709 18.818486041632777 297.198334768886 0.8627163336142125
2.066178683728315 11.84325274651719 17.615028972571036 314.9429758054126 0.8912850665257529
2.0671691083115644 11.772355537605543 16.52047665882202 334.00540346838557 0.9215815377531698
