M[M_sun], R[km], Lambda[1], P_c[MeV/fm^3], rho_c[fm^-3]
0.24162668629717493 15.618656898711224 2160425.4255784233 3.5677272577965504 0.1711233750220791
0.2536416785998045 15.277366549708912 1723269.6055148302 3.7847963423336815 0.17388788308270964
0.266037860046139 14.981277227025565 1383063.7057698043 4.011352581569158 0.1766660701592736
0.2788107013968039 14.72359503159047 1116535.7559528628 4.24765279075025 0.17945663941546355
0.29196380393494376 14.498499252911959 906007.9375023358 4.49432177498925 0.18226615019671932
0.30549785371899446 14.301320353069288 738740.0429679262 4.751513023401392 0.18509026734015782
0.3194118667140259 14.128255956531598 605180.6771489902 5.019912283802077 0.1879356857589452
0.33370882541700836 13.976070287604454 497756.5249522145 5.299738825287659 0.1907989349529456
0.3483873928282445 13.842089429713845 411073.2429303542 5.5917267707589495 0.19368642318853907
0.36344822634073026 13.72409356595928 340724.85026414203 5.896036431014297 0.19659308488597327
0.3789000109487609 13.620093170902203 283340.52537618787 6.213534719047011 0.19952666056881813
0.3947292181854968 13.52858300483839 236457.39593567178 6.544483970129326 0.20248341634680117
0.41095197278273 13.447995515575107 197916.66426606313 6.889576708021129 0.20546689686203495
0.42755743884255215 13.37717929274431 166130.34811203048 7.249522269903328 0.20848025456186206
0.444551185448788 13.315007080597198 139841.55314026723 7.624586725347467 0.21151915015418668
0.4619286166722027 13.260658604810274 116697.03312928174 8.015704824892511 0.21458952601618247
0.4796909916032033 13.213235919429264 99841.9547986604 8.423587860659014 0.21769313419116992
0.49784545843149963 13.172056122415388 84671.1619777194 8.848686372897298 0.2208275834543174
0.5163803296537556 13.136478373072443 71961.3052148417 9.291854224721531 0.22399600813368778
0.5352957030599287 13.105907460670764 61296.52991970044 9.753984957956716 0.22720145891983426
0.554599983785191 13.079859943996853 52318.04885910772 10.23588777759343 0.23044528613431045
0.5742775022498519 13.057912190893678 44746.48561105005 10.73804732053084 0.23372435950206735
0.5943322268064442 13.039572897772317 38343.54052053775 11.26168120901689 0.23704452876722054
0.6147661641598208 13.024562523488951 32914.46610816752 11.807739336079566 0.24040757230526774
0.6355648022842858 13.01245780250052 28305.522369830564 12.377200216699537 0.24381512218665602
0.6567330610597397 13.003059335482005 24381.101099086063 12.970771335543873 0.2472653396799388
0.6782627380636196 12.995999583573077 21037.2562327657 13.589742248217268 0.25076259612646823
0.7001464809230965 12.99106524551381 18180.672794430542 14.235327659814537 0.2543097287781606
0.7223766538969519 12.988008803228462 15736.156794682769 14.908716618269915 0.2579087210326331
0.7449612043715454 12.986658378059241 13640.606908443255 15.610962131590247 0.2615597065621877
0.7678781277496837 12.986752491082248 11841.469212783733 16.34328322783126 0.26526411274606737
0.7911192494111532 12.988129131229647 10294.196965338268 17.107317529886608 0.26902685662084386
0.814688621282582 12.990666884620454 8960.717915399659 17.90451923961435 0.27285036910281235
0.8385673470893381 12.99412113636761 7811.1939994440945 18.736280955153426 0.27673597951282153
0.8627454739810185 12.998388408509813 6818.367975673105 19.603891724933465 0.2806836776342443
0.8872164672801099 13.003321863679005 5958.6077692553245 20.509462620535462 0.28470006125904496
0.9119733306160246 13.008823488200264 5183.260130192441 21.454786639719572 0.2887881414904139
0.9369886377576065 13.014708686271167 4567.7463379662995 22.441382486313813 0.29294812242923407
0.9622640611222729 13.020907039076189 4006.8767227896983 23.47120502326186 0.2971832428896656
0.9877846956278733 13.027311712198273 3518.5873963283357 24.54670868177618 0.30149987390275473
1.0135240163674317 13.033759137875288 3093.96770157369 25.66987633460509 0.3058999534772526
1.0394825742944207 13.040215308126962 2723.063104356181 26.842586111656416 0.3103841316569359
1.0656323510447998 13.04654865132136 2399.592957605284 28.067972490848017 0.3149614376086643
1.0919581424080977 13.052670413358195 2117.176810801676 29.348137180283302 0.31963264406450054
1.118452488280364 13.058509620076737 1869.755781401589 30.685739684762357 0.32440178310225243
1.1450790970699831 13.063965444504275 1653.1366983624102 32.084277407835835 0.32927757671350993
1.1718385636461233 13.068978804080901 1463.062576187659 33.54558314666551 0.3342570242873687
1.1986898953760101 13.073439541934162 1296.2619659754628 35.074247986992994 0.3393540279170732
1.2256332622462291 13.07731092488496 1149.7838730177089 36.67235636719937 0.34456572860810686
1.2526252367691073 13.080483102386632 1020.8405069509852 38.344842760596265 0.34990585711284117
1.2796636439591866 13.082923710409748 907.3447382871066 40.094047299144215 0.3553716041768501
1.306705669304473 13.084515669960716 807.3053506275414 41.92540337678276 0.3609773105831265
1.3337381672944182 13.08523108656766 719.0335230360745 43.842299362306086 0.3667243929556669
1.360743531611608 13.085036776426422 641.0803892296253 45.84958016453566 0.3726214852868742
1.3876725894489317 13.083783568798246 572.2120153949442 47.95249618573189 0.37867809750854126
1.4145264372333977 13.081502910694471 511.1905078335917 50.15570463906863 0.3848993881666493
1.4412470673700073 13.078059584917987 457.1826175027818 52.464606485642236 0.3912932822436986
1.4678407525711188 13.073467023655915 409.3105359288291 54.8855210470519 0.3978709840297357
1.4942466312919418 13.067611612686626 366.80521177036206 57.424632104334535 0.4046415443401564
1.5204577452168508 13.060478505502905 329.0912703107927 60.08856100269517 0.4116147232395296
1.5464394089031788 13.052001900124562 295.5102225225917 62.88440603636461 0.4188010484252863
1.5721547662479314 13.04213469617644 265.6648277979725 65.81978560346299 0.42621187837592384
1.597576993866453 13.03081859719001 239.0940675554149 68.90288551347079 0.4338594708214006
1.622665418979455 13.018017656747903 215.39947167234786 72.14251087746368 0.44175705716168273
1.6474165868745114 13.003685890651065 194.2498237421438 75.54814306519336 0.44991892353505564
1.6717655488622967 12.987766839235196 175.3592888830355 79.12984118599715 0.45835982657324503
1.6957033776932446 12.970234611530326 158.4845691661129 82.89752644154332 0.46709192852379444
1.7191668733005678 12.951002205381222 143.40404915615872 86.86404959351417 0.47613729667784466
1.742171986338925 12.930118203395152 129.8879411616529 91.04113046192147 0.4855108697782967
1.7646523115098876 12.907485648083737 117.76982931001903 95.4425377048236 0.49523332383696883
1.7865823640851268 12.88306617994218 106.90411210621546 100.0822416732416 0.5053234082149242
1.8079228954146747 12.856829251370321 97.1588857675832 104.97659323129596 0.5158061766442718
1.8286362854016438 12.828715178810182 88.3998158154584 110.1420414346747 0.5267038682349887
1.8487193119951768 12.798768567091011 80.52913730757922 115.59623371742622 0.5380399759633806
1.868109293249693 12.766885767197229 73.43875280427673 121.35949319729748 0.549844301991128
1.886784109833606 12.73305809584021 67.06012271403476 127.45311399332036 0.5621462256509108
1.9047107790801185 12.69726362059985 61.306202670022195 133.8997063913786 0.5749757033781487
1.9218589131044748 12.65947402731561 56.118355669747615 140.72452375281296 0.588367574104807
1.9381779295053758 12.619606352670678 51.43157033357828 147.9554099129737 0.6023607739673412
1.9536830564168666 12.57779574611576 47.20409890931625 155.62106161703488 0.6169918211612887
1.9683050484680689 12.533889700052944 43.37223002920138 163.75479191676408 0.6323072496276236
1.982029953588121 12.4879208330998 39.91062030018239 172.39029088570993 0.6483484412536326
1.9948251986563377 12.43986778818863 36.77387284493021 181.56707006230383 0.6651694146551883
2.006665954857585 12.389722487284512 33.93077056666729 191.32690753390563 0.682823946306469
2.017526586337373 12.337492218127819 31.35162149810321 201.71577299888983 0.7013711853306475
2.0273729754942984 12.283139811774975 29.013698458968186 212.7838131263092 0.7208745951335624
2.036193052947573 12.226700987012514 26.889602522834792 224.58590345719864 0.7414026591821471
2.0439488096787213 12.168137084259001 24.960967181744813 237.18366320517134 0.763034180281317
2.050620151828784 12.107463143203761 23.204906380839322 250.64338769740962 0.7858500903548585
2.0561986703677158 12.044726649945733 21.6089302219694 265.0383982161069 0.8099394942091377
2.0606646331762923 11.979930561133235 20.15653864697159 280.45054846841384 0.8354027081468568
2.063987828967915 11.913080209691863 18.834628693236926 296.9687781651754 0.8623444107839932
2.0661568012022165 11.844198869471347 17.631131959967654 314.6936079282565 0.8908858776013127
2.0671643366675276 11.773341415527874 16.535240906584015 333.73457981371234 0.9211537934238543
