M[M_sun], R[km], Lambda[1], P_c[MeV/fm^3], rho_c[fm^-3]
0.24162668629717493 15.618656898711224 2160425.4255784233 3.5677272577965504 0.1711233750220791
0.2536448233505455 15.277248007265513 1723165.5093333705 3.7848358005022713 0.17388837490974587
0.266041042390598 14.981246463184762 1382928.3743881895 4.0114355304965805 0.17666707254810837
0.2788171210502992 14.723486146028602 1116384.9397798378 4.247782036709236 0.17945813847381828
0.29197297960895197 14.498361758247201 905800.33969504 4.494500709472643 0.1822681426737204
0.3055093288994254 14.301167701771062 738611.6935557086 4.751747722037799 0.1850928025333601
0.31942810932949833 14.128053351863265 605045.032717734 5.0202044754150785 0.1879387173597057
0.33372417358570633 13.975960232833392 497660.6068879829 5.3000962024399625 0.19080253314787335
0.3484086132591794 13.841959015429216 410961.9330577186 5.5921502257049625 0.19369052023163016
0.3634729476005191 13.723904837401465 340623.987449104 5.896535477196027 0.19659777203332152
0.3789272579794773 13.619942169350065 283269.32275993336 6.214115395564264 0.19953195563947543
0.394761200181528 13.52838808528463 236371.78720348468 6.545145674063565 0.20248921859638622
0.4109870589175056 13.447809966854106 197834.08309160668 6.8903322134214955 0.20547333106306
0.42759589511309604 13.377011291757734 166055.34171861855 7.2503786662407705 0.20848733930928615
0.444592956382214 13.314881993084184 139778.85557827613 7.6255416456065275 0.21152675193346052
0.46197607241735245 13.260544819336115 117967.12965641684 8.016774925003695 0.21459780410568127
0.47974250103019267 13.213139856617822 99792.11998740897 8.424781484969644 0.2177021085773297
0.4979001965646625 13.171950701147544 84627.75435729398 8.849999120310246 0.22083708830648097
0.5164405876565286 13.136371297054522 71927.67985090244 9.293307339356108 0.22400623815130632
0.5353608241856934 13.10580823783089 61262.23980336255 9.755588292141367 0.2272124361943566
0.5546690162568393 13.079797475688014 52298.32568982741 10.237651782317995 0.2304570337176356
0.5743537382289718 13.057812265638422 44719.34127464363 10.739964331190128 0.23373666730431555
0.5944119152312262 13.039525536368663 38320.242019980484 11.263780054333997 0.23705764239074315
0.6148512552317063 13.024478606613037 32895.1241722072 11.810032414807367 0.24042151804985015
0.6356573532424014 13.012437262256526 28285.698768323742 12.379700701108078 0.24382992774038237
0.6568293591170771 13.003001834461646 24364.792711347807 12.97346774302775 0.2472807512394027
0.6783624603850312 12.99597609121603 21022.95915261461 13.592672867852786 0.25077891303143884
0.7002532227671849 12.991057994806805 18167.9439762164 14.238508204816181 0.2543269833900211
0.7224894310315255 12.98800247717483 15725.360704203293 14.912163811443794 0.25792694764237273
0.745078944100142 12.986639018695433 13630.540141960548 15.614660136487402 0.2615786083102383
0.7680011106472202 12.98676590860864 11833.27627411668 16.347282122388904 0.2652840462324798
0.7912494323035628 12.988145256909187 10287.46827421621 17.11163738334805 0.26904786260540176
0.8148256041163036 12.99067092177813 8953.927648725126 17.90918145177314 0.2728724909661417
0.8387095072883144 12.994136785923894 7805.6238136207385 18.741264847429168 0.2767588779190934
0.8628926190918199 12.998417156286227 6812.211646051967 19.609262098858025 0.2807077711151262
0.8873742075869093 13.003371547049413 5953.480516094382 20.515245323057187 0.28472540195811735
0.9121301324594634 13.008871798321447 5209.538616171355 21.46100928770195 0.28881478506707653
0.9371548190895147 13.01474815607925 4563.889147380853 22.448019158805412 0.29297568738841584
0.9624406662844711 13.020959061203486 4003.282473469188 23.47833900400446 0.2972122161051735
0.9879636419236545 13.027350678351597 3515.533139340656 24.55437354896682 0.30153032278141984
1.0137071306789325 13.033807050321574 3090.8927639707144 25.678042419033957 0.30593146796976267
1.039673293070711 13.040266868053953 2720.531828696131 26.85135324296544 0.310417252300328
1.0658257938407933 13.046587735287167 2397.4123479957884 28.07738170659933 0.314996246389169
1.0921599516919311 13.052724308901423 2114.911008662886 29.358155133162708 0.31966870254381197
1.1186620504212288 13.058550892146844 1867.7490553182176 30.696485975724254 0.3244396913399628
1.145293704984454 13.06400529666631 1651.5250859354474 32.09571696394325 0.32931688190154407
1.1720581792087905 13.069021159308777 1461.4747455177899 33.55785014857739 0.33429836534859253
1.1989159802108391 13.073474590085192 1294.9688794078309 35.08740033037508 0.33939751915102945
1.2258640175012068 13.077344142904732 1148.6287521868026 36.686355885873965 0.3446108888882722
1.2528619411595145 13.080499968333113 1019.792281067011 38.359804161320454 0.3499531264636447
1.2799059240232276 13.082944573637095 906.3716521104193 40.1100241802325 0.35542103130940617
1.3069510669699396 13.08452764424405 806.488448968291 41.94241541811629 0.3610287405613907
1.3339899431577735 13.085241519952394 718.316405752739 43.8605372902256 0.36677860550940544
1.360998571620539 13.085030392229944 640.3245205914873 45.86900576563462 0.37267797229610156
1.3879319480225791 13.083766621129344 571.5963138295565 47.973192429428536 0.37873700569899477
1.4147823453102744 13.081463622332214 510.6390654579282 50.17789845750083 0.3849615776917057
1.4415140225163088 13.07802093143839 456.71626012765176 52.48826264788768 0.3913582332020265
1.4681095327663833 13.073419218379426 408.851046089494 54.91074429592767 0.3979388804794069
1.494519556849501 13.067545424518258 366.380815936488 57.45153566676483 0.404712584567532
1.5207320509243352 13.0603973883848 328.7182728079961 60.11726734929738 0.41168912092767534
1.5467163223260283 13.051905534447876 295.17767332755795 62.91504771682535 0.41887903393818054
1.5724325538784811 13.04201803827897 265.3575150159218 65.8525061661455 0.4262937001708846
1.5978466269587996 13.030678399246476 238.81818254585616 68.93784051871938 0.4339453970036141
1.622944066720877 13.01785657443753 215.15367261430464 72.17986901523588 0.44184737719637257
1.6476969295179593 13.00351206891273 194.01634424250318 75.58808738896866 0.45001395013470386
1.6720454901974393 12.987573967205792 175.15928849526998 79.17236191229752 0.4584590269412351
1.6959821695876567 12.970013229419362 158.3007443669275 82.9430384063392 0.46719651488634306
1.7194624164579646 12.95079648745148 143.22061331756348 86.91278706849955 0.47624766307939265
1.7424444233942233 12.929852419936202 129.72599934333783 91.09311373414927 0.4856265134246489
1.7649262859417068 12.907192652721628 117.63043031326077 95.49826752147582 0.49535560749856716
1.7868521860951934 12.882754255383496 106.78168921079593 100.14176655904168 0.5054518603360667
1.8081895506610286 12.85648593667332 97.04594602720529 105.04022183765102 0.5159412921232375
1.8289033944633113 12.828353778197473 88.29790926506972 110.21018303830846 0.5268464526477744
1.848976625636919 12.79836436396693 80.43014649923107 115.66938869590984 0.5381910889050854
1.8683511749314745 12.766418775640922 73.35731829699202 121.43786725979665 0.5500038428614865
1.887025885940043 12.732593138061924 66.97730613703706 127.53705914273652 0.5623145651487231
1.9049484717997158 12.696766251668556 61.23023631830215 133.9895712062222 0.5751531244254273
1.922087925652814 12.658938884260426 56.049757179703064 140.82104510056348 0.5885556343954385
1.9383999118983364 12.619040759647376 51.37069226640956 148.05916577500474 0.6025603535301339
1.9538936616031577 12.57718784895816 47.145614657031665 155.7323450908498 0.6172027144838008
1.9685072637500813 12.533245817012595 43.32254937786127 163.87434507584481 0.6325306786653468
1.9822192972087276 12.487237478942234 39.862919636295594 172.51907834283156 0.6485862332118785
1.995004459381729 12.439145102967942 36.72932932564748 181.7056263977496 0.6654217969413951
2.006838217043411 12.388977647732961 33.88923154535338 191.47613245589318 0.6830922097384098
2.0176812649946667 12.336693087529724 31.31482769810878 201.87665898682235 0.7016567420891336
2.0275151763885924 12.282299209689173 28.979265423200506 212.95705050870762 0.7211776635696051
2.0363208203196965 12.225818289589428 26.85855688203223 224.77309558301397 0.7417262252280313
2.0440611159671307 12.16721360650518 24.932020029693653 237.38572197480514 0.7633787090449774
2.0507164510468465 12.106494113235023 23.1786438581103 250.8619752006844 0.7862182084103411
2.056284988870115 12.043734522241293 21.585664832515562 265.2751713630919 0.8103334868335015
2.060726625637643 11.978874452733548 20.134299763445895 280.7066242040248 0.8358227319543643
2.0640270176699307 11.911968068038316 18.81440105783933 297.24660061209016 0.8627945329285308
2.066183780286793 11.8430530374952 17.61197280640485 314.995407838543 0.8913689998982075
2.0671706633270768 11.772149735453583 16.51724811319721 334.06234757445054 0.9216714764200363
