M[M_sun], R[km], Lambda[1], P_c[MeV/fm^3], rho_c[fm^-3]
0.24162668629717493 15.618656898711224 2160425.4255784233 3.5677272577965504 0.1711233750220791
0.25364522778011883 15.277267504811684 1723114.0274735296 3.784843506152468 0.17388847095695825
0.2660422308532632 14.981227393298639 1383005.3424556404 4.01145172945085 0.17666726830291077
0.27881914151504905 14.723431933226752 1116367.385124991 4.247807277147212 0.17945843122486227
0.29197471294698685 14.498333240047549 905778.8304151488 4.494535653871285 0.18226853178770946
0.3055112617065351 14.30116898872607 738611.2196023179 4.751793557092987 0.18509329763943363
0.31942980060715714 14.128047859433552 605033.1364608235 5.020261538914771 0.1879393094155395
0.3337294123400073 13.9758494537418 497649.14189470327 5.300165996910027 0.19080323586237694
0.3484127163539825 13.841891494668324 410942.1682783968 5.592232925564368 0.19369132037551987
0.36347792783717175 13.723874820500509 340617.92118694127 5.896632940648077 0.19659868743068862
0.3789321314511564 13.619929948172615 283246.64530737535 6.214228802282002 0.19953298977219064
0.3947665322179151 13.528381597418058 236364.01597585992 6.545274906460452 0.2024903517899225
0.41099394530226313 13.447804220154982 197828.04789205253 6.890479766628363 0.205474587688088
0.42760405528739354 13.376991600665702 166045.46999612075 7.25054592514909 0.20848872299936988
0.4446016913712825 13.314838798011913 139763.0466770355 7.625728148076291 0.21152823661304052
0.46198268193655423 13.260490046965772 117942.0286513561 8.016983924486125 0.21459942088564668
0.4797518650641646 13.213089386305505 99792.78895758679 8.425014611533806 0.21770386136318723
0.4979121507761915 13.171914367824584 84620.46998820046 8.850255514502697 0.22083894470998314
0.5164532064493262 13.136334545037938 71920.92145553144 9.293591150962344 0.22400823620270782
0.5353736399557073 13.1057961214112 61258.42939259575 9.755901445864296 0.22721458021050572
0.5546836647113499 13.079770265709513 52289.410559513315 10.237993417111083 0.23045929087981104
0.57436770717003 13.057807856044759 44715.132609279004 10.740338755538243 0.2337390712246126
0.5944277969065506 13.03948812857672 37982.119261338805 11.264189997075686 0.23706020372041167
0.6148677443104803 13.024470558835844 32890.2889024803 11.81048029818469 0.24042424192806117
0.6356744897035198 13.012407147472095 28282.44947770809 12.380189098501877 0.24383281957759156
0.6568478373611619 13.003003676769248 24361.66029613082 12.97399441160716 0.247283761461032
0.678381357360025 12.995966546815644 21019.606094688814 13.593245287503226 0.2507821001106921
0.7002736508871616 12.991047854463506 18165.281538354335 14.23912944540119 0.2543303536505144
0.7225115414331394 12.98798894013723 15724.036445595448 14.912837140098148 0.25793050778478144
0.7451017371391191 12.986652805788916 13628.572997269828 15.615382459756963 0.2615823003476564
0.7680253696575978 12.986752010007612 11831.518256392823 16.348063223540116 0.26528793982581167
0.7912739076344197 12.988144905873433 10285.81957103507 17.112481183405833 0.2690519657193481
0.81485018571714 12.99067915498454 8952.308310321945 17.91009213175645 0.2728768120775457
0.8387371018116665 12.994142301564201 7804.476380115496 18.742238367788907 0.2767633507414335
0.8629191660952946 12.998417902430209 6810.85168391279 19.61031111979532 0.28071247741048894
0.8874059508639169 13.003373813019902 5952.839532915301 20.516374894589234 0.2847303519157136
0.9121641388260698 13.008869117976868 5208.886198879372 21.462224805705688 0.28881998956317034
0.9371874778685092 13.01476250048921 4563.030553604566 22.449315559352137 0.2929810718982284
0.9624741840094304 13.02096705226777 4002.5261748515554 23.479732558833902 0.29721787574540137
0.9879983099606817 13.027351393612879 3514.8460980275554 24.555870818876194 0.30153627072398237
1.0137445504135976 13.03380681341329 3090.647482392466 25.679637607598234 0.3059376241096482
1.0397109983062263 13.04026894174212 2720.092520719694 26.853065855250097 0.31042372224115017
1.0658654714063716 13.04660119885008 2396.9897634006015 28.07921976109947 0.31500304615201236
1.0922000587774143 13.052736476013687 2114.6734284702993 29.360112114608032 0.3196757464754224
1.1187014732600384 13.058560192620789 1867.4073116443224 30.698585252950508 0.3244470966764082
1.1453349653702214 13.064020932171225 1651.1901028710968 32.097951684354385 0.3293245601807656
1.1721015854698886 13.069024680763926 1461.2842310579224 33.5602465303304 0.3343064414021775
1.1989601112800248 13.073488635938222 1294.7044541395628 35.08996968649062 0.3394060153151495
1.225909389835258 13.077346212420588 1148.4275893416125 36.68909075909907 0.3446197111659471
1.2529082535055829 13.080509052017375 1019.5993835086513 38.3627156527037 0.3499622944708959
1.2799524346396747 13.082948841666164 906.1719834751914 40.11314538884986 0.3554306872861398
1.3070056636432938 13.084552372307737 806.2968672031457 41.945738876857426 0.36103878788066696
1.3340389930065724 13.085240937673674 718.1515240881472 43.86410026860456 0.36678919652378444
1.3610483773130448 13.085032771594717 640.2287131107488 45.87280079667138 0.37268900773084046
1.3879889890875285 13.083779627147694 571.4463385083276 47.977235726278884 0.3787485142270355
1.4148341267601436 13.081454494339006 510.529807260312 50.18223436623797 0.38497372738581415
1.4415662203498045 13.078009220830904 456.60032961796713 52.492884284032186 0.3913709224833019
1.4681620184516868 13.07340533529389 408.758680880175 54.91567212813468 0.3979521453174569
1.4945728167397136 13.067533086530446 366.3102583187486 57.45679182190221 0.4047264637129815
1.5207853935491253 13.060378839506356 328.64679460593123 60.122875760932175 0.4117036561405877
1.5467696814236993 13.051884821749544 295.1079585563118 62.92103428852944 0.418894270239121
1.5724877297568938 13.041995166634504 265.2934078220217 65.85889895126988 0.426309686117054
1.5979009482468778 13.030653215006478 238.76253937376583 68.94466991848809 0.4339621849927665
1.6230098640924508 13.017838249071291 215.08894967100952 72.18716799724035 0.4418650238015611
1.647751947582139 13.003477294417554 193.96343532964227 75.59589172839675 0.4500325164732536
1.6721000459218385 12.987533506423034 175.12697246183168 79.18066969572324 0.4584784089049201
1.6960361893826197 12.969972513234984 158.2592250019198 82.95193070990295 0.46721694937403396
1.7195165133652885 12.950749478094664 143.18679636015298 86.9223096791521 0.47626922710730707
1.7424979228611701 12.92980141163934 129.69164918469173 91.10327061516637 0.48564910874629846
1.7649793712013675 12.907136482379899 117.5959168281627 95.5091565439852 0.49537950044535334
1.7868899816078758 12.882659980295953 106.74898895203867 100.15339720523843 0.505476958765978
1.8082417278078102 12.856418360486167 97.02234554014605 105.05265443333221 0.5159676927662262
1.8289456091338223 12.828263860721494 88.27355142942888 110.22348338519186 0.5268742601351121
1.8490256116455306 12.798287073433144 80.41387223654601 115.68368298545435 0.5382206159747043
1.8683977332006474 12.766335677435636 73.33609868387332 121.45318150457231 0.5500350170518051
1.887073651867028 12.732501595195586 66.95973043489715 127.55342110459269 0.5623473123199404
1.904994262304448 12.69666953074901 61.21605323602458 134.00713109806313 0.5751877931042193
1.9221333992235177 12.65883483929433 56.03726918022352 140.83990591901903 0.5885923824421967
1.9384430694613124 12.618928272199163 51.35754435728858 148.07944049972687 0.6025993529718674
1.953935187447345 12.577068385721 47.13245153354636 155.75409100964913 0.6172439251767227
1.9685450585016002 12.533119387983222 43.31188010165128 163.89769400446838 0.6325742946580587
1.9822568543590706 12.487105123699545 39.85316397324401 172.54424533450882 0.6486327013103086
1.9950394928622002 12.4390042566896 36.72138317363326 181.73270270695625 0.6654711168140494
2.006872454697472 12.388828278571566 33.882561357830674 191.50529396404363 0.6831446337313516
2.0177138269665083 12.336535047843487 31.30927879047598 201.9080997149108 0.7017125462801185
2.02754343288195 12.28213742135979 28.972710726697215 212.990905402719 0.7212368906812041
2.036345460443955 12.225646759828425 26.853288077238506 224.80967810298003 0.741789458984699
2.0440826055297077 12.167033384013743 24.927046508800746 237.4252103894387 0.7634460404193951
2.0507351790899078 12.106305205523805 23.173487880800145 250.90465489244906 0.7862900220752924
2.0563005346903953 12.043537200897928 21.581218410090663 265.32135893317195 0.8104102054927655
2.060739540064787 11.978666952251134 20.130411487735433 280.75667140821537 0.8359048210176215
2.0640361749980873 11.911752332126257 18.81044625965495 297.3008988481414 0.8628825058001522
2.0661851846642554 11.842824767387674 17.609313908056972 315.0543932708816 0.8914634239738399
2.0671714651681925 11.771919132113158 16.51392630959845 334.12640936312783 0.9217726568980326
