M[M_sun], R[km], Lambda[1], P_c[MeV/fm^3], rho_c[fm^-3]
0.24162668629717493 15.618656898711224 2160425.4255784233 3.5677272577965504 0.1711233750220791
0.25364474973386514 15.277267988390093 1723236.0653535665 3.7848334153536816 0.17388834518001933
0.2660406106109898 14.981253905865607 1382926.3118542905 4.01143051640445 0.1766670119557641
0.27881734997160607 14.723482476767659 1116395.4685808097 4.247774224004299 0.1794580478582145
0.29197238566152706 14.498376531432097 905811.1079341145 4.494489893107625 0.1822680222309856
0.30550873242728555 14.301172114344306 738614.9609285478 4.751733534705605 0.18509264928309546
0.31942599341314426 14.12809513969411 605066.1846638214 5.020186812570752 0.18793853410087857
0.33372622721574713 13.975902987591704 497674.4318568826 5.300074599021043 0.1908023156372914
0.3484073401516577 13.841974156885572 410973.6238232445 5.592124627734611 0.19369027256422527
0.36347079002279575 13.723937632822796 340634.44798734755 5.896505309523622 0.19659748869215812
0.37892583746675174 13.619950935676833 283276.99667541124 6.214080293063831 0.19953163554693765
0.3947590680014193 13.528402312606573 236387.1943860702 6.545105673142226 0.20248886784234468
0.41098497088620034 13.44782096190269 197836.18689040781 6.89028654179051 0.20547294210428518
0.4275934848931502 13.377020846583353 166064.03737148186 7.250326895258663 0.20848691102121894
0.44458974351611147 13.314899071967282 139782.77926609662 7.625483918327683 0.21152629238720239
0.46197317118265013 13.260529604790182 117962.54153799504 8.016710234430581 0.21459730367179816
0.4797391278703302 13.213115999414438 99808.38330934293 8.424709326578126 0.21770156604710106
0.49789689868636183 13.171956953891838 84629.1652751555 8.849919760130462 0.22083651370487134
0.5164374766772987 13.136375544602364 71926.76793651123 9.293219492967387 0.22400561970725316
0.5353571557831155 13.105815145780694 61265.7378685335 9.75549136383051 0.22721177257183334
0.5546651996516373 13.07979860563077 52296.72712545125 10.237545140169633 0.23045632352252873
0.574349391308561 13.057828621075469 44722.68474679364 10.739848438549629 0.2337359232376645
0.5944082124171876 13.039498416873032 38321.584789938934 11.263653168163792 0.23705684960365553
0.6148461175839055 13.02449937601476 32895.37832092596 11.809893785406747 0.2404206749517963
0.635651705111329 13.012419023752614 28286.317612028328 12.379549531999409 0.24382903265687272
0.6568237509010639 13.003016119145826 24366.41476053955 12.97330472841123 0.247279819514702
0.6783568322855041 12.995968298242433 21023.800698066138 13.59249569262979 0.2507779265672653
0.7002463792673247 12.991060048025906 18168.422912349088 14.238315918849471 0.25432594022926713
0.7224824277616919 12.988001954900575 15725.712655867595 14.911955403541636 0.25792584571123406
0.7450718205340464 12.986639203555548 13631.085723717853 15.614436564120592 0.2615774655566006
0.7679940069017055 12.986755788073305 11833.891141696002 16.34704035756559 0.2652828410954723
0.7912403264441659 12.98814376719105 10286.1727254278 17.11137621250121 0.26904659262001346
0.8148155051280763 12.990667346687442 8954.171510112257 17.90889958086941 0.2728711535088582
0.8387020626890115 12.994133896353073 7806.078722081923 18.74096352675387 0.276757493506498
0.8628821692891001 12.998417625571514 6812.426341088106 19.6089374100217 0.2807063144410881
0.8873664654857255 13.003370700782598 5954.0259767028265 20.514895703078317 0.2847238698691605
0.9121232492326868 13.008852574490254 5209.808199911395 21.46063306655884 0.2888131741970905
0.9371474729566556 13.014742628971852 4564.02955805133 22.447617903821424 0.2929740208036523
0.9624303388919646 13.020957039359994 4003.562761773523 23.477907679048172 0.2972104643663669
0.9879519129559636 13.02734276909607 3515.6044666342445 24.553910123485753 0.30152848181198194
1.013696359330282 13.033803836912641 3091.072578349719 25.677548687048866 0.3059295625629448
1.039660798963848 13.040267311973787 2720.7184608286357 26.850823167667183 0.31041524977130164
1.065814774598018 13.046587015216815 2397.5411055195495 28.076812806295866 0.3149941417795697
1.0921493273843579 13.05271098217267 2115.0862389862305 29.357549424343507 0.31966652236397
1.1186478963273199 13.058550665529841 1867.9261563776556 30.69583622579663 0.3244373993049904
1.145280645488459 13.064005365663085 1651.643441620698 32.095025293788034 0.32931450539101753
1.1720460241973434 13.069013053313078 1461.6149773513375 33.557108443783754 0.334295865726965
1.1989025226361043 13.073473497126425 1295.0277792493666 35.08660508964517 0.3393948895055259
1.2258499867181667 13.077339522161227 1148.7122890799221 36.68550941721021 0.34460815831139346
1.2528473764393444 13.080501876855177 1019.871668644463 38.35890302901711 0.3499502888844099
1.279891111835068 13.082943763721394 906.4264912511924 40.109058140365384 0.3554180427047903
1.3069358479632656 13.084520250825312 806.5610381710467 41.94138678171912 0.3610256308377243
1.333974336998574 13.085242138691202 718.3636029472797 43.85943452271371 0.3667753275140508
1.3609846241204155 13.085029245090482 640.4226733424051 45.86783117798784 0.3726745567547804
1.3879154549224528 13.083767658132734 571.6060985750166 47.9719410038348 0.378733443737786
1.4147661222660775 13.081464730317578 510.65386489983484 50.17655646935183 0.38495781729302203
1.4414975079525933 13.078023371960644 456.7323720410123 52.48683222786461 0.3913543058045752
1.468093129697305 13.073420176410265 408.8812094284788 54.9092191092318 0.39793477495112045
1.4944990869301786 13.0675563467574 366.38494577587096 57.449908865418244 0.4047082889156883
1.5207156700556528 13.060401286695997 328.74654882577533 60.115531526191376 0.41168462222820984
1.5466995266983994 13.051910709250038 295.1960665521038 62.91319485518344 0.4188743182579929
1.5724157297383914 13.042025064825355 265.37478753629256 65.85052758388989 0.42628875248238657
1.5978294095653853 13.03068904523956 238.83357074494296 68.93572680716798 0.4339402010906792
1.6229272001260155 13.017866416841512 215.16346599459337 72.17760997148729 0.44184191555074714
1.6476793260799592 13.003521622676075 194.0290830928822 75.58567194125109 0.4500082038418258
1.6720286640061897 12.987584889703715 175.16914691114619 79.16979065268997 0.4584530282219878
1.6959655759885301 12.970026371343994 158.31246668405026 82.94028624340403 0.4671901904239336
1.719445711247258 12.95081089450246 143.23066894415143 86.90983983213155 0.476240989039087
1.7424213746271695 12.92983494817228 129.72950998995563 91.08997019768472 0.48561952021310945
1.7649091883127026 12.90721108460422 117.63879355962803 95.49489739605507 0.4953482126908816
1.786836307243228 12.882770268922119 106.79198529261384 100.1381669100138 0.5054440924496308
1.8081734809127226 12.85650595733923 97.0506750853584 105.03637399556006 0.5159331212224919
1.8288819284970064 12.828363981582035 88.29858865662953 110.20606663909507 0.5268378463520134
1.8489605819951156 12.798390107582657 80.43057405438265 115.66496468674698 0.5381819504287632
1.8683360237813573 12.766446041995142 73.36141962184254 121.43312759032872 0.5499941946313449
1.8870145743473268 12.732617890774732 66.98573055762645 127.53199522112105 0.5623044301105394
1.904934808346866 12.696795385339426 61.23509376955331 133.98413654598895 0.5751423947186799
1.9220740165080075 12.658970928269252 56.05403972977494 140.8152078272952 0.5885442611673091
1.9383856771015355 12.619076393356965 51.37261865219096 148.05289092496926 0.6025482835438974
1.9538806988520243 12.577225314804183 47.14815259270496 155.72561493491236 0.6171899601646013
1.9684956361750197 12.533284624531367 43.326871105875114 163.86711882119656 0.6325171799616095
1.9822081163806944 12.487277655714875 39.8656853831561 172.51128943811082 0.6485718518509328
1.992822101783357 12.442431844950146 37.097911993128385 182.26944290694792 1.238312436652689
