M[M_sun], R[km], Lambda[1], P_c[MeV/fm^3], rho_c[fm^-3]
0.24162668629717493 15.618656898711224 2160425.4255784233 3.5677272577965504 0.1711233750220791
0.25364437279390706 15.277266692140511 1723125.185957224 3.784826981728553 0.1738882649879858
0.26604078305559975 14.98124656402832 1382989.139123346 4.0114169915717195 0.17666684851614237
0.27881574339289833 14.723491013868204 1116312.0535971122 4.24775315032713 0.1794578034353167
0.2919713851064185 14.498377860089276 905837.3512780155 4.494460717523604 0.18226769735408624
0.3055080768458734 14.301168592516744 738584.7281493249 4.751695266484339 0.1850922359132698
0.3194237213534269 14.128111991049796 605072.7342619473 5.0201391697428415 0.18793803978815055
0.3337241564281189 13.975863028086907 497673.81203387585 5.300016327183937 0.1908017289365822
0.34840388114142423 13.842003346348015 410991.79559654195 5.592055581320024 0.19368960452117012
0.36346717206 13.723957283312442 340629.0611706059 5.896423937193899 0.19659672442601714
0.3789212687568855 13.619975211738245 283286.0918239029 6.213985609989185 0.19953077215130272
0.3947516415916283 13.528469502708571 236400.402382907 6.544997777550372 0.20248792174376393
0.41097921431372736 13.447870516625304 197857.77907667772 6.890163350616772 0.20547189295655446
0.4275871791490002 13.377047517429558 166065.47025203073 7.250187252363532 0.2084857557913349
0.44458379525439945 13.314903834824554 139793.9023843608 7.6253282095981 0.21152505284559453
0.4619653573001839 13.260549473152734 117974.03354904595 8.016535743743411 0.21459595384526323
0.4797307182573453 13.213134574825133 99804.0137132566 8.424514693128577 0.217700102675653
0.49788824745913673 13.171967095998166 84634.57228576535 8.849705701503346 0.22083496382895082
0.5164273518646356 13.136395334739602 71934.04044856247 9.292982544777436 0.22400395157722391
0.5353463432175083 13.105833228072557 61269.85866070298 9.755229919324973 0.2272099825843578
0.5546539536122223 13.07979286946923 52301.690266458645 10.237257494954696 0.23045440791760802
0.5743368868910782 13.057844639180592 44324.91517244951 10.73953584241355 0.23373391627364073
0.5943946193934703 13.039529200353307 38324.09879160457 11.263310919756458 0.2370547112294131
0.614831855855983 13.024497542503962 32897.97833688923 11.809519862654467 0.24041840087758612
0.6356368166214714 13.012425317636437 28289.69557975127 12.37914178666649 0.2438266183665006
0.6568081837137768 13.003008711995623 24368.616730934325 12.97286503294418 0.24727730639571793
0.678340631628101 12.99597270237303 21025.988626487106 13.592017802751144 0.25077526580445536
0.7002297331318601 12.991059683846961 18170.794779028416 14.237797271889209 0.25432312654419514
0.7224637431919347 12.987998276944712 15728.307006592413 14.911393272160703 0.25792287351072607
0.7450527165705578 12.98664093047771 13632.77436098503 15.613833530844596 0.26157438325050153
0.7679743836094481 12.986760770967123 11835.160212534029 16.34638825536454 0.26527959052955297
0.7912201743045907 12.988141175992494 10219.248303724085 17.11067176821393 0.26904316714598925
0.8147951173277745 12.990657413771803 8955.405083056381 17.90813930431189 0.27286754605095515
0.8386789100328507 12.994134975345652 7806.666477978601 18.740150790203586 0.2767537594025706
0.8628588492955956 12.99840305628639 6813.525558946183 19.60806164496999 0.2807023854356172
0.8873411965816813 13.003355025355564 5954.8805453988 20.51395269397147 0.2847197374570384
0.9120957990856687 13.008850836350835 5210.51882081427 21.459618309150194 0.28880882929972723
0.9371174723341874 13.014739034096355 4564.657034544473 22.44653562546075 0.29296952563549794
0.9624022651838935 13.020953188101236 4004.083866640899 23.476744296610256 0.29720573952461193
0.9879237339903741 13.0273353978641 3516.138436005666 24.55266016035698 0.3015235163018567
1.013665429433143 13.033796065809618 3091.6211258008066 25.676216981985604 0.3059244232566337
1.039631607994115 13.0402500717523 2721.1307551093787 26.84939343868065 0.31040984851264114
1.0657818680280784 13.04658173504628 2397.8529338661165 28.075278360036233 0.3149884651956269
1.0921145726732986 13.052705517054273 2115.5012318416907 29.355915699559883 0.31966064195786104
1.1186106201136106 13.058551909503162 1868.2883329010065 30.694083715452784 0.3244312172111926
1.1452455206852077 13.064005367446184 1651.8667642931052 32.09315971816208 0.3293080954569185
1.1720091882802293 13.069011622534951 1461.8952538454012 33.555107917578866 0.33428912374739167
1.1988659006257758 13.073465409590016 1295.264033036749 35.084460169627775 0.3393877968365175
1.2258122372573108 13.077332863793911 1148.909638244354 36.683226328303654 0.3446007934199955
1.2528084112226041 13.080500412685272 1020.0392960163215 38.35647250486636 0.34994263539686515
1.2798534140082454 13.082938469797249 906.5890510852443 40.106452552425715 0.35540998188617573
1.3068954109824962 13.084521475133453 803.2656023011959 41.938612363041905 0.36101724334974056
1.3339308988712084 13.085242383685108 718.4931327958525 43.85646016389735 0.36676648618142343
1.3609411431086444 13.085033719242038 640.5237128232553 45.864663111908214 0.3726653444489701
1.3878737688439822 13.083773424534971 571.7258163379487 47.96856569721711 0.3787238365255794
1.4147303353127128 13.081480374120046 510.74828261045434 50.17293690643947 0.3849476748788575
1.441454512678388 13.078028661223026 456.8160135737434 52.48297415521054 0.39134371298256204
1.4680486726791597 13.07342757938314 408.9524811481161 54.90510544170138 0.39792370169795555
1.4944583758686159 13.067561607565313 366.4764757232195 57.445521133858826 0.40469670288694387
1.52067080160647 13.060414689925588 328.79407330406593 60.110849753508106 0.4116724885677031
1.546654346119919 13.051925263367368 295.2470798967491 62.908197420047586 0.4188615993882584
1.5723703230549924 13.042043750094244 265.4230325278781 65.845191070704 0.4262754078742288
1.5977956312544508 13.030714963647345 238.8886988743375 68.93002584074229 0.4339261870095368
1.6228815544814172 13.017891965054575 215.1962618898468 72.17151703469334 0.4418271847773358
1.6476333462936943 13.003552712276592 194.06162907709606 75.57915717370201 0.4499927053642156
1.6719827307924549 12.987619096067432 175.19736762535388 79.16285565099696 0.45843684894237957
1.695920038272106 12.970063779889031 158.34209121974905 82.93286333674159 0.4671731326060423
1.7194009771841905 12.950850011398037 143.2575380537186 86.90189080425382 0.47622298840194005
1.7423831136869787 12.929911596110944 129.75882131029485 91.08149174005916 0.4856006587657007
1.764864792765441 12.907260262900609 117.65910769141608 95.48580782125556 0.495328268134168
1.786791841660513 12.882822588235683 106.80899194448529 100.12845830313606 0.5054231416971847
1.8081298231006337 12.856561905253654 97.07128020279139 105.02599600605633 0.5159110835400277
1.8288393209463236 12.8284259421663 88.31662779018916 110.19496434632467 0.5268146344111265
1.848918973274563 12.798457752950656 80.45123084989957 115.65303276856433 0.5381573032031862
1.8682950938261584 12.766516181334163 73.37561913652557 121.42034433520377 0.5499681726084509
1.8869733121636276 12.732694449707978 66.99772082081209 127.5183374568697 0.5622770951767267
1.9048964313363446 12.696880213208184 61.2481608529344 133.96947890336693 0.5751134559809864
1.9220359812368129 12.659059408138674 56.06567378790796 140.799464344283 0.5885135868754572
1.9383500576569035 12.619169068480137 51.383542441839026 148.0359673083013 0.6025157301252342
1.9538462728365238 12.57732255994412 47.15666528197708 155.7074633703547 0.6171555611327673
1.9684613672670224 12.533391230640056 43.33148858720636 163.84762929539312 0.6324807733654394
1.9821762842018253 12.487387711455701 39.87345091537993 172.49028247187906 0.64853306478464
1.994965429338251 12.439310863736555 36.74044253857019 181.67464603440175 0.6653653657799901
2.004985662575192 12.392175921040648 34.192519504904006 191.97324807679786 1.1974309791237856
