M[M_sun], R[km], Lambda[1], P_c[MeV/fm^3], rho_c[fm^-3]
0.24162668629717493 15.618656898711224 2160425.4255784233 3.5677272577965504 0.1711233750220791
0.253637554375853 15.277437967221717 1723358.199017944 3.7846953991247076 0.1738866248743064
0.26602531312406447 14.981593478454382 1383353.531846911 4.0111403844281925 0.1766635058820552
0.278792446918218 14.72397555165643 1116891.311755692 4.247322166513286 0.17945280467255487
0.29193848042546255 14.498924736842628 906291.2709612747 4.493864053819961 0.18226105336526774
0.30546608542490256 14.301748605553064 739102.5351502949 4.7509126705028 0.1850837823830623
0.3193739217642211 14.128674580435412 605438.3432394064 5.019164883143514 0.18792793118864246
0.33366183918045655 13.976569242684844 498110.57878767536 5.298824708091141 0.1907897313095714
0.3483333306966903 13.842592953363141 411355.0193779157 5.590643661199501 0.19367594380559822
0.36338518372331835 13.724550385360027 340961.53847597126 5.894760005360516 0.1965810964261125
0.3788285760949646 13.620541377964372 283599.06384294847 6.212049540266903 0.1995131175266152
0.39464859152273124 13.529001465771737 236674.09262741287 6.542791586684864 0.20246857643029129
0.41086260683661435 13.448385826149437 198108.1549859658 6.887644461596922 0.20545044104065066
0.42745832228965164 13.377530304221686 166296.3148886237 7.24733204007654 0.20846213535181285
0.4444403715471142 13.31538950127239 139992.27946082727 7.6221445716375165 0.21149970904035578
0.4618085392645238 13.261018564263914 118151.73989398582 8.012968167622883 0.21456835575970953
0.47955999660868726 13.213553594833972 99959.25042378581 8.42053537370299 0.2176701837565591
0.4977027992136057 13.172361841024674 84779.10398464621 8.845329316129646 0.22080327692895962
0.5162266415329049 13.13673678171616 72060.67620604069 9.288138293381326 0.22396984774539141
0.5351291698078939 13.106158598711886 61382.401766019815 9.74988497381349 0.22717338825814165
0.5544215341672573 13.08008918795369 52395.98816933381 10.231377033226314 0.23041524633647256
0.5740858269281373 13.058075284916171 44813.10754252445 10.7331454175458 0.2336928877664839
0.5941322201859064 13.039743062062366 38400.22563262142 11.256314462902694 0.23701099724038077
0.6145500131503872 13.024677299277984 32967.79702825071 11.801876064257543 0.2403719138299368
0.6353360921593562 13.01258552312482 28351.692035309537 12.370806760914594 0.24377726606053995
0.6564867264377796 13.003140592684115 24229.99664244683 12.963877054128213 0.24722593479450003
0.6780045644243529 12.996074777689538 21074.872256472656 13.582249287881002 0.2507208773308001
0.699875825612568 12.991121516710539 18213.437128864298 14.227195872507009 0.25426561343514525
0.7220914562626263 12.988040653660445 15765.612604210424 14.899903277518998 0.2578621215778691
0.7446598882994679 12.986667819274288 13666.088948812201 15.6015077192161 0.2615113818774906
0.7675605701450856 12.986752884594331 11863.8488828505 16.33305977765245 0.26521315141105584
0.7907884991518483 12.988107718794463 10314.447562279183 17.096273769102336 0.26897315455188114
0.8143431727033479 12.9906035926247 8979.681574901268 17.89260049762204 0.2727938155242897
0.8382058913303626 12.994062764681027 7827.265819422824 18.72354008191412 0.2766774417925918
0.8623679387783356 12.998313885078215 6832.446045397562 19.59016315076269 0.28062208618009865
0.8868226660215901 13.003243823359123 5971.417242045596 20.49468031855844 0.2846352829197495
0.9115647919957988 13.008722187181316 5225.567131453443 21.43888006373651 0.28872003413839187
0.9365644952710191 13.014615103100907 4578.241912769276 22.42441787353485 0.292877661085936
0.9618235071234548 13.020803847504485 4015.8313650565187 23.452969608324743 0.29710918345133625
0.9873282093106992 13.027193606804243 3526.7271208329294 24.527116697279457 0.30142204424910096
1.0130529238949002 13.033652154796005 3100.855049907155 25.649003586741678 0.3058194015233834
1.0389949842777135 13.040095848004773 2729.4704079767557 26.82017758988103 0.3102994762967608
1.0651292513915052 13.046429132563711 2405.394573328747 28.04392338328564 0.31487246950243764
1.0914385856166144 13.052560701524072 2122.263798231465 29.32253268072795 0.3195404835873441
1.1179184003630713 13.058398011365588 1874.3964967461452 30.658274308128433 0.32430489720646427
1.144529659542757 13.063858351119439 1657.1625842105261 32.054874135711046 0.3291760444928021
1.171275864150722 13.068883507849822 1466.787614175701 33.514232504888945 0.3341513693921952
1.1981183621856117 13.073358704714899 1299.6922125118845 35.0406355150742 0.3392428805847995
1.2250424784503064 13.077234987983433 1152.8035025969411 36.63657955074595 0.3444503181363603
1.2520215205141174 13.08042082243196 1023.5836353221298 38.30649027384501 0.3497843648425142
1.2790471063696964 13.082881497441921 909.7544788980078 40.05321905934208 0.3552452952427359
1.3060745860328398 13.084485585866373 809.5284740168755 41.88193074284398 0.3608458862246544
1.3330968671598469 13.08522650167884 721.0405300718734 43.795695316075566 0.36658586162843193
1.3600907832886717 13.085056457662109 642.8788223176202 45.79994229282146 0.37247714509872454
1.3870091874244475 13.083830343899717 573.7630199811555 47.899612636140546 0.37852757385522307
1.4138448185024943 13.08155709869581 512.6632836858058 50.09899600621242 0.38474048432796565
1.4405727980676384 13.078183345553208 458.49540178571755 52.40416272882584 0.3911273263337994
1.4671445528964309 13.073594076120923 410.5059755197531 54.82107474662893 0.39769750617941146
1.4935509157742852 13.067783192734758 367.8649333397481 57.35589419006368 0.40446003837522054
1.5197542776860946 13.060691214002988 330.0247467902376 60.01521881637589 0.41142464370132426
1.5457307247876895 13.052252750899036 296.3742666173218 62.80612120126588 0.41860180729603974
1.5714422945514896 13.04242868394553 266.47181282038093 65.73619167904467 0.42600284147732015
1.5968555543927974 13.031148283684459 239.79671644630528 68.81358541127474 0.4336399538509863
1.6219501975842432 13.018391819916287 216.03919749933715 72.04707401109442 0.4415263213275327
1.646689239762479 13.004119260739145 194.82711298197566 75.44610220394814 0.44967617074434973
1.6710537598294621 12.988263457269849 175.8970578081312 79.02085006610488 0.4581048668737085
1.6949856064987123 12.970785250859413 158.9763872881923 82.78126867955736 0.46682476852534827
1.7184737318834478 12.951650458655813 143.82599401598347 86.73955612020605 0.475855380212756
1.7414740992042284 12.930810867969974 130.28204065678733 90.90834943601523 0.4852154808705941
1.7639574178283934 12.908235452628443 118.13293586557694 95.30019128723987 0.49492098401237955
1.7858902394039515 12.883874547611402 107.23192970629356 99.9302059585274 0.5049953217384536
1.8072281108136128 12.857680455472384 97.46506236773179 104.81408057575524 0.5154610806795912
1.8279753483780719 12.829692872017096 88.67376905488206 109.96750594007746 0.5263378396508892
1.848050902620604 12.799772673278687 80.77494469420255 115.40940181863466 0.537654045731209
1.8674658930278365 12.767992762608605 73.67027991841775 121.159338401547 0.5494368601755297
1.8861546061813272 12.734251927916022 67.26514221461733 127.23851369673218 0.5617155245679841
1.9040912395028986 12.698503605360939 61.49766568368894 133.67003247641588 0.5745219637598717
1.9212582413153485 12.660803831772233 56.29038477914562 140.47804722253596 0.58788734409354
1.93761872414405 12.621090381256632 51.59290908609239 147.69046873155335 0.6018511464232335
1.9531309265404606 12.57930936566084 47.346961903792895 155.336907910391 0.6164533214430116
1.967785327630389 12.535524503547574 43.510181562813536 163.44881361243898 0.6317343254382393
1.9815401673429738 12.489659173407047 40.03145016244983 172.06146610499556 0.6477413022490013
1.994376685240186 12.4417439153436 36.88444734115498 181.21331596703058 0.6645250466655699
2.0062351027931453 12.391659973407585 34.03533667207193 190.94592948207836 0.6821390574935546
2.0171228307890923 12.339517290351042 31.448103558152546 201.30503989755175 0.7006421745912519
2.027008178361709 12.285275998655441 29.101251634108966 212.34100973378878 0.7200990897104236
2.0358673078132594 12.228956988995094 26.970498778525975 224.10805042429206 0.7405766788387007
2.0436612560810197 12.170504447318896 25.03300048841841 236.66752280172483 0.7621535573829274
2.0503727519616426 12.109944537246546 23.273683839919677 250.0848354090205 0.7849084974511803
2.056000852698241 12.047337752471355 21.67082277212889 264.43403793675424 0.8089338035917027
2.060496594259399 11.98261704008192 20.214745335270933 279.7958088634238 0.8343268991842151
2.063866945067357 11.915885991986366 18.887316835348138 296.25970191918844 0.8611955395048922
2.0660885425188247 11.847131138597357 17.6783358545554 313.9233999270311 0.8896529260796054
2.067144060161398 11.77639071328177 16.57968344621232 332.89814165198203 0.9198327061616102
