M[M_sun], R[km], Lambda[1], P_c[MeV/fm^3], rho_c[fm^-3]
0.24162668629717493 15.618656898711224 2160425.4255784233 3.5677272577965504 0.1711233750220791
0.25364201117006985 15.277366565202822 1723145.5389977412 3.7848033503934095 0.17388797043479334
0.26603797453980305 14.98128319643193 1383050.0435104563 4.0113673138165655 0.17666624818978913
0.27881145506600985 14.723607525756886 1116545.109745986 4.247675745504662 0.17945690565602265
0.2919653627755339 14.498486414679126 905945.0115268397 4.494353554501999 0.1822665040689694
0.3054994111405822 14.301299185572924 738684.0247204239 4.751554706618976 0.18509071759846135
0.319415019068144 14.128213403721379 605146.9831851057 5.019964177668644 0.18793622417784003
0.3337112040787133 13.976060425151205 497726.15477756655 5.29980229588865 0.1907995739965808
0.34839127583762314 13.842054871927203 411076.4329264568 5.591801976456621 0.1936871508243524
0.36345222898788665 13.724073589722364 340696.3636028566 5.896125061242935 0.19659391731983678
0.37890449447697405 13.620106229875116 283339.61935974716 6.213637846196036 0.19952760096424407
0.3947352172153327 13.528529771637789 236446.88925075775 6.54460148701878 0.20248444681116415
0.4109580356912853 13.447948787101478 197900.94892292595 6.889710883083655 0.2054680395531718
0.42756397035082383 13.377132186741898 166114.37041876983 7.249674362022504 0.20848151278098612
0.4445583686554911 13.314981388382641 139834.5333384976 7.624756314057484 0.21152050018936358
0.46193735630031196 13.26062614882546 118005.10980504181 8.015894867925754 0.2145909961526878
0.47970025080960793 13.213235650398376 99835.91200443903 8.423799839700976 0.21769472797722422
0.4978549498645539 13.17204613571906 84663.73555200349 8.848919506267382 0.22082927143952705
0.5163912562230284 13.136451638837416 71957.86942100814 9.292112284846155 0.2239978248930533
0.5353081502776237 13.105880971483419 61292.084942660935 9.754269694258955 0.22720340837527908
0.5546120215945085 13.079866878531835 52314.43297729218 10.236201045785638 0.23044737237826424
0.5742925302145876 13.057872842776424 44741.913008192416 10.738387759423135 0.23372654522521066
0.5943464981802881 13.039571874670894 38335.70379911328 11.26205393774061 0.23704685758303135
0.6147813278872616 13.024549960085238 32911.384600984486 11.808146556160834 0.24041004888279355
0.635579278501197 13.012473698038146 28302.912281844918 12.377644266995972 0.24381775144141105
0.6567508577086869 13.003037846191992 24378.230107530733 12.971250176931166 0.2472680765409504
0.6782807636154997 12.995984108284915 21034.505115719596 13.590262679524631 0.2507654937485558
0.7001660993028244 12.991074560208107 18042.18654959726 14.235892471020831 0.25431279290652037
0.7223974583071102 12.98799573591999 15734.780115866515 14.909328778594936 0.2579119577550271
0.7449823072006073 12.986655824141478 13638.835430406109 15.611618828870505 0.26156306316307987
0.7678994716065137 12.986760218997658 11839.771799546119 16.343993353949138 0.2652676525466592
0.7911422607761734 12.988131720934197 10292.72957071951 17.10808464817859 0.2690305868573297
0.8147138198572189 12.990660751008402 8959.50048098107 17.905347149635094 0.2728542974766624
0.8385919693752808 12.994120306848046 7809.978349234751 18.737165985049092 0.27674004576726535
0.8627718842444503 12.998387066400333 6817.404745598209 19.60484538059473 0.2806879560857572
0.8872422656715034 13.003337656081152 5957.311925111272 20.510489491033578 0.2847045611647865
0.9120000515039164 13.008836359191632 5213.178460628817 21.455891628338637 0.2887928727316904
0.9370186972621691 13.014718330914143 4567.194727237446 22.442560990501285 0.29295301726469025
0.9622945730102686 13.020919732615711 4006.3624809038492 23.47247183010092 0.297188387768644
0.9878157965237624 13.027311214770439 3518.001546008254 24.548069752857092 0.3015052807920284
1.013556263362933 13.033769815985968 3093.50946070842 25.671326401977236 0.3059055495665089
1.0395166893643766 13.040228903436066 2722.6398874561855 26.844142899741453 0.31039001292199103
1.0656655547194984 13.046549955349317 2399.389874131695 28.069643285458497 0.31496761860444566
1.091992886204456 13.052684059866593 2116.779094847261 29.349916060561284 0.3196390469412632
1.1184892232501258 13.05851783700023 1869.413960251268 30.687647884971195 0.3244085144021374
1.145116563844711 13.063976765768343 1652.7159940075962 32.08630870084394 0.3292845560362115
1.1718786097629086 13.068993408842013 1462.811453795081 33.54776135488453 0.3342643650736494
1.1987306610950357 13.073442653574618 1296.0288684129544 35.07658338887937 0.3393617504579826
1.2256737279897871 13.077321410397408 1149.6407533446734 36.67484218660718 0.34457374747671987
1.2526672075140504 13.080482357843927 1020.6648114078164 38.34750759255857 0.34991429871630847
1.2797062095735745 13.08292805913124 907.157417178088 40.09688419807314 0.3553803805943895
1.3067484600245545 13.084521659266185 807.1504189494503 41.92842406692723 0.36098644258706575
1.3337830306501037 13.085233288875767 718.8996763546406 43.84553770353527 0.3667340189805468
1.360789053412695 13.085038932683382 640.9358519504544 45.85302937263086 0.3726315151154756
1.3877186929242955 13.083781494126699 572.1094516996415 47.95617099019962 0.3786885571883091
1.414573017173326 13.081496738042551 511.090070463083 50.15964532640693 0.3849104304068439
1.4412943143215786 13.078054603215932 457.1019401899056 52.468806801304886 0.3913048147367859
1.4678876353778014 13.073458838888596 409.2338085755617 54.88999958550467 0.39788303944980297
1.4942944044960176 13.0675995781816 366.7271040112454 57.42940896601973 0.4046541578868247
1.5205064075959767 13.060464171839389 329.0156701417184 60.093657928845325 0.41162793284531735
1.5464881960527224 13.051985243598333 295.4448993373607 62.88984655726709 0.41881489498352376
1.572204064505697 13.042115187011337 265.606984490924 65.82559520167162 0.4262264059914188
1.5976262924399605 13.030795969439907 239.04985459178758 68.90909180364461 0.4338747270863204
1.6227077027445742 13.017955288573095 215.35351477143968 72.14914380472064 0.4417730934594125
1.64746597566838 13.003655001174147 194.20621733667173 75.55523512409587 0.44993579537511486
1.6718152806627933 12.987732749021768 175.32998183265448 79.13739064070717 0.45837743936471215
1.6957529028240175 12.97019356957858 158.45315700973148 82.90560692978312 0.4671104974622353
1.7192182507259355 12.950961935023438 143.37931540582883 86.87270270061407 0.47615689170801623
1.7422207068958109 12.930071600522464 129.85921706546378 91.0503597900812 0.4855314016362586
1.7647037530922127 12.907431877003726 117.74749508452774 95.45243213916784 0.49525503443523994
1.7866293765019168 12.883010772699063 106.88090152685058 100.09280982838523 0.5053462138352377
1.8079701997402386 12.85676916367648 97.13975519041172 104.98788989451575 0.5158301651322977
1.8286830778657366 12.828649046982495 88.38096251868693 110.15417414846198 0.5267293124580054
1.848764658283576 12.798696980463745 80.50919035163263 115.60922150764857 0.5380668042562381
1.8681536814341213 12.766807730439327 73.42345904195946 121.3734074733344 0.5498726263581258
1.8868273261208992 12.732974670886678 67.04621723850582 127.46803285367893 0.5621761676846108
1.9047531957095645 12.697175121660601 61.293259189121 133.91566047251558 0.5750072016880113
1.9218994695703968 12.65937983974369 56.10505136810809 140.74165946053722 0.5884009609798342
1.9382183190307511 12.619508253412015 51.42183327219003 147.97382983368638 0.6023962056012803
1.9537196413646918 12.577690806903638 47.19113097336692 155.64081777585315 0.6170292610598688
1.9683402697595538 12.533776457981014 43.36268328019783 163.77606607657683 0.6323470840884113
1.9820648181346747 12.48780082051391 39.900152802927416 172.41315414145362 0.6483906557555467
1.9948583931352768 12.439741343459053 36.766750101733365 181.5916673499722 0.665214218955737
2.006694231338558 12.389589448330609 33.92392890636926 191.35339853540103 0.6828715694975691
2.0175543277781762 12.337350684901645 31.345697344778383 201.74433385881792 0.7014218780397233
2.0273977328942125 12.28298639578041 29.007089819676086 212.8145663682158 0.7209283960903701
2.0362155264244466 12.226543895567033 26.884443731179065 224.61913363028677 0.7414600983274281
2.0439686485133755 12.167972679065548 24.954304679757005 237.2195321528141 0.7630953401320256
2.05063755967674 12.107291677096809 23.20019462383841 250.68223232206256 0.7859155736116271
2.0562123869288276 12.044547343346503 21.604517669166064 265.08042999357946 0.8100094375288469
2.060676509958497 11.979742591978736 20.152663356196225 280.49600497012864 0.8354772673895772
2.063996394238054 11.912885190190137 18.831451314543315 297.0180944210885 0.862424311955114
2.0661613576395546 11.843995823208282 17.62781668953108 314.7471798058068 0.8909716356404933
2.0671645901081845 11.773130858416526 16.531798730318915 333.7927605299791 0.9212456852177549
