M[M_sun], R[km], Lambda[1], P_c[MeV/fm^3], rho_c[fm^-3]
0.24162668629717493 15.618656898711224 2160425.4255784233 3.5677272577965504 0.1711233750220791
0.2536434410942659 15.277285455025071 1723175.4552632824 3.784810435924358 0.17388805875251845
0.26603810677166156 14.981317492275155 1383181.4372834275 4.011382208962252 0.17666642818883424
0.2788131553680123 14.72356552206047 1116510.0398569691 4.247698954134962 0.17945717484115947
0.291966411705108 14.498471015355197 905980.0595159286 4.494385685570991 0.18226686185587987
0.3055015126591407 14.30126599345579 738688.6136750116 4.751596851057342 0.18509117283882956
0.31941744937734634 14.128189728528435 605136.5739876784 5.020016645860925 0.1879367685555858
0.3337152304868943 13.975973797130907 497718.6761832653 5.299866469096487 0.19080022011430112
0.34839497977497574 13.842077496753122 411036.24112695793 5.591878014840583 0.19368788651663468
0.3634565412039722 13.724041617797083 340680.44147690805 5.896214673011132 0.19659475897252757
0.37890965984881286 13.620076016983365 279418.52349876513 6.213742115680017 0.19952855177638934
0.39473971622332443 13.528509711885226 233307.25915785256 6.544720305896449 0.20248548869220487
0.4109639909303404 13.447922140694267 197891.90500045897 6.889846545010052 0.2054691949070653
0.42757091588559476 13.377110933932975 166096.56889052954 7.249828139911077 0.20848278494604838
0.44456492554556326 13.314978328377899 139821.75789729762 7.624927782823599 0.21152186519099592
0.4619460238285964 13.26060634883319 117992.62479085303 8.01608701821028 0.21459248259048544
0.4797095370410626 13.213185597716844 99832.97622577002 8.42401416971452 0.2176963394392982
0.4978655814540571 13.172011422834595 84654.76965932484 8.849155225694076 0.2208309781488915
0.516402974813653 13.136424882223833 71949.52961220373 9.292373208115709 0.22399966180913763
0.535319373657233 13.10587126100182 61285.51664003169 9.754557590319147 0.22720537946409944
0.5546243303795725 13.07985970203152 52303.70907209466 10.236517791064916 0.2304494817782615
0.5743056037873395 13.057860955039052 44737.35089264739 10.738731977640299 0.2337287552127903
0.5943609852397296 13.039540763058907 38334.397497249796 11.262430805082715 0.23704921225700473
0.6147966200733572 13.024538691492891 32907.76286459143 11.808558298747005 0.2404125529646948
0.6355967866294554 13.01243840468429 28298.72180177791 12.378093249817379 0.24382040990201248
0.6567671864949479 13.003031068917279 24375.415675807933 12.971734338202937 0.2472708438082402
0.6782973531023968 12.996002733978173 21031.510458635476 13.590788893932922 0.2507684235693998
0.700185173106348 12.991066674693833 18039.6633950827 14.236463559739157 0.2543158910906893
0.722417298160126 12.987997680395743 15733.27166832642 14.90994774404996 0.2579152304587086
0.7450035527452905 12.986654192000957 13540.761907212394 15.612282827589281 0.2615664570840825
0.7679219581912032 12.986761026408091 11838.354950061517 16.34471137713141 0.2652712317121364
0.79116560117861 12.988129741836582 10291.40155420664 17.108860299038597 0.2690343585848045
0.8147383686711624 12.990651504213995 8958.300288399862 17.906184270259182 0.2728582695541667
0.8386186381678701 12.99412258157434 7809.18350448323 18.738060862635425 0.27674415726675244
0.8627974369535588 12.998397627743232 6816.1616680275765 19.605809649691558 0.280692282153062
0.8872701990181837 13.003338318833052 5956.790303493822 20.511527792116773 0.28470911116112413
0.9120306600877649 13.008830599807036 5212.5133548505955 21.45700891963077 0.2887976566494503
0.9370479862461418 13.014729481998678 4566.455205193673 22.44375261804425 0.29295796660709394
0.9623255036035463 13.02092499177642 4005.7165092852015 23.47375274651499 0.2971935899507989
0.9878488212687662 13.02732150365145 3517.564497610018 24.54944598657656 0.301510747915267
1.0135877720987077 13.03378401262154 3093.0321302356715 25.6727926261498 0.30591120800796967
1.0395510138476558 13.040238038923745 2722.197526967759 26.845717037382897 0.3103959597305462
1.0657004123462566 13.046558087759193 2399.000583544609 28.071332704134317 0.31497386849874304
1.0920308856090875 13.05268700216188 2116.2899298267303 29.351714773140053 0.31964552120213163
1.118527047408314 13.058528126272043 1869.1758414010246 30.689577363851416 0.3244153207639145
1.1451560007524926 13.06397958764387 1652.5344876120157 32.08836264914285 0.3292916132002608
1.1719172862246625 13.068998014127429 1462.5575198001795 33.54996386233663 0.33427178775085103
1.1987712485021433 13.073456149357563 1295.8235386453703 35.07894484942569 0.33936955916781586
1.2257151728883544 13.077321832596084 1149.4167360922675 36.67735574812016 0.3445818558370698
1.2527094223231559 13.080491495916428 1020.4771210072925 38.35020217125459 0.34992283455090706
1.2797495231855451 13.082929081561021 906.9668043458161 40.099752770427116 0.3553892549989246
1.3067923267059325 13.084516408146213 806.9839346703978 41.9314784889373 0.3609956765675451
1.333828972567985 13.085238502648863 718.754859663407 43.84881221575453 0.36674375252431546
1.360834662032152 13.085033103047898 640.7727092936346 45.85651711463096 0.37264165699543794
1.3877647794865042 13.083779297114484 571.9812485151665 47.959886857156285 0.3786991337451757
1.414620182570504 13.081496087050686 510.9822936344078 50.16363005820764 0.384921596064476
1.4413427125922662 13.078042540509092 457.02891676810015 52.47305407306625 0.3913164761537274
1.4679354869546255 13.07345111020994 409.1499786275872 54.89452820103329 0.3978952296683523
1.4943447066639826 13.067588888713495 366.6498665866013 57.43423925212554 0.4046669125033977
1.5205558010957094 13.060447579789905 328.9546591954491 60.09881187168704 0.4116412902201715
1.546537886923984 13.051967635563242 295.3839556359257 62.89534795230149 0.4188288964712666
1.5722541396533574 13.04209283153521 265.5550850858639 65.83146981872106 0.4262410961945292
1.597677451634134 13.030771761330577 238.99944290876434 68.91536756878182 0.4338901541341745
1.6227643543045558 13.017958953101392 215.30674984355144 72.1558510008784 0.4417893093156025
1.647516181054458 13.00362311064704 194.16034849623406 75.56240661254664 0.449952856176187
1.6718649339145812 12.987695698986776 175.29000898281953 79.14502466564264 0.45839524945754767
1.6958030385047247 12.97015569331984 158.4187725874532 82.91377796060092 0.4671292744672567
1.7192679370176247 12.950916518278222 143.33281642168646 86.88145279246656 0.476176706360935
1.742269628945734 12.930020378469303 129.82039013834506 91.0596925853966 0.48555216367055687
1.7647503049170752 12.907381347255871 117.72015078894229 95.46243752815383 0.49527698849276997
1.786678232918726 12.882952893992323 106.85836660376394 100.10349652252499 0.5053692752575623
1.808017766732446 12.856707402273578 97.11724965406478 104.99931330055314 0.5158544227589625
1.8287297466766437 12.828581880806567 88.36121864372379 110.16641953118477 0.5267549547958114
1.8488105505489647 12.798626437403255 80.49169132593329 115.62235509820677 0.5380939337222777
1.8681991005753515 12.766727313607197 73.40601945753026 121.38747799431975 0.5499012687825813
1.8868711951279635 12.732889573264018 67.03211338041643 127.48311928821397 0.5622064460383458
1.9047959993836339 12.697085314734286 61.27938129821938 133.93179380288788 0.5750390538915209
1.9219408827514477 12.659283322239306 56.09396223076942 140.75898775311646 0.5884347230833952
1.938257645745217 12.619405206414804 51.409822381983425 147.99245683847545 0.6024320355717433
1.953757360288517 12.577576981239213 47.17848685097598 155.6607961067572 0.617067121996791
1.9683767383006758 12.533660021926428 43.35427053614499 163.79752244220649 0.6323871733472698
1.9820967123755422 12.487674421027155 39.893167695504225 172.43627468020014 0.6484333453023947
1.9948898146813776 12.43961221673003 36.75754329009592 181.61654152528732 0.6652595276109734
2.006724331234742 12.38944920748541 33.91714004406925 191.38018784394671 0.6829197289588311
2.017582640919123 12.337206607661313 31.339506938518877 201.77321644815254 0.7014731417867598
2.027422894335547 12.282836188016882 29.00067420578939 212.84566615313926 0.7209828033034527
2.0362385448601446 12.226387772343054 26.878944375834212 224.65273840096197 0.7415181849735564
2.043989462117038 12.167806602978159 24.95064945924735 237.2558055929992 0.7631571896796762
2.05065481058162 12.107117335652914 23.19609373368819 250.72151517583265 0.7859817956236304
2.056227143649038 12.044365555029858 21.600494788896377 265.122936144964 0.8100801702343061
2.0606872242636913 11.979553685964133 20.14842748365542 280.5419746963213 0.8355526684398932
2.063998427753391 11.912673715817983 18.827144452605342 297.0679677199317 0.8625051156355933
2.0661662350787933 11.843790445323124 17.624263538807337 314.8013570659357 0.8910583627781127
2.067168390201002 11.772913189212986 16.52962906277009 333.85159900053156 0.9213386158820086
