M[M_sun], R[km], Lambda[1], P_c[MeV/fm^3], rho_c[fm^-3]
0.24162668629717493 15.618656898711224 2160425.4255784233 3.5677272577965504 0.1711233750220791
0.2536437404097496 15.277280085423468 1723105.1143814775 3.7848148068367977 0.1738881132338334
0.266039250182175 14.98127023651108 1383006.3365855236 4.011391397478673 0.1766665392266325
0.2788141951794128 14.723549230204762 1116597.444020435 4.247713271102873 0.17945734089641202
0.29196742872970816 14.49845221768246 905884.8007069514 4.4944055066637025 0.18226708256834745
0.30550407380417666 14.301221159162665 738694.341044828 4.751622849275259 0.1850914536692014
0.31941944975362657 14.128156478650904 605110.3703882088 5.020049012697286 0.1879371043740055
0.3337172082826176 13.975982009084165 497707.01134992857 5.2999060566594665 0.19080061869537268
0.34839733068052375 13.842057637491838 411024.2618879476 5.5919249219537805 0.19368834035585858
0.3634590809613983 13.72402271814277 340666.84478942095 5.89626995348057 0.19659527817839512
0.378912500753537 13.620023382094367 283316.9847595634 6.2138064384504474 0.19952913832260602
0.3947442364675608 13.528491104677993 236409.02773987578 6.5447936041677055 0.20248613141902266
0.41096832331447597 13.44791801091552 197877.9173196886 6.889930233761954 0.20546990763559514
0.4275752233468438 13.377090264807775 166092.61777059172 7.249923004433613 0.20848356973593163
0.44457031470652597 13.314955829069461 138188.12992093916 7.625033560905762 0.21152270725254502
0.4619504374268807 13.260625806709431 117990.61350425692 8.01620555482081 0.21459339956700063
0.47971563826372343 13.213167072836148 99820.28141672928 8.424146389140438 0.21769733354454174
0.4978723029482897 13.17198984782367 84651.33256661342 8.849300640409455 0.22083203101356175
0.5164080196626726 13.136420381844962 71940.97861677704 9.29253417131144 0.22400079500007045
0.5353266749752313 13.105862743525234 61282.78413266269 9.754735193314273 0.2272065954282148
0.5546327969385532 13.079812162312976 52303.23200678724 10.236713191489326 0.23045078306886213
0.574313746243891 13.05785240235133 44733.82364819548 10.738944326473447 0.23373011855807657
0.594368291768353 13.039548054658335 38331.60922452724 11.262663295637324 0.23705066486219714
0.6148061815757818 13.024509903203704 32905.629483769924 11.808812304396735 0.24041409774284422
0.6356096532364499 13.012454234125627 28295.948935617867 12.378370229614253 0.2438220499199425
0.6567775957924943 13.003027589256932 24373.25728827723 12.972033020216449 0.2472725509521491
0.6783097762097103 12.995978720581888 21030.644775104185 13.591113519360212 0.2507702309968066
0.7001954979828777 12.991069285894334 18174.46342621633 14.236815869078663 0.25431780238605056
0.7224298053746622 12.988006901771795 15731.56487229295 14.910329589626624 0.2579172494202102
0.745016569899324 12.986653981118504 13635.715098600174 15.612692455214152 0.26156855082878405
0.7679369136916497 12.98675103177581 11837.86023456721 16.345154333795374 0.2652734397400089
0.7911791990799818 12.988140818313566 10290.342296052237 17.109338807731405 0.26903668541054104
0.8147533271965961 12.990661534896201 8957.72899941409 17.906700701347177 0.27286071998275263
0.8386329774807659 12.994134208264466 7808.4288513545225 18.738612925591468 0.27674669371039046
0.8628145692083531 12.998394687924794 6815.510440077432 19.606404522353973 0.2806949509715317
0.8872862832414802 13.003346159601685 5955.877867413606 20.512168337434172 0.2847119181300231
0.9120475508773643 13.008842055412508 5211.962219327126 21.457698196592826 0.2888006079337962
0.937067304700971 13.014729720294481 4566.072255029272 22.444487755460028 0.2929610199493953
0.9623443213711143 13.020932250767844 4005.114902135477 23.47454296937517 0.2971967992806322
0.9878684304042727 13.027327375788289 3517.1184924409495 24.550295014165165 0.3015141206988242
1.0136093192343605 13.033780770819218 3092.2915459888277 25.67369717211138 0.30591469882504113
1.0395704571727147 13.04024074520726 2721.866730183046 26.84668815937519 0.31039962845456354
1.0657220629073658 13.046562751888306 2398.674796070646 28.072374947658385 0.3149777242107408
1.092053217620922 13.052693846671222 2116.2104521688475 29.35282444445113 0.31964951533750985
1.1185496222791949 13.058530110889873 1868.9221854106295 30.690767710517406 0.3244195197889113
1.145179762376376 13.063984111159568 1652.4123716879683 32.08962978629369 0.32929596695870306
1.1719426842321874 13.068997955413678 1462.3335354289825 33.551322652408196 0.33427636701348934
1.1987969954353928 13.073458179962646 1295.671936244152 35.08040170515079 0.3393743765947443
1.225741037200585 13.07732544007611 1149.2726524526981 36.67890644202917 0.344586858135578
1.2527349710789644 13.080492362240678 1020.3695026856598 38.351864543689125 0.3499281005823514
1.2797764032155037 13.082935849234714 906.8936510196066 40.10152248814489 0.35539472991431886
1.306819569060678 13.084524773964743 806.89350003476 41.933362866724075 0.36100137332707655
1.3338552727349064 13.085235469711236 718.7475142453573 43.85083237907338 0.3667497574944506
1.360863827732617 13.085034055527334 640.7500925620625 45.85866883082221 0.37264791389383356
1.387792795435766 13.083780383840237 571.9015174058928 47.96217931615958 0.378705658823521
1.4146495303116327 13.081489697280148 510.92818945404423 50.16608839561989 0.38492848459681955
1.441371897239675 13.078039209061254 456.9748505902064 52.4756743866023 0.39132367055295075
1.4679658893582723 13.0734439043673 409.0894896017734 54.89732209225871 0.3979027503210607
1.4943746796166637 13.0675815545321 366.60111614212747 57.4372192623033 0.4046747813721082
1.5205856541323037 13.060441672219278 328.9044428493325 60.10199156590818 0.41164953097272494
1.5465685846855628 13.05195724099936 295.34815665849817 62.89874201200794 0.4188375346230592
1.5722847024156414 13.042080776162674 265.5262509004128 65.83509414355825 0.42625015926494697
1.597708565764403 13.030756233907113 238.9712943414576 68.91923938882836 0.43389967181876504
1.6227958500881432 13.017940188138299 215.28254460403298 72.15998900043013 0.44179931367570574
1.6475480441403187 13.003604724802928 194.14129427380115 75.56683106677946 0.4499633818479548
1.671896264351802 12.987674222301488 175.2701618977072 79.14973449104427 0.45840623742632575
1.6958337548982705 12.970132391820847 158.39773834487684 82.91881910459668 0.4671408590014768
1.7193144642272737 12.950924403287868 143.30949742091133 86.88685120305276 0.4761889311048442
1.7422999569059598 12.929991969730025 129.80575830398664 91.06545050971401 0.48556497293274736
1.7647806731463647 12.907348424571817 117.7043465198891 95.46861042883029 0.4952905332151959
1.7867088256623718 12.882917417582586 106.85119584688799 100.11008977430987 0.5053835032088738
1.8080466160001156 12.856668492020498 97.10582832241168 105.00636108961105 0.5158693887537997
1.8287595319555394 12.828540716853881 88.3494372619282 110.1739591461645 0.5267707181251379
1.8488388300353693 12.798582868359215 80.4815699361963 115.63045804547171 0.5381106716152149
1.8682268106736335 12.766681090703594 73.39448771430769 121.39615901558099 0.5499189401606298
1.8868981117085422 12.732837889337222 67.0229375131202 127.49242711713883 0.5622251267767295
1.9048223492170626 12.697031235258628 61.27064330275184 133.94174755537554 0.5750587056895442
1.9219659758356424 12.659223215125447 56.08619697832609 140.76967878926146 0.5884555532874012
1.9382820658108353 12.61934335057315 51.40436729591503 148.00394917425814 0.6024541416514007
1.9537810014887198 12.577507538559862 47.17349877157696 155.67312220542706 0.6170904811876303
1.9683991006993125 12.533589899564687 43.34836653913942 163.8107569914181 0.6324118955951838
1.982117026375782 12.487599436392818 39.887823958502686 172.45053952247687 0.6484596837739731
1.9949103333004026 12.439531421647432 36.75330827921368 181.63188836694644 0.6652874820958515
2.0067486399550023 12.389381628337127 33.909621799603734 191.3967163336732 0.6829494424230418
2.017598747876568 12.337118065327617 31.334050002974426 201.79103650932612 0.7015047706375388
2.027438674905837 12.282743086463062 28.99824925649639 212.86485424461142 0.7210163717214961
2.036253152062843 12.226287242843211 26.87575386549792 224.6734721021725 0.7415540236696981
2.0440018470332246 12.167704355352686 24.947735210927434 237.27818590267566 0.7631953501635648
2.0506650692726573 12.107009955902278 23.19252817054778 250.74574955476155 0.7860226449174957
2.0562419562659366 12.04427539068181 21.597668601647616 265.14916216052626 0.8101238118479012
2.0606921206248967 11.979440838391202 20.145830390547715 280.5703378144817 0.8355991905551342
2.0640034078276415 11.912552333799415 18.824914453202933 297.0987394456077 0.8625549713449006
2.06616897243288 11.843663666133464 17.622207543185496 314.8347844630653 0.8911118734662542
2.067166925273935 11.772783837189829 16.526672295723166 333.88790251236594 0.9213959543790469
