M[M_sun], R[km], Lambda[1], P_c[MeV/fm^3], rho_c[fm^-3]
0.24162668629717493 15.618656898711224 2160425.4255784233 3.5677272577965504 0.1711233750220791
0.25364568123648035 15.277235598802164 1723083.6126544967 3.7848504617226135 0.17388855765478461
0.26604282494624804 14.98120421260829 1382950.3159223637 4.011466351613777 0.17666744500312032
0.2788199004099161 14.723430107794291 1116328.2044377706 4.24783006076459 0.17945869548048968
0.2919773755833097 14.498281021575224 905743.1472163729 4.494567196979554 0.18226888302754082
0.30551363182365643 14.30113345373475 738598.6818249549 4.7518349309313335 0.18509374455585095
0.31943250514137417 14.128001003329267 605030.9279423185 5.020313048438592 0.18793984384673
0.33373347427988426 13.975817283779994 497593.57269315876 5.3002289984632585 0.1908038701834795
0.34841651515950084 13.84189663212778 410925.5150977477 5.592307576636452 0.1936920426451781
0.3634823950109919 13.723834101540747 340599.3232903186 5.896720918661817 0.1965995137388118
0.3789383808828683 13.619850821432177 283232.2605868715 6.214331172168474 0.19953392326229388
0.39477424764175284 13.528303410376072 236352.48890091162 6.545391562122781 0.20249137470248704
0.4110001426220638 13.447748378395348 197805.1924275863 6.8906129604663455 0.20547572202270487
0.4276100296725611 13.376963245475508 166027.24324976894 7.250696907362597 0.2084899720365288
0.4446096934445833 13.314808606059024 139758.28163857202 7.625896501540601 0.21152957681486734
0.46199140631251107 13.260464448704465 117942.55326434001 8.017172586173052 0.2146008803363215
0.47976133530628495 13.213086386245884 99777.34582524357 8.425225052987699 0.21770544358872873
0.497921743969074 13.171922620845606 84613.58434304869 8.850486959936738 0.22084062047381461
0.5164632720104464 13.136324249366789 71912.77185589961 9.293847346522622 0.2240100398354241
0.5353854965005971 13.105779383319453 61251.44232866718 9.75618412908972 0.2272165156094999
0.554694662778313 13.079763215771635 52282.900688507376 10.238301406355987 0.23046132321970372
0.5743813575238234 13.057784692032639 44711.81116847128 10.740676749090122 0.23374124124791298
0.5944417644999455 13.039482580325847 38309.39402243214 11.26456005399858 0.23706251584276256
0.6148832162379853 13.024473017996792 32888.51467486577 11.810884605197534 0.24042670078927064
0.6356905608483476 13.012407716720135 28278.69501160596 12.380629978772907 0.24383543006239097
0.6568644660002069 13.002995475642857 24359.33553463003 12.974469840504971 0.2472864788176531
0.6784001933072598 12.995958390594566 21017.183438420514 13.593762017523314 0.2507849771250037
0.7002921905201066 12.991041428927419 18162.664157255906 14.239690247942084 0.2543333960316687
0.7225302743967926 12.988005588368981 15720.323586927678 14.913444964658403 0.2579337215823527
0.7451227459989649 12.98665121609706 13626.864934394023 15.616034513777223 0.26158563321528344
0.7680467693389967 12.986756748174006 11829.673251861152 16.348768339011883 0.26529145464958936
0.7912971925968126 12.988151033214946 10284.603949346527 17.113242900172548 0.2690556696900457
0.8148738621719587 12.990677166767005 8950.922202527037 17.910914224391068 0.27288071284831455
0.8387633117368036 12.99414848406291 7803.261048661324 18.743117189593416 0.2767673884729106
0.8629463700100409 12.998427615769655 6810.158025539091 19.611258100103868 0.2807167259139042
0.8874311266303752 13.003384364780544 5951.6447490785995 20.51739459253174 0.2847348203902043
0.9121920217705644 13.008868916102426 5208.047523022569 21.463322092666765 0.28882468782817766
0.9372164687243266 13.014771494971146 4562.786564449033 22.450485863796306 0.2929859326766192
0.9625046896946026 13.020975629374416 4001.900962133013 23.48099057070188 0.29722298490538895
0.9880293597456472 13.027359953175386 3514.3387964238486 24.557222461288806 0.3015416401576329
1.0137763993186848 13.033824645085602 3090.113371323764 25.681077647682343 0.3059431815016688
1.0397445193681862 13.040285900124008 2719.6333757278476 26.854611902134117 0.31042956292788204
1.0658994870541525 13.04660673024601 2396.72202969719 28.08087905398392 0.3150091845979078
1.0922364649685823 13.0527370813254 2114.3375812914564 29.361878771590614 0.3196821053558268
1.1187382569960573 13.058571081229244 1867.1194071755742 30.700480371582255 0.3244537818301823
1.1453732634223193 13.064021337113624 1650.8980761077908 32.099969078148604 0.3293314917471373
1.1721408308843722 13.069029584002749 1461.1045661329508 33.562409869392134 0.33431373207786513
1.1990003718401874 13.07349005478662 1294.4769291278271 35.09228918451518 0.3394136852662994
1.225951336230808 13.077353232507702 1148.2169150964528 36.691559683636356 0.3446276755343231
1.252949766000388 13.080511719583313 1019.4566973738773 38.36534402602574 0.3499705709665139
1.2799955612527718 13.082947434903843 906.0418491001562 40.11596309368154 0.3554394043235547
1.3070490593867086 13.084553040383703 806.1523947587818 41.9487391717654 0.3610478582267165
1.3340827933039703 13.085241673858322 717.9892484115617 43.867316801749446 0.36679875772375947
1.361093470424102 13.085028713931694 640.1241268333813 45.87622682668131 0.37269897016071835
1.3880355799146287 13.083779240228322 571.3289618907991 47.98088589099968 0.3787589037741297
1.4148801485130607 13.081450429160464 510.4224161422274 50.18614870324562 0.38498469578947847
1.441613067415256 13.078003228848885 456.51027397496574 52.49705657777129 0.3913823780386861
1.4682085085584684 13.073397009066351 408.67394170976786 54.92012085868137 0.3979641205000018
1.4946208919517179 13.067520988019417 366.230029258264 57.46153696651963 0.4047389935091163
1.5208335710455705 13.060364662340497 328.5755142766107 60.12793892814554 0.41171677825398617
1.5468184339975846 13.051869320920979 295.04795228922393 62.92643886558237 0.4189080253174036
1.5725372300399463 13.041974810103826 265.2429213541999 65.8646702664512 0.42632411800112646
1.597950649210591 13.030629279997008 238.7119035645773 68.95083542000307 0.43397734099125224
1.6230584755182367 13.017812707577658 215.04499830130285 72.19375745050084 0.4418809549930649
1.647801914505788 13.003447449722293 193.925670307757 75.60293743384416 0.45004927803954164
1.6721497551989637 12.987498693385007 175.0909813992975 79.18816992538939 0.45849590685492303
1.6960860679421361 12.969935452427404 158.22229725653688 82.95995866588942 0.4672353975935096
1.7195664845106204 12.950707399014469 143.15619100512285 86.93090670177907 0.47628869513374156
1.7425471079310844 12.92975522127638 129.6714061711806 91.11244028233645 0.4856695078805187
1.7650269550963393 12.907087575341249 117.57264551586567 95.51898722290333 0.49540107114998366
1.7869380918345108 12.882602749596119 106.7306792013436 100.16389745676364 0.5054996178532288
1.8082877654867051 12.85635804037748 97.00282818367579 105.06387872518526 0.5159915275735033
1.8289911509314454 12.82819771514973 88.25647714263924 110.23549112955483 0.5268993651344218
1.8490725009261642 12.798215572328303 80.39936837717424 115.6965881219887 0.5382472735335639
1.868442930193522 12.766258024088492 73.3203436257988 121.46700751958383 0.5500631617516993
1.8871182598784695 12.732416762674836 66.94851021479697 127.56819306327203 0.5623768772256857
1.9050374932736587 12.69657964481315 61.203378629735056 134.02298463074536 0.5752190929002122
1.9221739766065855 12.658739970291563 56.026121709037696 140.85693402351768 0.5886255596652209
1.9384819208310085 12.618838111139176 51.34730623284106 148.09774518831048 0.6026345629510731
1.9539721796306406 12.57696250591005 47.12435271130244 155.77372400763048 0.6172811316731881
1.9685810246059399 12.5330072797628 43.302947155347084 163.91877433221006 0.6326136728854699
1.9822907721548637 12.48698515397323 39.844967669690085 172.56696717344178 0.6486746547015438
1.995071070211312 12.438879410997073 36.7136549354818 181.75714845305802 0.6655156450795332
2.0069009596978917 12.388695100627848 33.87466768786567 191.5316224288456 0.6831919647282885
2.0177395732869847 12.336394644243342 31.301249124597614 201.93648609014122 0.7017629292960675
2.0275673924091104 12.281987557548806 28.968554079304898 213.0214715361713 0.7212903643029652
2.036368075828044 12.225491839628543 26.847989592142046 224.84270703960027 0.7418465502879545
2.0441027536031866 12.166870445372782 24.921900310125565 237.46086309745363 0.7635068315616742
2.0507518918756356 12.106134700862382 23.167960627509142 250.9431890641698 0.7863548604089989
2.056314484650261 12.043357909273983 21.576847285913882 265.3630604525996 0.8104794727145358
2.0607495506698283 11.978480853563182 20.12608107487062 280.8018579055512 0.8359789373903174
2.0640442463386184 11.911555237309438 18.80690748707076 297.349923752348 0.862961934929304
2.0661898412060906 11.842622232138224 17.606064018580657 315.1076504379123 0.8915486782233776
2.067176149924811 11.771710219437328 16.511873906825098 334.1842502019739 0.9218640118826963
