M[M_sun], R[km], Lambda[1], P_c[MeV/fm^3], rho_c[fm^-3]
0.24162668629717493 15.618656898711224 2160425.4255784233 3.5677272577965504 0.1711233750220791
0.25360875263200094 15.278201956001936 1724248.6696413856 3.7841887006513097 0.17388030912227492
0.2659674215882185 14.982864939693064 1384643.1751611312 4.010075352686513 0.17665063560199576
0.278704074766235 14.725563084672809 1118398.959782649 4.245662923743998 0.17943355995685664
0.2918152881191506 14.500810638539448 908080.5693049493 4.491567219406436 0.1822354775810057
0.3052851061130596 14.304145954925035 741095.3073720137 4.708241600418882 0.1904115642803439
0.3184155386676193 14.137549990888097 613110.4791104846 5.020945382193181 0.21517599148383557
0.3313455362289552 13.991971499297126 503746.60960792186 5.3118180874545855 0.234005008795415
0.3442082151276505 13.861916664710899 430441.7684016306 5.616602843717679 0.2515703380694262
0.3570780277373853 13.744250739741064 363754.4047392038 5.939492932073632 0.2688875640525173
0.3700278391660149 13.636628973735743 308573.01937790425 6.280817100293648 0.2858206684966301
0.3831222783750926 13.537293989993875 262490.6149076828 6.64079526613945 0.3022671654568443
0.39641763390014784 13.445256698110954 223820.9714021719 7.01729110474266 0.3178268316894403
0.40994684375449764 13.359539308172852 191111.30164232387 7.412204753004462 0.33280183289992077
0.4237687179413225 13.279647054762899 163414.4997083336 7.826751927495134 0.34730167554711333
0.4379207275887688 13.205017754374154 138225.89885252982 8.261234125062742 0.3613054762542926
0.45242157170518543 13.135354816929167 119750.94748918193 8.715995404383337 0.37481055277609315
0.4673162803305118 13.07042453181718 102614.87832356578 9.191439413931656 0.38782766371370553
0.482630741833024 13.009893512066986 87961.72548556801 9.688040666475787 0.4003769628159438
0.49837430165735525 12.95367114893261 75426.39472622126 10.2063520285577 0.4124847989349191
0.5145839513688404 12.9017307301233 64693.50915227137 10.747009860668783 0.42418130578750385
0.531264151081377 12.853716986735561 55516.55889446627 11.310737818556015 0.43549865362822704
0.5484326704987953 12.809620210762583 47655.610647697424 11.898350009449755 0.44646982425047677
0.566090910901182 12.769279269366782 40569.471215830694 12.510753972875468 0.45712778363303674
0.5842554936224723 12.732537031139524 35165.3318194112 13.148953801635377 0.46750494861785397
0.6029298383732845 12.699324119724627 30227.34492483642 13.814053615626639 0.4776328665915217
0.6221081201488344 12.669499554394497 26002.31507805701 14.506159341348898 0.48749844316631175
0.6418102308698005 12.642827767360922 22379.388544689995 15.224958143622654 0.49707901653509934
0.6620251479975018 12.619274477579904 19274.127242964238 15.974131627822741 0.5064989788790831
0.6827396904992622 12.598632210018328 16614.356653124487 16.75522013682408 0.5157858327586582
0.703957908028465 12.580722456066287 14332.65751575076 17.566090854218 0.5248536112612902
0.7256730109178418 12.565436981782371 12376.797225609138 18.410492113319695 0.5338005035853833
0.7478719721592223 12.552344646217735 10695.211736529194 19.290517220559963 0.5426630204277623
0.7705491218526741 12.541972078043406 9253.109964561538 20.204165189710174 0.5513702076832823
0.7936836685477976 12.533534492205485 8013.835107376801 21.15737629127571 0.5600499355830495
0.8172745937976946 12.526945324386748 6947.166905400344 22.147323254289873 0.5686161624915228
0.8412981881508026 12.522080339577927 6028.182158720454 23.17918544132565 0.5771638516307226
0.8657320401717088 12.518927539877943 5239.017743255644 24.253685471634114 0.5856840229653744
0.8905671892271172 12.517386017530079 4557.498662989224 25.37109249568386 0.5941642741383568
0.9157867892554196 12.51703775548736 3969.3197254910665 26.535775734175132 0.6026638141157691
0.9413572146971777 12.517917605101042 3461.633412239285 27.749382253747388 0.611188121784028
0.9672676585647672 12.51957784266608 3022.311402098111 29.013824174183334 0.6197469017333722
0.9934958005558487 12.522256818012645 2642.0571411745927 30.33049742197183 0.6283420325533962
1.0200106090044494 12.525664536155135 2313.0657569827245 31.703090346326672 0.6370070514631946
1.0467747782403878 12.529577052135705 2027.3028319837786 33.134374881788666 0.645758759861056
1.0737850079829414 12.53398222161719 1779.2360491738773 34.627233980238444 0.6546135263626628
1.1009989957798811 12.538488497385366 1563.5237118979387 36.183610208873056 0.6635752467697839
1.1283926815486667 12.543299324560639 1375.920707103792 37.80779896955985 0.672674479362499
1.1559284096447262 12.548199055619909 1212.3477620116812 39.50361421601547 0.6819329387835085
1.1836016567176733 12.55283610067326 1069.6216243270924 41.275188846157484 0.6913734409759835
1.2113365146988035 12.55739920219965 945.0514415969699 43.12363678129414 0.7009875044723749
1.239144431152207 12.561624236169171 836.1308595696069 45.056661950304374 0.7108305854499901
1.266958477492663 12.565385876850934 740.7296301656663 47.075838658139475 0.7208970951315028
1.2947744513472863 12.56854676678559 657.0379509390009 49.18834366360706 0.7312317788377152
1.3225247600558856 12.571112435323267 583.6825740224103 51.39760142384875 0.741844195261883
1.350202208228266 12.572852786602063 519.1873227599849 53.70921183288541 0.7527619753136494
1.3777758336790409 12.57379212590521 462.42009416321036 56.12956519236984 0.7640171807716266
1.4051815994401402 12.573772290360894 412.46367554839964 58.66466395134519 0.7756373059264722
1.4323931841992577 12.572676802060899 368.3770303785229 61.321113775388866 0.7876532883101531
1.4593877448417494 12.570468835538689 329.46707269806905 64.10615270487311 0.8000994354215409
1.4861206806412495 12.566978231722215 295.0308388851247 67.02689708808522 0.8130083895003122
1.5125399438855394 12.562327478680656 264.57924453653516 70.09132319973554 0.8264179149444421
1.5386215026752068 12.556180114887217 237.5815034750193 73.30960942690876 0.8403785311759913
1.5643379543911586 12.548616532233046 213.64132019630787 76.68889170255456 0.8549218105485403
1.5896251674544666 12.539479096335596 192.3659459338066 80.24106725378785 0.8701073000936265
1.6144898262517255 12.528776821666856 173.4509822751556 83.97654475831156 0.8859852370982401
1.6388360552866492 12.516425912958317 156.60882967490713 87.9067104626697 0.902611583831727
1.6626699674813594 12.502332326937161 141.58366160311212 92.04410893861512 0.9200488240113879
1.6859409612914578 12.48641918417515 128.1898118425454 96.40252006214715 0.9383661965461785
1.7086001437075589 12.468667424630818 116.22414994494484 100.99705131189924 0.9576400512504801
1.7306335340885273 12.449038183846262 105.52314151301951 105.84242367496327 0.9779466185871372
1.7519815043125113 12.427444417081288 95.93581296396856 110.95714466103817 0.9993805568744082
1.7726228730469786 12.403807945057 87.35103343478458 116.35883201392745 1.0220350107192744
1.792524369122366 12.378121184205508 79.6345751456543 122.06795240536356 1.0460177976703924
1.811631723021468 12.350391736415135 72.71366896249432 128.10645406044864 1.071445910986099
1.82991607808039 12.320456269423586 66.49140305192384 134.49789935973865 1.0984467249217176
1.847351940522591 12.288340888145404 60.8856997442374 141.26923750446863 1.1271643127482194
1.8639163937508518 12.254060899600294 55.843873791628994 148.44739563080822 1.157749228199328
1.8795537178828972 12.217542044278035 51.288430424649434 156.06428374144113 1.190374930451721
1.8942248854624129 12.17868982075687 47.179838435899775 164.15354804005037 1.2252284821471942
1.90791951255967 12.13760195742867 43.46797032136193 172.7522079633933 1.262516552141407
1.9206124226309578 12.094201426121261 40.110164006513926 181.90040119520813 1.3024660557408765
1.9322484872244452 12.048435700030996 37.07424206238089 191.64331713351996 1.3453298996540877
1.942810412397145 12.000329496825751 34.326727070660205 202.02991621395122 1.3913855891824247
1.9522655803524112 11.949876748818232 31.834588464156326 213.1144300025803 1.4409403667521838
1.9605865237426108 11.897040324421244 29.57498484872544 224.95602835042726 1.494333003394572
1.9677606997804309 11.841836905626769 27.522873044151286 237.6212971090042 1.5519402762736763
1.9737604595110665 11.784317317417807 25.66280895489001 251.1830637773625 1.614178190488267
1.9785675845883404 11.724452659598102 23.97278147211855 265.72278594151425 1.6815087375363806
1.9821379715490985 11.662248325635352 22.437351086060715 281.3298057949257 1.7544434449312991
1.9844699673728896 11.59776864770243 21.042586266125948 298.10515592684885 1.8335517595080537
1.9855551302535794 11.531014038423729 19.77556032262333 316.1600743577704 1.9194655357536041
