M[M_sun], R[km], Lambda[1], P_c[MeV/fm^3], rho_c[fm^-3]
0.24162668629717493 15.618656898711224 2160425.4255784233 3.5677272577965504 0.1711233750220791
0.253645072002672 15.27727528730732 1723072.0175632013 3.784854715265014 0.17388861067313868
0.26604326105745807 14.981198479775541 1382903.5785098372 4.011475293529266 0.17666755306089185
0.27882107315686605 14.723401492644959 1116385.950551758 4.2478439936961 0.17945885708149872
0.29197797539661674 14.498283611758723 905718.2322096846 4.494586486666057 0.18226909782267692
0.3055152852647032 14.301104833371463 738515.0062393554 4.75186023249529 0.18509401786103044
0.3194345475903301 14.127969974505506 604986.3743905652 5.0203445483920985 0.1879401706709055
0.33373547737870707 13.975762188539152 497579.1557279184 5.300267526287414 0.19080425809473953
0.34841879717892493 13.841877416773617 410913.60846097744 5.592353228663681 0.19369248434109998
0.3634844747820128 13.723860645585688 340556.02592962346 5.896774720733768 0.1966000190592573
0.3789403783580962 13.619863389060939 279310.5459097984 6.2143937755645355 0.19953449412988658
0.3947759918160666 13.52830361443629 236350.0311024931 6.545462901981931 0.20249200025667638
0.41100391692717686 13.447728163849046 197803.7785591742 6.890694414269081 0.20547641571746972
0.42761518735257376 13.376925535894191 166021.29336359137 7.250789239698344 0.20849073587827968
0.44461362250057024 13.314802698329476 139749.8046348648 7.625999457338823 0.21153039640922155
0.46199694589066 13.260448511440055 117929.49222164543 8.017287961582467 0.21460177285839033
0.47976583223262376 13.21307777393749 99770.95622952013 8.425353747972007 0.21770641119509845
0.49792773414869906 13.171885840754438 84609.27353892822 8.850628500081559 0.22084164528493858
0.5164700920535379 13.136309336658808 71908.10624535212 9.294004022853667 0.2240111428465623
0.5353913480448819 13.105789698605417 61249.51218805757 9.756357004253452 0.22721769920437898
0.5547031593388353 13.079732284104399 52278.356025330795 10.238489757726677 0.230462566100781
0.574389469439827 13.057776045769998 44707.49275613122 10.740883450012316 0.23374256833186138
0.594449853490738 13.03948443554396 38307.578330062875 11.264786363765003 0.23706392983027855
0.614891060755523 13.024462933805847 32886.42265326805 11.81113186117557 0.24042820451815458
0.6357003431616468 13.012394232434845 28276.92383687696 12.380899601783495 0.2438370265202435
0.6568748391297672 13.002999140901851 24357.343249591726 12.974760592367785 0.24728814063607252
0.6784108711980211 12.995968874281592 21016.15619404836 13.594078027928216 0.25078673658627393
0.7003045982487334 12.991033988434236 18161.871104595004 14.240033211851967 0.2543352566276182
0.7225400857665147 12.988013178774272 15718.947171557087 14.913816685964305 0.25793568701301844
0.7451353499506314 12.986646608299505 13625.654470863923 15.616433284638262 0.2615876714674099
0.7680606339770394 12.98675793458874 11828.663139798755 16.34919956094705 0.265293604182782
0.7913100849470526 12.98815560502662 10283.086552724028 17.113708738136065 0.2690579349023163
0.8148885592539994 12.990682869967543 8950.403901537504 17.91141698690188 0.2728830984204791
0.8387771905974835 12.994142307781516 7802.616417031044 18.7436546464143 0.27676985780891494
0.8629632769771475 12.998417797048067 6809.475816305818 19.61183724131968 0.28071932415529427
0.8874476269020762 13.003390269184733 5951.095938431358 20.51801820651117 0.2847375531633551
0.9122104105670963 13.008870895391201 5207.483105193598 21.463993158760527 0.2888275611388591
0.9372339349492602 13.01477473088511 4562.369454654095 22.451201586120266 0.2929889053796824
0.9625223546372838 13.020985890612808 4001.581612388048 23.48175993359111 0.2972261095166821
0.9880488889336223 13.027361280949766 3513.936094427468 24.558049087361407 0.3015449239506015
1.013796295260548 13.033826781871204 3089.8489845684235 25.681958336558942 0.3059465802496547
1.0397648944762115 13.04028395938092 2719.3585712564673 26.855557423601766 0.3104331349377272
1.0659210466402198 13.04661761586257 2396.541031698189 28.081893835612625 0.3150129387164132
1.0922573402589646 13.052738403825316 2113.962057091433 29.362959216026226 0.31968599429239875
1.118760620248306 13.058576832565985 1866.9489780998906 30.701639382242647 0.32445787031538886
1.1453976194903013 13.064038663597024 1650.7011284597463 32.10120287137326 0.32933573093913343
1.1721639739109306 13.069033375824976 1460.918542068688 33.5637329220694 0.3343181909017999
1.1990250724735632 13.07349485557628 1294.4252780451955 35.093707743519495 0.33941837605635444
1.2259756999937599 13.077359034525848 1148.0971785139984 36.69306963135655 0.3446325463919336
1.252975253169881 13.080520367440938 1019.3973370607365 38.36695149223513 0.34997563272350507
1.2800216468204784 13.082951681034908 905.9362064144096 40.117686355176126 0.3554447355189145
1.3070752543601396 13.084550844455109 806.0698965627715 41.95057410540062 0.36105340550908693
1.3341094141137249 13.085237394213 717.9137840070673 43.86928398744606 0.36680460521700337
1.3611194972383867 13.08502786655865 640.025859291069 45.87832214130627 0.37270506305102075
1.3880613336608143 13.083781757797556 571.248176972308 47.983118287397964 0.3787652578949124
1.4149085368896979 13.081446887153518 510.36451618794496 50.18854266945456 0.3849914039466164
1.4416422955164343 13.07800179820452 456.46081455987706 52.49960831221839 0.39138938414542557
1.468237290816215 13.073391206694831 408.6189898950972 54.92284166430505 0.3979714444194145
1.4946494395719052 13.06751622219336 366.18373047013637 57.46443906201485 0.4047466566401377
1.520863237857979 13.06035810256484 328.5318928811866 60.131035529974646 0.4117248036575802
1.5468488396612083 13.051858332820524 295.02320644272436 62.92974427817059 0.4189164378552326
1.5725667474693044 13.041962523770078 265.2089165841743 65.86819998147985 0.42633294448807124
1.597979839588865 13.030615947827135 238.67250562194408 68.95460622582141 0.43398661036327874
1.6230897771184232 13.017795650145631 215.0212272561912 72.19778755280691 0.44189069849212015
1.6478315365180851 13.003428332065937 193.89895920743464 75.6072465889237 0.45005952941735616
1.6721787826468475 12.987480177378258 175.05836165626934 79.19275707616396 0.45850660862519965
1.6961165950077808 12.969912361018256 158.20315601754066 82.96486858610358 0.4672466805758618
1.7195958463854553 12.950681991411013 143.13272974874758 86.93616467713139 0.4763006018609415
1.742580640603667 12.929731667046592 129.64795108065363 91.11804850101835 0.48568198410277486
1.7650563114024023 12.90705482198389 117.55599938808477 95.52499973490265 0.4954142639438388
1.786967278145635 12.882567968801117 106.72359927699434 100.1703194980898 0.5055134763397984
1.8083166991352926 12.856320339336316 96.99014641232185 105.07074361111219 0.5160061051731585
1.8290284147710107 12.828174130540916 88.24084122902046 110.24283519978161 0.5269147196316863
1.8490997064394514 12.7981741389602 80.38892185270981 115.70448106898576 0.5382635776384133
1.8684697494224387 12.76621138799281 73.31210713707466 121.47546370867151 0.5500803754538343
1.8871455241111692 12.732370018621202 66.93874168803855 127.57722782525225 0.5623949595864731
1.9050630108762123 12.6965261645541 61.19585345473865 134.03268092610872 0.5752382363979326
1.9221832315839977 12.658663631171652 56.020542034679195 141.2802205899995 0.5893665356493614
