M[M_sun], R[km], Lambda[1], P_c[MeV/fm^3], rho_c[fm^-3]
0.24162668629717493 15.618656898711224 2160425.4255784233 3.5677272577965504 0.1711233750220791
0.2536445284771928 15.27728143735501 1723206.838078484 3.784829782947415 0.17388829990382754
0.26604030632569736 14.981259786413064 1382924.1787827304 4.0114228803187295 0.1766669196781747
0.27881715566007265 14.723465469788188 1116422.339051397 4.247762325854417 0.179457909857606
0.2919714760322435 14.498388233483242 905811.2992425344 4.494473420631547 0.1822678388061414
0.3055082274161502 14.301169774633298 738594.1002688683 4.751711928533989 0.185092415895206
0.319425312778536 14.128096210732869 605061.4937978709 5.020159913499682 0.18793825501263411
0.3337228495328028 13.975928844134987 497664.626219498 5.300041698810813 0.1908019843867657
0.34840538715714603 13.841990638408864 410983.88176676666 5.592085644192923 0.19368989538773543
0.3634693267178423 13.723937015879537 340639.747474455 5.896459366759758 0.1965970571879974
0.3789230030779222 13.619964182399277 283283.59793095273 6.214026835036798 0.19953114807409877
0.3947561186444865 13.528409887628357 236399.71618660804 6.545044755306756 0.20248833367522356
0.4109816220748938 13.447852548065601 197850.18630520243 6.890216988039419 0.20547234975535378
0.42759075282695735 13.377019726692108 166060.19602368816 7.25024805282734 0.20848625877799018
0.44458626121106803 13.314896395316127 139785.2177479731 7.625396005083801 0.21152559254125305
0.46196879771413035 13.260557090016343 117970.58688060539 8.016611716837224 0.21459654155856547
0.4797324877539264 13.213145376380288 99800.66029787331 8.424599436313956 0.21770073982593827
0.49789203019389733 13.171967322430008 84635.08471897687 8.84979890234123 0.22083563864283876
0.5164319514367487 13.136376062628546 71930.74410646629 9.293085711640456 0.22400467787837128
0.5353516717046043 13.105822001415092 61270.6116402826 9.755343751778975 0.22721076194159293
0.5546590474360561 13.079785510740267 52299.98380967866 10.237382735077057 0.2304552419679666
0.5743425702753813 13.05783520685448 44323.15599607539 10.739671946047343 0.2337347901011293
0.5944001012054205 13.039508107201845 38323.73882322917 11.26345993383556 0.2370556422720759
0.6148384819339963 13.024486254875047 32897.12985997619 11.809682667569435 0.24041939100310314
0.6356433313851116 13.01242414759572 28288.54155696819 12.379319317737002 0.24382766954114243
0.6568149357670561 13.00300696386978 24367.55296561506 12.973056474913703 0.24727840059951126
0.6783473887056254 12.995972280758393 21024.752889439504 13.592225874324816 0.2507764242912318
0.7002366294498225 12.991063427834593 18170.16271475821 14.238023088824992 0.25432435161209277
0.7224723471438653 12.987991205161237 15726.019414243967 14.911638021910733 0.25792416759491354
0.7450610358964783 12.986652349452362 13632.24528448396 15.614096088992506 0.2615757252735919
0.7679824537027251 12.986762800384803 11834.575456211796 16.346672177754524 0.2652810058114568
0.7912289211093358 12.988140005424668 10287.342337333956 17.110978479940165 0.26904465858125265
0.8148029219923264 12.990673758477524 8954.733088934212 17.908470324956532 0.2728691167202449
0.8386872020142183 12.99414199558073 7806.382858371598 18.740504651503752 0.2767553852121521
0.862869699626286 12.998410039526732 6813.215424662067 19.60844294833539 0.28070409610334235
0.8873517499785687 13.003355490935192 5954.396942472874 20.514363274797578 0.28472153668587996
0.9121067733644793 13.008855036252 5210.246243678222 21.460060128524077 0.288810721042341
0.9371293451066796 13.014747486455715 4564.5421951926055 22.447006842835737 0.29297148280420315
0.96241448803778 13.02095275416324 4003.87054252734 23.47725082590692 0.29720779669059016
0.9879361787601332 13.027338728592674 3515.9654699569905 24.553204386012574 0.3015256782520303
1.013679794619339 13.033801277145821 3091.5692822700707 25.676796797259712 0.3059266608754426
1.0396444165271452 13.040250907255343 2720.9145995178483 26.850015932527032 0.3104122001823006
1.0657958491814283 13.046588059540017 2397.7324981990023 28.075946446634997 0.31499093673846207
1.0921294694998107 13.05271028828613 2115.273437189566 29.356627010947847 0.3196632022421103
1.1186288206398354 13.058548409876803 1868.2432897962742 30.694846744702932 0.32443390884631557
1.1452611900374137 13.064003630454769 1651.7849096370455 32.0939719747419 0.32931088629052274
1.1720245846774278 13.069017364666218 1461.7579373601745 33.55597893000418 0.3342920591490701
1.198881972019856 13.073475445020021 1295.1556447265775 35.08539404931984 0.3393908849234838
1.2258287646521844 13.077339016144636 1148.801410593402 36.684220365022405 0.3446040000285766
1.2528257180570648 13.080500077172768 1019.9440828918816 38.35753073302832 0.34994596765589847
1.2798688857710052 13.082937772057184 906.5285654318714 40.107587001023575 0.3554134914911427
1.3069127700429424 13.084520331480674 806.6281143830524 41.93982031830502 0.3610208951815053
1.3339508983400907 13.085235095922037 718.4508747287498 43.85775517029849 0.3667703356101756
1.3609602188862173 13.085032589782514 640.4958770175449 45.86604245575883 0.372669355393518
1.3878911131227958 13.083771835530406 571.6906207744166 47.97003527065429 0.37872801940597023
1.4147416393228318 13.081462228960502 510.7384463970608 50.17451282541025 0.3849520907774835
1.4414736436129 13.078027685792378 456.77685226623726 52.48465391777129 0.3913483249812012
1.4680690330267203 13.07342368506029 408.9233720367106 54.906896486382315 0.39792852286812425
1.4944776984249442 13.067557404169248 366.4427182267878 57.44743150175752 0.40470174731071656
1.520689859617858 13.060408105894705 328.7551807598923 60.11288814224124 0.41167777142070383
1.54667390058538 13.051920204026429 295.22333756548267 62.910373243088685 0.4188671370308836
1.5723901057911234 13.042036420420871 265.40416481568366 65.84751452270343 0.42628121795197543
1.5978145744129038 13.030704263785925 238.865718643296 68.93250796950382 0.4339322885634265
1.622901802281339 13.0178796893305 215.18395936168395 72.17416982056184 0.44183359836553787
1.6476534874928948 13.003539406344181 194.04860028362407 75.58199361721114 0.44999945319610485
1.6720021668674432 12.987600889506508 175.1919740231447 79.16587505705724 0.45844389318217393
1.6959396779588927 12.970046885252328 158.33085429792678 82.93609516762585 0.46718055934400177
1.7194202140719954 12.950833413281558 143.2465349691342 86.90535169839364 0.47623082562437447
1.7423992293095425 12.929879768027552 129.75819569698635 91.08518313795732 0.48560887076726933
1.7648844490180773 12.907239270562041 117.65113394618633 95.48976528755779 0.4953369516988944
1.7868111177797172 12.882797378543598 106.80102243275856 100.13268528384752 0.5054322633381777
1.8081487812951673 12.856538417522298 97.0609132551485 105.0305144225407 0.5159206784069033
1.828857898554987 12.828399689205856 88.30966839582783 110.19979810962027 0.526824740524359
1.8489369032408811 12.798427220104454 80.44330214814941 115.65822773305744 0.5381680342071845
1.8683122679975668 12.766487012295764 73.36965097154199 121.425909953574 0.5499795021678812
1.886990564432625 12.732662229613204 66.99194955385975 127.52428381778209 0.5622889963472972
1.9049132155230466 12.696841088560332 61.24192952945846 133.97586058902246 0.5751260554099662
1.9220533252732068 12.659020915099065 56.061141344406046 140.80631878009567 0.5885269419230306
1.9383662460685478 12.61912794501503 51.379830779978754 148.04333554681526 0.6025299032986086
1.9538631765752148 12.577279569826516 47.153982927130706 155.71536622862965 0.6171705378402855
1.9684760135822665 12.533345176380783 43.32994902537979 163.85611466999413 0.6324966241157125
1.982189177574973 12.487340161373094 39.871322797091544 172.49942850239293 0.6485499519299777
1.9949783284621794 12.439257135767118 36.73694813125918 181.68448587930212 0.6653832891939132
2.006812855871476 12.389093972057848 33.89575172239114 191.4533639498204 0.6830512785219757
2.0176575816715774 12.336814482443476 31.319999770225614 201.85211102295077 0.7016131718747185
2.0274930480005464 12.282424983254156 28.984867417230095 212.93061773448184 0.7211314210125198
2.0363011227406616 12.225954531557324 26.863906663016547 224.7445332878563 0.7416768546208795
2.0440442278586364 12.167353570118319 24.937026794160385 237.35489098623276 0.7633261393772787
2.050701154376981 12.106642213851941 23.182377824875722 250.82865272804491 0.7861621393811016
2.056273212702714 12.043889569863639 21.58888625395541 265.2390489252517 0.8102733886467153
2.0607166679567697 11.979035650036336 20.137014823511365 280.66754983917747 0.8357586409015358
2.0640201815036385 11.912136745556454 18.81753271569177 297.20420745204564 0.862725848413205
2.0661816975236476 11.843227578629396 17.609975528704126 314.9493553906341 0.8912952789869247
2.067170368745299 11.772329916063144 16.52086993868927 334.0123320383997 0.9215924808760568
