M[M_sun], R[km], Lambda[1], P_c[MeV/fm^3], rho_c[fm^-3]
0.24162668629717493 15.618656898711224 2160425.4255784233 3.5677272577965504 0.1711233750220791
0.2536394132784992 15.27741489099817 1723441.3232426574 3.7847548650396567 0.17388736608824892
0.2660322188797396 14.981415888141372 1383141.0383597738 4.011265389360796 0.17666501649289285
0.2788032669373968 14.723739132268772 1116699.8920057404 4.2475169351605 0.17945506369535244
0.2919532723877214 14.498671540900032 906099.6804700581 4.494133692492878 0.18226405585447053
0.3054843743198934 14.30150303720713 738889.6270811531 4.751266329385959 0.18508760257396853
0.3193962962259389 14.128445313554717 605230.7947976616 5.019605162565894 0.1879324992575819
0.33368877480741976 13.97626784546505 497852.50456484075 5.299363193139193 0.19079515296049698
0.34836577743921543 13.842313554923395 411191.52199725993 5.591281691389828 0.1936821169232057
0.3634215458034992 13.724298360249636 335891.2465970883 5.89551190745426 0.19658815844969638
0.3788694552386884 13.620307761645316 283459.82204858516 6.212924406104192 0.19952109524964426
0.39469629237318654 13.528735409931063 236543.16650861825 6.543788503009155 0.20247731803968735
0.4109161931439624 13.4481494915354 197994.8284659058 6.888782663910167 0.20546013444917832
0.42751616061375525 13.377321360496342 166201.64213589078 7.248622200367383 0.20847280851725924
0.44450480601465325 13.31518090018357 139899.33780612925 7.6235831195065495 0.21151116080637652
0.46187925331873375 13.260815163951571 118073.00353056115 8.0145801816376 0.2145808259913707
0.4796371533117421 13.213371952552913 99886.97967996099 8.422333413547063 0.21768370250257296
0.497786613067485 13.172183428079485 84715.11485559294 8.84730674843475 0.2208175943837404
0.5163184262955954 13.13656867931451 72001.13497213431 9.290327101806204 0.22398525709315886
0.5352278651044236 13.10600357417876 61333.64718810271 9.752299986341262 0.22718992271224742
0.5545266381189052 13.07995511422778 52352.7418367404 10.234033978285778 0.23043294055409094
0.5741982192841022 13.057962720474187 44774.193665469604 10.736032748865183 0.23371142532793762
0.5942502902841509 13.039682992874702 38365.75561755326 11.259475576726544 0.23703074793675666
0.6146774980629973 13.024616762061335 32937.68423269354 11.805329618558556 0.2403929172022151
0.6354704891697401 13.012528852010488 28325.402479972992 12.374572576991962 0.2437995637369688
0.6566338622712933 13.003079071790058 24398.55270913148 12.96793783984257 0.24724914458043976
0.6781560802518541 12.996027457941143 21051.923150973784 13.58666267162648 0.2507454498690787
0.7000354600339465 12.991081081584312 18194.313960237887 14.231985496906724 0.2542915973812714
0.7222599516571996 12.988019553931194 15749.076994398476 14.905094303394556 0.2578895684884452
0.7448367548191946 12.986651940957781 13651.315853710019 15.607076304102108 0.26153984478963954
0.7677481983733389 12.986755188985704 11850.588255395089 16.33908128156748 0.2652431670978269
0.7909833904509099 12.988123808846444 10302.422723695367 17.10277838498718 0.2690047842962814
0.8145460340739765 12.990645431923502 8968.833617850327 17.899620419018294 0.27282712454936653
0.8384186515369765 12.994099440970091 7817.526604458985 18.731044183584824 0.2767119192570422
0.862590288131619 12.998355706969143 6823.997040564022 19.59824893411268 0.2806583619905534
0.8870548288175192 13.00328907369243 5963.99748847003 20.50338666355927 0.2846734354734832
0.9118053001536787 13.0087825671362 5218.517598456803 21.44824851122264 0.288760147117547
0.9368144669357801 13.014672307125922 4571.900294877894 22.434409415972723 0.29291916026490133
0.9620825315762275 13.02086872324132 4010.531828297176 23.463709535239857 0.29715280148568174
0.9875967425499431 13.027255464087931 3521.9578847118505 24.538655511265155 0.3014678824793339
1.013333405219912 13.033725649609543 3096.9311027318645 25.661296646618606 0.30586684280895815
1.0392804337138597 13.040168834156209 2725.6825968037333 26.833375057474974 0.31034933395286873
1.0654260153880453 13.046499884215107 2402.018866688008 28.058086973675962 0.3149248667820925
1.0917437372829177 13.052632886754347 2119.078870746239 29.3376122262745 0.31959476069242354
1.118232722836268 13.058465342861702 1871.6524461224112 30.674449687068506 0.32436195690381375
1.1448543578265604 13.063927722787895 1654.7319471984547 32.072221160991404 0.3292360372543805
1.1716082209698029 13.068937710970715 1464.5631308327272 33.532695822348536 0.33421359267568174
1.1984541632321382 13.07340136527686 1291.7116468146826 35.060430747019055 0.3393083380503416
1.2253896221301852 13.077285670481558 1150.9914148856642 36.65764929465039 0.3445182858686698
1.2523770829340057 13.080456219553792 1021.9271600436949 38.329076717591334 0.3498559137448618
1.2794111072763714 13.082905400926249 908.3255016740487 40.077263369951154 0.3553196803070752
1.3064463314842276 13.084509316793811 808.1949694589384 41.90753221439994 0.360923283351774
1.3334743402987719 13.085230284071844 719.9123062894342 43.823140695007815 0.36666744348832336
1.3604754689499328 13.085041667727147 641.8507308074384 45.82917412039948 0.3725621472824778
1.3874000038001792 13.083806480163627 572.8467604176486 47.93075564514176 0.3786162169120226
1.4142486421973817 13.081531578982037 511.7776059797679 50.13239132766168 0.384834061698907
1.4409738736808777 13.07811805184711 457.7337474213162 52.43975739696037 0.3912250559563271
1.4675567585554459 13.07352384125902 409.80075122391804 54.85902620571421 0.3977996646818479
1.4939609855754157 13.067684234021428 367.23708389784343 57.396372629447384 0.40456692375685266
1.5201683987617713 13.06056485741514 329.4730914270766 60.05840831078004 0.4115365770859649
1.5461484352557573 13.052106509604789 295.8712118669257 62.852220964779136 0.41871913485927464
1.571861830547531 13.042256221766845 266.00323807481084 65.7854174454653 0.4261259365660549
1.5972779225394278 13.030953362845588 239.3693964448882 68.86617095499709 0.43376921931610496
1.6223698429115898 13.018173817816692 215.65728103039848 72.1032728244746 0.4416621920929594
1.6471223290861836 13.003864504117407 194.48873066513903 75.5061893490551 0.4498191166385951
1.6714753384949679 12.987972830881262 175.58479351614343 79.0851242210102 0.45825539575317703
1.6954102842388725 12.97046359495389 158.69517901170687 82.84972644398985 0.46698208426863275
1.7188747821774122 12.951251069518696 143.57624501113975 86.81286280004173 0.47602138377501113
1.7418904620483044 12.930414086579994 130.0485638460513 90.98653556106393 0.48538941621954934
1.7643697922363508 12.907801298791725 117.92165895924602 95.38400908147693 0.4951048989685397
1.7862984739086363 12.883400323575977 107.0466281341139 100.01972837464915 0.5051885072286243
1.8076415788316578 12.857184979667204 97.28520567759972 104.90977127626398 0.515664280082697
1.8283701713334783 12.82913397901472 88.51364959358646 110.07027490969591 0.5265533624620263
1.848448266726616 12.799191825996939 80.62666335734373 115.51941010651537 0.5378812848930289
1.867845703980982 12.76734123872331 73.53492949417978 121.27719024708657 0.549676763345165
1.8865259187823444 12.73354967031842 67.1444405792115 127.36486990476057 0.5619691204692833
1.9044603916895686 12.69778646228075 61.382318180214185 133.8053399862011 0.5747893947938195
1.9215984854735022 12.65997325875762 56.18696930040702 140.6231693735495 0.5881700972308793
1.9379396614916913 12.620244107133171 51.50201242726287 147.61052749617127 0.6016532414211877
1.9518604732765548 12.57930091848228 47.546202393776 155.752675587965 0.8206599372149953
1.9619130791940644 12.535405330398188 44.37880754695889 164.56891509563522 1.0250343901215562
1.9682726344093624 12.486985417271635 41.780399708830544 174.36045795995093 1.230391660988288
1.9712714402425795 12.433506384256132 39.622665670908304 185.19431286446328 1.4374981824290276
1.9713420557208245 12.374868722110268 37.7921318519161 197.14483130279825 1.6471099462566872
