M[M_sun], R[km], Lambda[1], P_c[MeV/fm^3], rho_c[fm^-3]
0.24162668629717493 15.618656898711224 2160425.4255784233 3.5677272577965504 0.1711233750220791
0.2536281315558924 15.277713954522723 1723625.9865498669 3.7845356158668206 0.17388463325307882
0.26600690026512175 14.981994620514318 1383818.497422379 4.010804513458122 0.17665944707959938
0.27876529797836225 14.724441463752148 1117310.098280398 4.246798870860549 0.17944673523157284
0.29189933675692004 14.499489265297306 906875.7012246567 4.493139628769667 0.18225298672420243
0.3054162071582658 14.302439340186128 739597.9230729204 4.749962549727641 0.1850735192653578
0.31931193385934226 14.129405490947944 605968.6676513292 5.017982096192974 0.18791565931751678
0.333588094198147 13.97725859205451 498585.7837561473 5.297378152331303 0.19077516689333987
0.34824730281964733 13.84332423352647 411808.3637761344 5.58892975410679 0.19365936128299663
0.3632864589791009 13.72526978187386 341389.601703675 5.892740285597835 0.1965621267906831
0.3787134294328767 13.621300890287888 283969.066929654 6.20969960892521 0.1994916889822805
0.394521398629355 13.52966060219146 236999.29678274578 6.540113912606411 0.20244509684598375
0.41071975003044026 13.449052764634216 198409.66422533442 6.884587410607357 0.20542440591158184
0.4272994656096809 13.37817119175227 166576.54219967316 7.243866976589097 0.20843346976960092
0.44426663909613484 13.31597591828107 140230.7594895924 7.618281099427269 0.21146895331735774
0.46161787406786764 13.26156515888797 118362.82620743068 8.008638975557146 0.21453486595907958
0.4793518227050156 13.214073216757168 100157.13126967133 8.415706765266195 0.21763387937138523
0.49747760045540695 13.172830059532673 84949.41325619657 8.840019117050955 0.2207648288187564
0.5159809379143023 13.137166685641786 72209.59807612204 9.28226066977008 0.22392846890874113
0.5348682000687374 13.106535942240805 61518.79484363208 9.743400148266172 0.22712898970982653
0.5541402421749071 13.080437080986021 52514.701679020705 10.224242814600979 0.23036773522349555
0.5737847326759435 13.058380331806937 44918.409177941285 10.725392814905637 0.23364311365607832
0.5938110464078437 13.040007618137501 38158.04465177643 11.247827034883759 0.23695796763652743
0.6142072692088351 13.024913398247 33050.73300712521 11.792603767039523 0.24031552279236493
0.6349705810666764 13.012761089826448 28424.71460958029 12.360696432645708 0.24371740205664352
0.6561001685870977 13.003269244708774 24490.7392838219 12.952975116660353 0.2471636237904836
0.6775972977175106 12.996178939186729 21133.432230438026 13.57040113989641 0.2506549100171307
0.6994446318045341 12.991198231824379 18264.470709036337 14.214338110331493 0.2541958594478198
0.7216371552395074 12.988080170152093 15812.248959467062 14.885968428843414 0.25778844278014035
0.7441841627396102 12.986679696795935 13706.854642250379 15.58653539436494 0.2614347362334026
0.7670616832405492 12.98673330079917 11901.354651197913 16.31689659556744 0.2651325820022281
0.790268471869294 12.988068285677256 10346.77960959257 17.078814396506186 0.26888825553518564
0.8137889381961821 12.990530470410574 9008.253266038357 17.873758616492673 0.27270441214558994
0.837633463663773 12.993967177955797 7853.009274108406 18.703252127527985 0.27658360068642734
0.861771824102791 12.998208431418961 6854.932969449409 19.568461796573484 0.28052472589017957
0.8862004340888529 13.003120714929429 5991.817207546431 20.471314258768654 0.2845328892227858
0.9109159331789146 13.008577260963278 5243.2215420680395 21.413737936166502 0.2886123828289701
0.9358953283044065 13.014449763374703 4594.241927904012 22.397604306134703 0.29276629279228594
0.9611251809017721 13.02062776928092 4030.2280684623374 23.424148676417044 0.29699213308332584
0.9866059071694897 13.02701052550734 3539.579644866416 24.496153030833334 0.30129904030145316
1.012305220136378 13.033462730475838 3112.6228661205923 25.615834284902274 0.3056907566633082
1.038219395163868 13.039899797157002 2740.156003963494 26.78476533573674 0.3101656951772722
1.064333824606739 13.046242944148915 2414.629105137201 28.005920156485224 0.31473187904143335
1.090618820694755 13.052364217870537 2130.55220587173 29.28207299308781 0.31939485355421443
1.1170746142865793 13.058223276663103 1881.6811317120168 30.614876020309097 0.3241518069340426
1.1436645042428992 13.063691613130164 1663.8638049391227 32.00833408816934 0.3290150909038787
1.1703850636838353 13.068720953207054 1472.7962428145327 33.464699088435566 0.33398443667163835
1.1971984264196718 13.073207315856099 1305.0431006502959 34.98753087586658 0.33906727793964014
1.2241075369194945 13.077112726340188 1157.5519914683337 36.580057551891386 0.34426798691747285
1.2510639872832892 13.080307313660034 1027.9178208870687 38.245901937883275 0.34959243427647124
1.278069546294806 13.082800220762302 913.6935229059462 39.988722064176784 0.35504576308674846
1.3050796808305545 13.0844471411817 812.9821567749993 41.81300166561433 0.36063683918165296
1.3320882777558125 13.085245120995811 724.1804203390858 43.72208064744796 0.36636704076256754
1.3590581120704424 13.085076112607954 645.7140126980537 45.721538627608375 0.37224915789061774
1.385965808146942 13.083911088167953 576.2989668343062 47.815753182922215 0.3782880891906496
1.4127865478759147 13.081689432257907 514.9117742277983 50.0094322241002 0.3844895167403544
1.4394936475846627 13.078339651319586 460.5676287679883 52.308703886902535 0.3908652321192153
1.4660534814012909 13.073804596035423 412.35679267859655 54.71929911898478 0.3974235444937409
1.4924472752980045 13.06806061782429 369.5832263650973 57.247345937355554 0.40417341118324235
1.51864222038071 13.06102733891245 331.5815887326003 59.89940493624003 0.4111244910884998
1.5446040721389762 13.052650684018422 297.7878565181826 62.68250817490668 0.4182872023162842
1.5703098281280443 13.04288815252226 267.69690118873035 65.60420178021526 0.4256727844870508
1.5957285282375897 13.031693127729135 240.91883795092716 68.67259263976261 0.4332933662739115
1.6208211470898823 13.019020374891626 217.04359758126424 71.8963996081719 0.44116203878802773
1.6455623871308676 13.004818519113153 195.7579488120232 75.2850097019816 0.4492929354997922
1.6699099845692 12.989028727100203 176.7406708898894 78.84853981854143 0.45770131946768067
1.6938574154112 12.971660110903487 159.73031936160643 82.59774964698175 0.4664030423229837
1.7173468558460365 12.952612907708836 144.52275477000205 86.54304733989954 0.47541038450952117
1.7403555976642293 12.931874537626774 130.90786626157916 90.69836160512965 0.48474762516485354
1.7628324928080297 12.90936694488533 118.70913683416336 95.07552587307478 0.4944280179283521
1.7847946299182145 12.885154572466671 107.76395722636926 99.69026009809954 0.5044775289814069
1.806152382951146 12.859074947295143 97.93948127544532 104.55666756438745 0.5149128956041144
1.826911451630659 12.831197641252697 89.10509332772725 109.69208204901882 0.5257602321155049
1.8470082713520348 12.801394582746797 81.17138159692598 115.1145901759644 0.5370450666091291
1.866445224249582 12.769743000210138 74.02949586165506 120.84352208770991 0.548793973894325
1.8851508537056914 12.736096427849388 67.59781474637967 126.89992456446562 0.5610359788811752
1.9031366285118867 12.70055033644494 61.796953782671345 133.30673517490882 0.5738027675347191
1.9203346430539803 12.662985367156848 56.567295470356235 140.08897569647058 0.5871289222894083
1.9367202849365621 12.623390694217836 51.84131697493736 147.27252999106258 0.6010472204621505
1.9522860583916952 12.581808959583473 47.57605999285867 154.88795827189162 0.6156014030516104
1.9669655517809685 12.538123162322092 43.7172271447398 162.96620275046672 0.6308306684371542
1.9807541398077966 12.492384139903214 40.223815916808434 171.54285401225556 0.64678374172363
1.9936430554739897 12.444645111807352 37.061806448969236 180.65542399321458 0.6635088386996537
2.0055504836530065 12.394723989840877 34.19607993854504 190.34514597327234 0.6810590217744595
2.0164899380609707 12.342741888018235 31.5979508901118 200.6573814913944 0.6994926448065564
2.026426940985826 12.28866591688792 29.238601026153297 211.64207762977907 0.7188738578666962
2.0353402723385576 12.232502057090775 27.0955390505474 223.35428175125324 0.7392731794821531
2.043203118134568 12.174244303496483 25.149928728114414 235.85268144559302 0.7607614998924767
2.049984233677521 12.113881940016284 23.37847924266471 249.20436216563488 0.7834242185840369
2.0556721689478032 12.051429210216924 21.769980671125715 263.4814333905589 0.8073486142816761
2.0602372794593578 11.986896169817292 20.305253463352134 278.763853792188 0.8326312357262068
2.0636867419329277 11.920350338473781 18.970765249997775 295.14036561033845 0.8593788553853786
2.065977071080131 11.851765852124908 17.754929133381335 312.70955745630624 0.887709562025565
2.0671130637680015 11.781212053168364 16.650821539800617 331.57871201466276 0.9177461918755601
