M[M_sun], R[km], Lambda[1], P_c[MeV/fm^3], rho_c[fm^-3]
0.24162668629717493 15.618656898711224 2160425.4255784233 3.5677272577965504 0.1711233750220791
0.2536442429311403 15.27729000884363 1723100.269680886 3.7848542851877967 0.17388860531243364
0.2660432779707838 14.981198523220838 1382946.9279933893 4.011474389408297 0.17666754213512353
0.2788209588959995 14.723387030222524 1116339.0696003393 4.247842584930362 0.17945884074193913
0.29197786326127445 14.498261189330002 905742.0220093348 4.4945845362748 0.18226907610461762
0.30551514070630786 14.3011071038706 738516.3116100375 4.751857674237918 0.18509399022696832
0.3194342919554519 14.127993617210208 604991.2546380655 5.020341363409489 0.18794013762548162
0.333735254932936 13.975775253978819 497587.08898124244 5.300263630709242 0.19080421887273127
0.3484185657844715 13.841879370736455 410914.81971913273 5.592348612748949 0.19369243968085514
0.3634832195122087 13.723847751221365 335646.42958395043 5.896769280757644 0.19659996796585033
0.3789396354284486 13.619867460636243 283225.0407276306 6.214387445674479 0.19953443640891094
0.3947747683859055 13.528332574890914 233213.90016179727 6.545455688735352 0.20249193700624848
0.41100359004769954 13.447753691656265 197807.80960517938 6.890686178386062 0.20547634557723388
0.4276138499049367 13.376951462768215 166027.95513585306 7.250779903869042 0.20849065864535643
0.4446127924829148 13.31480773727247 139753.03613247274 7.6259890473530705 0.21153031353904136
0.46199594550576756 13.26045609035269 117928.5537363549 8.01727629582755 0.21460168261434467
0.47976625610925216 13.213054545538391 99768.47617265636 8.425340735449826 0.2177063133591228
0.49792674830984396 13.171893127672675 84608.49811844331 8.85061418876024 0.22084154166485748
0.5164698639400734 13.136311397732374 71910.23413092483 9.2939881810818 0.22401103131950073
0.5353914672609729 13.105770189723911 61250.032450371335 9.756339524583415 0.22721757952930538
0.5547024391262506 13.07975004186086 52281.28598216008 10.238470713223917 0.23046244043112424
0.5743884451907696 13.057780348795058 44708.02768407464 10.740862550145042 0.23374243414823953
0.5944492423943519 13.039480913260883 38307.09462251797 11.264763481201774 0.2370637868596094
0.6148896816719841 13.024466211314033 32885.75572646124 11.811106860690465 0.24042805247349275
0.6356986866322908 13.012398400140942 28276.898472714667 12.380872339712239 0.24383686509949665
0.6568724390050225 13.003006757946107 24358.10828997268 12.974731193905182 0.2472879726065157
0.6784099160629208 12.995953986201613 21016.185841001927 13.594046075508324 0.25078655868376054
0.700303263116989 12.991033701373109 18161.930661728184 14.23999853409061 0.2543350684990704
0.7225415674090211 12.987995404792683 15720.611264889638 14.913779100463131 0.2579354882843058
0.7451341063132785 12.986637405055681 13625.89556704887 15.6163929640813 0.2615874653754684
0.7680588281528067 12.986760992605936 11828.685612191144 16.349155959167962 0.2652933868388489
0.7913096282667075 12.988143268162595 10283.535311260011 17.113661636227565 0.2690577058616853
0.8148871420965166 12.990688545974923 8950.321338777001 17.911366151439996 0.2728828572098474
0.8387759050961696 12.994155447534204 7753.110386103326 18.74360030290502 0.27676960812860785
0.8629610826407608 12.998428221350274 6809.487168234003 19.611778682968886 0.2807190614409051
0.8874473765903007 13.003385628724148 5951.442089539444 20.51795515137471 0.2847372768459702
0.9122071825082835 13.008874721559009 5207.51605441787 21.4639253055831 0.2888272706112028
0.9372322685192649 13.014770478593036 4562.387269816921 22.451129217603444 0.2929886048020639
0.9625204446821477 13.020985521049159 4001.6192618933815 23.481682141291337 0.2972257935790384
0.9880454745979006 13.027370148612711 3513.8722574688272 24.557965504978903 0.30154459191747424
1.013793947380806 13.033823517144826 3089.770775451297 25.6818692876963 0.30594623659294395
1.0397619800265268 13.040288516899125 2719.3781560956563 26.855461819277988 0.3104327737618074
1.0659186874784106 13.046609983789638 2396.482869876056 28.0817912281346 0.31501255912673487
1.0922553892053766 13.052741767707206 2113.9925260449254 29.36284996913726 0.3196856010706764
1.1187577320286222 13.058573042693952 1866.8813712958663 30.701522191217364 0.3244574569164534
1.145395694673766 13.064029245677366 1650.695434296226 32.10107811879413 0.32933530230155916
1.1721624857535167 13.069032464623868 1460.9722756289532 33.563599144107364 0.3343177400562748
1.1990216466481016 13.073490154760265 1294.4320692516148 35.093564308520115 0.3394179017556968
1.225972595556462 13.077357244574507 1148.135074123354 36.69291695567063 0.34463205388380447
1.2529722209589196 13.08051763045541 1019.3601157997659 38.36678895604992 0.3499751209126396
1.2800189738855594 13.082945795052451 905.9575217241169 40.11751211042831 0.3554441964638761
1.3070727477103106 13.084555258497717 806.0706587493254 41.95038856900195 0.36105284460444514
1.3341069096006362 13.085237176572988 717.9363282143801 43.869085078448094 0.36680401395659323
1.361117855541484 13.085027896098621 640.0358569692587 45.878110276620475 0.3727044469772941
1.3880586505946022 13.083778944161011 571.254048309279 47.982892561752195 0.37876461540685874
1.4149056399278608 13.081449611181215 510.3473905633882 50.188300606721896 0.3849907256601636
1.4416392332889523 13.077999896343796 456.461139095923 52.49935029679694 0.3913886757317483
1.4682351202524826 13.073391089297843 408.63880724392584 54.922566553287986 0.39797070387003425
1.4946467271996629 13.067516365038568 366.1895504192766 57.46414561989688 0.4047458817912739
1.5208602881086404 13.060359485117605 328.54337190551155 60.13072242035891 0.41172399217739186
1.546845843491855 13.05185781842694 295.02758948564343 62.929410054648066 0.4189155872297958
1.5725636920347488 13.041964608198167 265.21304228212165 65.8678430775892 0.42633205200595703
1.5979771367382514 13.030616096984854 238.6663305146199 68.9542249439852 0.433985673098578
1.6230859521466647 13.01779813930878 215.01998473246016 72.19738005212864 0.4418897132857476
1.6478287877255688 13.003430430251226 193.9021601604742 75.60681087171426 0.4500584928564407
1.6721767007185395 12.987481715628922 175.07300689155363 79.19229324931783 0.45850552652247417
1.6885983157225772 12.969833889237265 162.63495512189084 83.59481235971911 1.3217012037394131
