M[M_sun], R[km], Lambda[1], P_c[MeV/fm^3], rho_c[fm^-3]
0.24162668629717493 15.618656898711224 2160425.4255784233 3.5677272577965504 0.1711233750220791
0.25364114309020114 15.27738851738542 1723164.376630751 3.784783906495031 0.1738877280759801
0.2660371342420183 14.981283396236908 1353459.9381352342 4.011326439214333 0.1766657542443437
0.27880825602304987 14.723648438499257 1116575.6932456712 4.247612057710298 0.1794561669735835
0.2919608721052616 14.498535177604534 906002.1379171397 4.494265382675094 0.1822655222552132
0.3054935030885317 14.301374957713822 738746.8267899085 4.751439057354723 0.18508946836568746
0.3194067809439823 14.128321975203455 605212.464174305 5.019820199463305 0.18793473034838915
0.33370043696210433 13.976222635985138 497818.7061349954 5.299626198711727 0.19079780099020724
0.34838141437336967 13.84217548394944 411108.89189414197 5.591593321046746 0.19368513202586274
0.36343879552658276 13.724182760711162 340742.30568321806 5.895879160492584 0.19659160776795134
0.37889115052281225 13.620154355602596 283386.9330300873 6.213351724966664 0.1995249918831446
0.394718839460608 13.528655407681958 236486.30761986066 6.54427544278515 0.2024815878436994
0.4109408819384772 13.448046325411118 197939.385710504 6.889338622420368 0.20546486922515012
0.4275452268960548 13.377197746622794 166139.12046856247 7.249252392425303 0.20847802193465004
0.4445374205883896 13.315053127453602 139863.65978575518 7.6242858021815945 0.21151675461229336
0.46191393546120013 13.260698540196241 118026.58209334013 8.015367608040563 0.21458691737120456
0.4796747202894 13.213280733583765 99858.56911771785 8.423211721214905 0.21769030614838353
0.49782743778741484 13.172131785737406 84685.3152264109 8.848272697971732 0.22082458827110663
0.5163618989796509 13.136498731121344 71970.61692172191 9.291396320852005 0.22399278446189932
0.535275064842711 13.105936972916567 61307.92219527549 9.753479721232141 0.22719799980178043
0.5545784756857376 13.079902897197245 52331.683480891516 10.235331915531486 0.2304415843098204
0.5742560477409402 13.057908593917345 44756.34704478496 10.737443248463482 0.2337204811722768
0.5943070894253947 13.039614010879228 38347.6813081824 11.261019844146738 0.23704039654754355
0.6147392860360016 13.024555002727187 32921.1315893218 11.80701677240699 0.2404031779125676
0.635536154635764 13.012492863224162 28309.668106846315 12.376412304583337 0.2438104569005506
0.6567019333659887 13.00307066944888 24385.84413422124 12.9699216931333 0.24726048347233223
0.6782301935987955 12.996004254455707 21041.526660444346 13.588818812645565 0.2507574546846082
0.7001132636346511 12.991070333360787 18184.85500640789 14.23432548110344 0.2543042919097416
0.7223417217856816 12.988014304918247 15739.521008669073 14.907630428451203 0.25790297793761924
0.7449244761277535 12.986649811842629 13643.953399998076 15.609796920325032 0.26155375077511506
0.7678386267497008 12.986753962253466 11843.82991977173 16.342023218900227 0.2652578319175673
0.7910783513046578 12.98812149640699 10296.511935908644 17.105956401308372 0.2690202379134847
0.8146454519354384 12.990656644934326 8962.998678601114 17.903050250340407 0.27284339885374526
0.8385218949714728 12.99411826253017 7812.946590075153 18.734710620042932 0.276728764635502
0.8626989026615676 12.998368959382644 6819.871330340471 19.60219963026916 0.2806760862726338
0.8871692030853272 13.003319928740941 5960.458666103212 20.50764062461908 0.2846920769904344
0.911922222539395 13.008808032456498 5215.412176270058 21.452826043425947 0.28877974678484775
0.9369362685827001 13.014700477134935 4569.070800988931 22.439291455623 0.29293943747819673
0.9622086381984825 13.020898829668106 4008.0490672334927 23.46895732343341 0.2971741143128056
0.9877276010337633 13.027292501271724 3519.597385286437 24.544293736215113 0.30149028047046905
1.0134649553438089 13.033747039337062 3094.6015768105967 25.66730348970324 0.3058900243732744
1.039421906604554 13.040206265584152 2723.9058513118102 26.839823921769355 0.31037369660092884
1.065570759381835 13.046534812915308 2400.298995727027 28.065008030195667 0.314950470779665
1.0918942401092795 13.05265422529002 2117.6721318736136 29.344980953472145 0.3196212835859135
1.1183863919006354 13.058496916252423 1870.3437074319863 30.682354019709294 0.32438983994939213
1.1450118682534633 13.063952628902364 1653.666125010746 32.08067335240901 0.32926519353404854
1.1717692356403293 13.068969294376439 1463.5342592599393 33.54171843749572 0.33424399981899827
1.1986198014627953 13.073433147968766 1296.7204272090685 35.07010438940938 0.33934032616319604
1.2255610530601684 13.0772992780772 1150.1557226634673 36.66794590290735 0.344551501133026
1.2525511755077932 13.08047437991583 1021.1693120920535 38.34011469985155 0.34989087965289584
1.2795877695597355 13.082915914474711 907.6379415471254 40.089013964128284 0.3553560327198394
1.3066272195574722 13.08451232745307 807.5928689667503 41.92004396794082 0.36096110827825045
1.3336593034376694 13.085233876761075 719.3029699886305 43.83655381056014 0.36670731420449737
1.3606637748393295 13.085036257335291 641.2932032058507 45.84346050558225 0.37260369014993056
1.3875906655927888 13.083794162384562 572.3946728660476 47.94597628885916 0.378659539777373
1.4144423405322912 13.081512577991102 511.35399160879774 50.14871303513597 0.3848797969219393
1.441170604538992 13.078088866012846 457.35863593701896 52.45715427047981 0.3912728212529663
1.4677543132241577 13.07348569783051 409.4461911638425 54.87757523384886 0.39784959532961645
1.494159583413494 13.067633535938509 366.916878024116 57.416157034834704 0.40461916548732413
1.5203708734118417 13.060502579247412 329.19835542834676 60.07951810806822 0.4115912869428906
1.5463522605623599 13.052033721169146 295.61629446588006 62.87475357422151 0.41877648214172736
1.572067207563443 13.042169188423165 265.76048681356264 65.80947836836025 0.42618610386570616
1.5974892016077336 13.030861618368638 239.19252476352733 68.89187451792455 0.43383240365883174
1.6225761996661467 13.01806029564177 215.47882896105654 72.13074300012822 0.4417286061961757
1.6473288005097222 13.003739003880463 194.31894155099556 75.53556066244326 0.4498889902970949
1.6716770245738835 12.987830215322216 175.4363399438489 79.11644733619457 0.4583285788748912
1.695616106470299 12.970302962938467 158.54505829401012 82.88319051686477 0.46705898461063616
1.7190792637232581 12.951079040741234 143.4459196584144 86.84869782505356 0.47610253247549517
1.7420859718257515 12.930201238727124 129.9355129543288 91.02475645854341 0.48547444364783454
1.76457081840398 12.907586550721234 117.81076898162988 95.42498379385773 0.49519480663671184
1.786497297983948 12.883166260195123 106.94427739929006 100.06349257197374 0.5052829484677949
1.8078381839754039 12.856937181132118 97.19629335931005 104.9565517528582 0.5157636185228006
1.8285623809845204 12.82885453748067 88.43543422010939 110.12051681389488 0.5266587276950344
1.8486378191646473 12.798896974550594 80.55690226076949 115.57319220349217 0.537992380146608
1.8680297003427004 12.767021641629055 73.46606615059862 121.33480812007996 0.5497940522199847
1.8867064357734056 12.733205727128126 67.08421099781674 127.42664681809192 0.5620931062414126
1.9046357418284092 12.697420904132885 61.326793935326634 133.87140277090907 0.5749198232431457
1.9217702198923368 12.659593061887483 56.13737513854138 140.69412399114034 0.5883083438086236
1.9381148335732297 12.61981615247771 51.45182196400217 147.9227320415212 0.6022979164557768
1.9536119482793075 12.577969201577345 47.21999713041813 155.5860133500502 0.6169254011869718
1.968241444379113 12.53409160692544 43.38877902646992 163.71705084875092 0.6322365819675565
1.9819705460123798 12.488137460932865 39.92425417164861 172.34973090641404 0.6482735516865992
1.994767258773388 12.440092576756633 36.78594716561285 181.52343408874296 0.6650899311243001
2.006611732384987 12.38996116071347 33.94324096382158 191.27991232961443 0.682739462464092
2.0174780957474705 12.337743979006113 31.363718015643585 201.66510612927087 0.7012812566349483
2.0273289786340793 12.283404706494917 29.02462940696455 212.72925726177215 0.7207791529125286
2.0361540731003953 12.226978466456469 26.900224709568956 224.5269538945551 0.7413007634597276
2.0439135333850356 12.168430704629577 24.97011523882595 237.12003287660565 0.7629256847259309
2.0505900231845637 12.107769169668325 23.213218946036715 250.5744790516506 0.7857339259541435
2.0561738868210853 12.045045745131482 21.616843398751456 264.96383615870866 0.8098154186136629
2.060644494923042 11.98026733835927 20.163495805819597 280.36978509944845 0.8352700318421384
2.0639752801186004 11.913427966544813 18.84153139513647 296.88129494734727 0.8622026722957711
2.066148488601307 11.844560584726464 17.63650540776922 314.598576223112 0.8907337505326741
2.0671618100365814 11.77371997051776 16.54098864241769 333.63137314399376 0.9209907867331244
