M[M_sun], R[km], Lambda[1], P_c[MeV/fm^3], rho_c[fm^-3]
0.24162668629717493 15.618656898711224 2160425.4255784233 3.5677272577965504 0.1711233750220791
0.2536441003030715 15.277265103267023 1723207.3869136823 3.7848217541867175 0.17388819982919865
0.2660400557829533 14.981264920808009 1383012.2891527077 4.011406002203653 0.17666671571611478
0.2788154303128403 14.723499824417619 1116422.0700816098 4.247736027312704 0.17945760483415318
0.29196987734797886 14.49840913675447 905852.2140013967 4.494437011508082 0.1822674333821015
0.30550533967941296 14.30122321246068 738634.5255022019 4.751664172499938 0.1850919000388945
0.3194215352065144 14.128142355807876 605107.1853580876 5.020100458708574 0.18793763814622894
0.33371981325977507 13.97595065381236 497666.6347631709 5.299968979900108 0.1908012522279974
0.3484010708329898 13.842027057084413 411006.5706902393 5.5919994795365335 0.1936890617209818
0.36346214946856364 13.724004800948665 340629.6358442447 5.896357820455229 0.19659610344361575
0.37891702272658356 13.619999891999974 283308.3566345254 6.21390867814054 0.19953007062547506
0.39475070765249975 13.528434067853038 233304.26713056373 6.544910110431219 0.20248715302156142
0.4109745573864759 13.447867257940985 197864.8731303899 6.890063255754406 0.20547104050670337
0.4275827550960937 13.37705249220052 166077.28857409398 7.2500737904240715 0.20848481714978756
0.44457742895062013 13.314935939768736 139798.08547621148 7.6252016941457725 0.21152404570124483
0.46195904862329285 13.260569412603552 117979.47599684341 8.016393967964186 0.21459485709499013
0.47972391285631305 13.213150495537647 99810.76795564959 8.424356551410664 0.21769891367101238
0.4978815258883335 13.171979682420616 84641.82129597486 8.849531776912697 0.22083370454060225
0.5164192490400427 13.136408184758297 71939.92796180779 9.29279002256536 0.22400259620884852
0.5353385370927212 13.105854935220027 61276.2173866389 9.755017494062946 0.2272085282085707
0.5546442979638649 13.079828176621897 52300.51737852494 10.237023781887373 0.23045285147975142
0.574327521716567 13.057850116158367 44730.213956817184 10.739281857010022 0.23373228560867523
0.5943845291068954 13.039516810502372 38328.61558858839 11.263032842292448 0.2370529737963858
0.6148206662014265 13.024503560294885 32901.530858797065 11.809216050281869 0.24041655319146096
0.6356248460665107 13.012435358225552 28292.01425524132 12.378810494039836 0.24382465675827528
0.6567949841793387 13.003023672304103 24370.656305154884 12.97250778141825 0.2472752644924936
0.6783293285610642 12.995964727413272 21028.28113855832 13.59162951906214 0.2507731039449024
0.7002153722199109 12.991063586988664 18172.356813402173 14.23737587399493 0.2543208404400524
0.7224491812956042 12.988005923819342 15729.736238270027 14.91093654423837 0.25792045861803575
0.7450378236221232 12.986650447393952 13537.86768241418 15.613343571149539 0.2615718789015435
0.7679568778820631 12.986758243632844 11836.215693360135 16.345858428527453 0.2652769494756552
0.7912019521028779 12.988142327515481 10289.120285527355 17.11009941497596 0.26904038398600805
0.8147770692240747 12.990667509277815 8956.35939234784 17.907521589101467 0.27286461503645043
0.8386581916616057 12.994129437193878 7807.190897590168 18.73949045289416 0.27675072549430146
0.8628398722571552 12.99839940258928 6814.618542594665 19.607350099179037 0.28069919317840164
0.8873199646633757 13.003361235185688 5955.319017003785 20.513186514828384 0.28471637994123544
0.9120758269814883 13.008854893643594 5180.440433557325 21.45879383724818 0.28880529914979913
0.9370965317167459 13.014734235423857 4565.372437014365 22.4456562953457 0.29296587339881464
0.9623794537493697 13.020949813509015 4004.53363779621 23.475799072791013 0.2972019006898286
0.9878992346103684 13.027334210942795 3516.54321076681 24.551644593471163 0.30151948193673156
1.013641968823902 13.033786592424764 3091.806082468253 25.67513500328224 0.30592024769244014
1.039605433843837 13.040246350368315 2721.433542861482 26.848231820106694 0.3104054601268409
1.0657571710179299 13.046567200341853 2398.3420736447456 28.074031663754536 0.3149838531239758
1.0920884093635363 13.05270561285602 2115.8140313771028 29.354588344240128 0.31965586429371023
1.1185873779952447 13.058535382429532 1868.6139047692488 30.692659853032634 0.32442619444424153
1.1452169654459665 13.063990949590501 1652.1144141423997 32.09164399600703 0.3293028875848864
1.171980664791012 13.0690074478393 1462.1057123569408 33.55348255556039 0.3342836461098076
1.1988355319915494 13.073463585825305 1295.4197367225174 35.082717495930275 0.3393820342870397
1.225781551457581 13.077330943226052 1149.0636722364416 36.681371400235015 0.3445948097091827
1.2527770702123318 13.080497034367388 1020.1428749769693 38.35449779428035 0.3499364172225385
1.279819139683421 13.0829394556698 906.6844597544344 40.10433561350359 0.35540343278437425
1.3068629516034649 13.08452271591795 806.7527600072525 41.93635825964534 0.36101042885367757
1.3339003273907732 13.085236813140883 718.5946377680211 43.85404362246236 0.36675930297053544
1.3609077403997314 13.085037249427907 640.6129699931377 45.86208919612014 0.3726578598514984
1.3878390460660806 13.083775889146624 571.7956341173516 47.96582341255981 0.37871603109821594
1.4146958116136374 13.08148535012166 510.8173596150286 50.16999618124726 0.3849394346427943
1.4414187358098816 13.078033234363405 456.86697605140773 52.47983965802545 0.3913351068276864
1.4680131895027924 13.073438180091841 409.0125562480549 54.90176329257626 0.39791470523358313
1.494422318279212 13.067571036765361 366.5353304824388 57.441956328516845 0.40468728983680596
1.5206340889208345 13.060426408265707 328.8362387853916 60.107046062673454 0.41166263061508934
1.5466176964127216 13.051939503478167 295.28856669466853 62.90413727873297 0.4188512660058171
1.5723336641073071 13.042058871869848 265.46170081892217 65.84085545633297 0.4262645661367704
1.597758029707041 13.03073285515238 238.91798614047406 68.92539413885403 0.43391480138800476
1.6228447057289652 13.017912850063087 215.2366552221724 72.16656689081877 0.44181521691188175
1.647596873948708 13.003574341086255 194.1012391211874 75.57386432982891 0.44998011381407294
1.6719450069850872 12.987639891025681 175.22745923215695 79.15722140394985 0.4584237043084786
1.6958823514628962 12.97009354725284 158.3611970230714 82.92683271242316 0.4671592742489226
1.7193633475589747 12.950883813568911 143.27907732207737 86.89543275682826 0.47620836410194095
1.7423461576516797 12.929942769343368 129.78045263072246 91.07460358147966 0.4855853351483013
1.7648295989662675 12.907297708011136 117.67884171561248 95.47842319142036 0.4953120646074019
1.7867553069823314 12.882860711623122 106.81867811862257 100.12057077191436 0.5054061207469991
1.8080934775631639 12.856609440583592 97.08251171253778 105.01756467033715 0.5158931795809553
1.8288045379387807 12.828474624157328 88.33044824635056 110.18594459057967 0.5267957765011887
1.8488847202178949 12.798511705889082 80.46621987046522 115.64333903396856 0.5381372792925619
1.8682617706674232 12.76657297789601 73.38631473760621 121.40995898387966 0.5499470318389617
1.8869411741170354 12.732756086321046 67.00871817023447 127.50722354175817 0.5622548230828778
1.9048636673235368 12.696943728055285 61.255740343089435 133.95757082573425 0.5750899457383142
1.9220068078191215 12.659128356475346 56.074882930396285 140.78667415089905 0.5884886667148805
1.9383208103213416 12.619243394238508 51.39161893764732 148.02221840070257 0.6024892834174173
1.9538181589769847 12.577401662479522 47.162014382593384 155.69271690618453 0.6171276151070229
1.9684352214037315 12.53347648529558 43.34265115983912 163.8317959063791 0.6324511964631766
1.9821518098492015 12.487477309687732 39.880439507921736 172.4732163619342 0.6485015540785967
1.9949410328905768 12.439405339989584 36.744622463485385 181.6562853342965 0.6653319215101628
2.006778549101491 12.38924830213024 33.90343118907067 191.42299185462304 0.6829966782421808
2.0176267102296896 12.336976899730532 31.328186009155072 201.81936534559384 0.7015550515275046
2.02746419644005 12.282594847093481 28.991396564198 212.89535795277325 0.7210697361339463
2.0362760327072116 12.226132383929865 26.870285960607035 224.70643301114976 0.7416109973855533
2.0440215786882296 12.167541188674289 24.942975022693037 237.31376458536954 0.7632560150858713
2.050682326063931 12.106839000155496 23.187925773647688 250.78420304940636 0.7860873475024126
2.056255520570582 12.044097110286568 21.593194460037832 265.1908547849709 0.8101931907972674
2.0607045667137216 11.979250679546935 20.142214790988444 280.6154280394758 0.8356731490187824
2.0640121478318636 11.91235863834058 18.821771038566645 297.14765893997094 0.8626342296912185
2.0661730744026245 11.843462581156837 17.61881337883852 314.8879260370437 0.8911969426740505
2.067168374885949 11.772575103652128 16.52331398694558 333.9456166500213 0.9214871092493008
