M[M_sun], R[km], Lambda[1], P_c[MeV/fm^3], rho_c[fm^-3]
0.24162668629717493 15.618656898711224 2160425.4255784233 3.5677272577965504 0.1711233750220791
0.25364607245233306 15.277246590032197 1723143.1467093034 3.784859377704506 0.1738886687881977
0.2660438586658928 14.981185703812535 1382914.0129864782 4.011485095056024 0.17666767150655827
0.27882249266843656 14.723360971296463 1116287.6402454362 4.247859266063833 0.17945903421794945
0.29197894724833756 14.498251463364145 905701.3945281984 4.494607630791304 0.18226933326741884
0.3055166757954707 14.301084519142414 738526.9434215726 4.751887966501817 0.18509431744123206
0.31943810077150014 14.12792687843627 605006.8793286943 5.020379076741172 0.18794052891585383
0.33373743137500306 13.97578210575896 497558.4530242601 5.300309758230118 0.1908046833003271
0.34842130572837154 13.841856233545336 410900.47794475185 5.592403269812782 0.19369296850298337
0.36348662058482556 13.723865653991256 335631.37467211584 5.8968336955868 0.19660057296355737
0.3789439792848688 13.619835888605074 283208.28318299976 6.214462398045405 0.19953511988428527
0.3947786154505369 13.528307342823133 236332.50309153192 6.545541101012178 0.20249268595652992
0.41100815313601247 13.447732011408249 197796.7615903753 6.890783699808482 0.2054771761105905
0.4276201417326499 13.37690689768324 166022.53914305608 7.250890449884218 0.20849157316420946
0.44461862713022027 13.314785954888604 139748.82935051527 7.626112312592725 0.2115312948096083
0.46200161874976003 13.260439046064302 117927.84514026524 8.01741443080691 0.21460275120008737
0.4797728404851323 13.213038652781691 99766.52808706414 8.42549481770567 0.21770747184228373
0.4979336422778956 13.171880455683253 84602.92361039724 8.850783650306647 0.2208427686388588
0.5164771992864681 13.136303485119921 71905.97797706685 9.29417576495962 0.22401235192169508
0.535397663534323 13.105777703096836 61247.006613427744 9.75654650311726 0.2272189966139082
0.554712321674175 13.079730089589656 52275.74812773034 10.2386962212441 0.23046392849914324
0.5743982814551888 13.057765505586824 44704.189080031494 10.741110027918845 0.23374402303220634
0.5944594137628092 13.0394523239694 38304.420457778535 11.265034436508488 0.23706547979326906
0.6149015133998008 13.024452178206559 32882.772972079496 11.81140289479245 0.24042985285475482
0.635710563371852 13.01241311384871 28274.65682686356 12.381195153795638 0.24383877650563823
0.6568858778474836 13.002982196752214 24355.485067299596 12.975079305517928 0.24728996226974426
0.6784231760334162 12.99596463534625 21014.042522358843 13.594424429188292 0.25078866525568355
0.7003160482284381 12.991053156478452 18160.683384022796 14.240409159270103 0.2543372961607097
0.7225561784456336 12.987994472847005 15718.611188112109 14.914224157001147 0.2579378414659876
0.7451491216390149 12.986647891601237 13624.414730730414 15.616870407183926 0.26158990574790847
0.7680761799260566 12.986759389345385 11827.67495799057 16.349672256199312 0.26529596045005843
0.7913263489622498 12.98814589500642 10281.99397609214 17.114219379371036 0.26906041797772434
0.8149044893164057 12.990689098858345 8949.263437480487 17.91196810477909 0.27288571343539963
0.8387942946898747 12.99415690465773 7801.690954769454 18.74424379615292 0.2767725646471296
0.8629783826041519 12.998433734108115 6808.97768061398 19.61247208557844 0.280722172301108
0.8874670586935388 13.00338522039213 5950.598501136321 20.518701801988367 0.2847405487847293
0.912227407594994 13.008882419628861 5206.86522855012 21.464728771520797 0.2888307108196747
0.9372538721221128 13.014780124770665 4561.86618097792 22.451986151289287 0.29299216401673084
0.9625439975651008 13.020983350697769 4001.2550564581516 23.482603300040214 0.2972295346784205
0.9880691926252949 13.027368869654358 3513.590435498361 24.558955226346477 0.30154852361062484
1.0138176707882451 13.033834818916155 3089.4882077564466 25.682923739767407 0.30595030592656236
1.0397869988771196 13.040288444111866 2719.0636357244534 26.856593897238376 0.31043705054848897
1.065944093351832 13.046616229456053 2396.2432559604085 28.083006233378683 0.3150170539594575
1.0922816195882972 13.05274321456725 2113.7113331734463 29.364143594408695 0.3196902573273636
1.1187855839879173 13.05858190669164 1866.6955775493802 30.702909886493767 0.3244623521014613
1.1454224023077768 13.064036058841552 1650.471075801181 32.10255535372544 0.32934037793528137
1.172189890973994 13.069041112366842 1460.743009624687 33.56518325274521 0.33432307866571276
1.199051311452095 13.073491587030471 1294.2587820772376 35.09526277068693 0.33942351810962834
1.2260021780958832 13.077356990090314 1147.8960748502484 36.69472484112695 0.3446378858424319
1.2530025018881705 13.080519653832473 1019.1955709679638 38.36871360438368 0.3499811814457332
1.2800501589086752 13.082951147635512 905.8151897331885 40.119575405733805 0.3554505796102489
1.307104308592674 13.084556649915395 805.9475855095857 41.952585574378645 0.3610594864845437
1.334138192297685 13.085237709192965 717.8154689168994 43.871440435790944 0.36681101529671734
1.3611515382212478 13.085027679904876 639.9606924118809 45.880619049019 0.37271174214663805
1.3880925319802344 13.083775414140076 571.1928611369254 47.985565469153336 0.37877222336415567
1.4149390635166703 13.081441933387778 510.2928842064585 50.19116697069987 0.38499875752790974
1.4416726626201466 13.077995788481054 456.3758480646413 52.50240556543411 0.3913970643547157
1.4682702570339659 13.073384186212591 408.5698384611392 54.92582426057056 0.39797947303215303
1.494682761286093 13.067505198501523 366.1352313744485 57.46762039635698 0.40475505711556203
1.5206330229523062 13.06034739013228 328.8187369153296 60.055046468373014 0.498412845983468
1.5232108004238738 13.041454115998075 321.0376357133833 64.45022947166353 1.8515544542156204
