M[M_sun], R[km], Lambda[1], P_c[MeV/fm^3], rho_c[fm^-3]
0.24162668629717493 15.618656898711224 2160425.4255784233 3.5677272577965504 0.1711233750220791
0.25364189320100083 15.277345992043465 1723191.5720557405 3.7848004582974144 0.17388793438621197
0.26603810348305984 14.981263057716404 1383001.6886658478 4.011361234087181 0.17666617471984752
0.2788109633778115 14.723624969838752 1116522.6084725163 4.247666272489787 0.17945679578332563
0.2919647472000278 14.498500862693236 905968.7685286355 4.494340439658337 0.18226635803214145
0.30549883369433406 14.30131610176851 738724.0002412153 4.751537504678578 0.18509053178467463
0.31941349719594353 14.128227616813488 605159.7494206359 5.0199427619557095 0.1879360019815526
0.3337102842091985 13.976060337063021 497738.8846403468 5.299776102636234 0.19079931027399144
0.3483896822302971 13.842121798257086 411064.9769861408 5.59177094030587 0.19368685054105614
0.3634507753229332 13.724069746506565 340688.35805112554 5.896088484984067 0.19659357378787315
0.37890283098461625 13.620078239538607 283347.863324807 6.213595287263433 0.19952721287802302
0.3947326434574564 13.528537300944055 236447.35988826386 6.5445529896385555 0.20248402155465633
0.41095555192490846 13.447954513341127 197904.02529643913 6.88965551109843 0.20546756798210966
0.42756249411685404 13.377121618974424 166115.3931771818 7.249611595900907 0.20848099353294774
0.44455462065505663 13.31500336064848 139828.57662862173 7.624686327314465 0.21151994304988783
0.46193372840346886 13.260643190036893 118008.20690783871 8.015816439934829 0.21459038944877168
0.4796967383040625 13.213242836882971 99841.69367526715 8.423712358980767 0.21769407024450405
0.49785088846030534 13.172053628154833 84666.62701397792 8.8488232954022 0.2208285748317554
0.5163866623972084 13.136460091028026 71956.49843770092 9.292005786989908 0.22399707514150596
0.5353027864966742 13.10589735159484 61293.94500724756 9.754152187435137 0.22720260386136323
0.5546072063518313 13.079856927903755 52316.78853056822 10.23607176415218 0.23044651141301836
0.5742872762809047 13.057879026877108 44742.89603072654 10.738247264723043 0.23372564320571626
0.5943410067943161 13.039555816972957 38339.86021252484 11.261900117347988 0.23704589651043467
0.6147754054642662 13.024549913126366 32914.0973959338 11.80797850151626 0.24040902683016155
0.6355742155127226 13.012451637617993 28303.640611217706 12.377461012863183 0.2438166663800928
0.6567433573473916 13.003054011772772 24185.98985863338 12.97105256483305 0.24726694707123223
0.6782732030734631 12.995995256800729 21035.8582835222 13.59004790362743 0.25076429793390204
0.7001580011290893 12.991076230838896 18179.550006331705 14.235659379910112 0.25431152837586873
0.722388137702545 12.988003638010717 15734.804307150745 14.909076146883221 0.257910621995937
0.7449738276025824 12.98664246658936 13639.75947072782 15.611347817111827 0.2615616779307387
0.7678906157130925 12.986747904706824 11840.169266597843 16.34370029250718 0.2652661917088734
0.7911318238961892 12.988138345566437 10293.034603439957 17.107768066472644 0.2690290474276973
0.8147036141531202 12.990661790356222 8960.204397914795 17.905005479596465 0.2728526762767597
0.8385820022752275 12.994118531240186 7810.281848436951 18.736800742026194 0.27673836766455695
0.8627610337707656 12.998386256237438 6817.563097775725 19.604451816145733 0.2806861904102827
0.8872326034735663 13.003328859335483 5958.343477278844 20.510065711253738 0.2847027040960831
0.9119900640537046 13.008827246660829 5213.670348397326 21.455435609646145 0.2887909201917062
0.9370064185776374 13.014712397879599 4567.458304665197 22.442074632346788 0.29295099720980683
0.9622820492976295 13.020916027461906 4006.6260184861862 23.471949029883056 0.29718626452162017
0.9878032408456361 13.02731085379274 3518.2577105694013 24.54750805022616 0.3015030494141285
1.013542794153584 13.033769194601854 3093.7063009515705 25.670727970997987 0.3059032401061087
1.0395025919189187 13.040222614827647 2722.8224997218545 26.843500425557757 0.3103875857702151
1.0656546363380515 13.046554822430767 2399.4406635146443 28.068953761206583 0.3149650677544097
1.0919787519373656 13.05267787616683 2116.925211734342 29.349181929766925 0.31963640452116215
1.1184742317722594 13.058514085579034 1869.5603303961846 30.686860384243452 0.32440573644229154
1.145101629794639 13.063968525888898 1652.985478234782 32.08547040011305 0.32928167571746947
1.1718616949351834 13.068985650379316 1462.9297792102209 33.54686242261013 0.33426133557920096
1.1987138530440555 13.073444505008798 1296.1175567532982 35.07561958311168 0.33935856341359716
1.2256567807980292 13.077312455336624 1149.6515566896496 36.673816303863894 0.3445704381377933
1.252649065677325 13.080486197017935 1020.7292083404602 38.34640783159575 0.34991081491466985
1.2796886906910494 13.082922563725802 907.242868515333 40.095713425343725 0.3553767586146946
1.3067305759500234 13.084512833150454 807.2080599330241 41.92717744379628 0.36098267385647836
1.3337642424899485 13.085235499304119 718.9339307206021 43.844201255903904 0.36673004636702655
1.3607697748751955 13.085037013417663 640.9791638290392 45.85160590036454 0.3726273758514892
1.387699985985369 13.0837840594655 572.1637318601131 47.95465441436635 0.3786842405239263
1.4145534974260048 13.081499839239482 511.1318408991402 50.1580190205596 0.3849058733186371
1.4412750467900917 13.078053399639604 457.1329948547245 52.467073346720916 0.39130005531996764
1.4678683391236353 13.073462285038532 409.2679287267419 54.88815130814229 0.39787806421954885
1.4942749875659151 13.067603669420855 366.74784225046466 57.427437570303525 0.4046489523159904
1.5204857563920933 13.060469061939774 329.0400359037182 60.091554442026315 0.4116224812788554
1.5464690627815494 13.051992969288227 295.48506851454385 62.887601268230846 0.4188091805444181
1.5721833296778152 13.042122237005191 265.6283727771581 65.82319759357785 0.4262204104772295
1.5976064580860532 13.030805566215275 239.070009020209 68.90653047970449 0.43386843085532223
1.6226870924436392 13.017970254836282 215.3715921621063 72.146406406332 0.4417664753051852
1.6474454901554818 13.003667821768 194.22259062581315 75.55230824046329 0.44992883238831516
1.671794178627858 12.98774775802504 175.34274812637258 79.13427498827161 0.4583701705832254
1.6957322829939647 12.970210631992117 158.46126147463207 82.90227211752298 0.46710283407337405
1.7191956946651883 12.95097183595174 143.3821920265974 86.86913156583113 0.47614880484476463
1.7422010131543808 12.930091224800682 129.86576783189054 91.04655084616579 0.48552292813806863
1.764680751992343 12.90745400678633 117.75496917211852 95.44834870220032 0.495246074462746
1.7866106988900334 12.883033809392114 106.89128894110654 100.08844834307858 0.5053368019391636
1.8079504949071463 12.856793337635317 97.14655141776102 104.9832277495325 0.5158202650576535
1.8286634104182364 12.828676867848934 88.39037502759896 110.14916695959074 0.5267188115896456
1.8487451131033952 12.798726923934064 80.51812474741145 115.60386142274098 0.5380557321704421
1.868135809581841 12.766839285481774 73.43053318319173 121.36766502079256 0.5498609368291247
1.8868092587649723 12.733009227697867 67.05383104599053 127.46187580116514 0.5621638105293436
1.9047361219193715 12.69721132164508 61.298861147493625 133.9090761760809 0.5749942022424434
1.9218820018131526 12.65941870044345 56.11137821242323 140.73458749620735 0.5883871821039874
1.9382012133154667 12.61954781921415 51.42533201989221 147.96622786243768 0.6023815828313617
1.9537047068282507 12.577736360356285 47.19670713223157 155.6326643262577 0.6170138094567136
1.9683258200316927 12.533823194020501 43.3671716233479 163.76728613188465 0.6323306442211903
1.9820500568257964 12.487849036177225 39.90375588111226 172.4037183597383 0.6483732336162963
1.9948449118243914 12.439793504467616 36.7699781424859 181.581515913589 0.6651957279736074
2.0066822519802217 12.389645819581803 33.9277121042981 191.3424655406922 0.6828519151218595
2.0175427559746555 12.337409699326123 31.347983291253357 201.7325466075344 0.7014009568314116
2.027387874736429 12.283049712698805 29.00984140438326 212.80187429278064 0.720906192063739
2.036207504097303 12.22660774769268 26.887452735672476 224.60541929116457 0.7414363927657632
2.043960442026357 12.168040510553796 24.957551067811096 237.20472875414183 0.763070098977426
2.0506295318140917 12.107362789532445 23.201721700251912 250.66620081647872 0.7858885481169567
2.056207043402814 12.044621383649417 21.605825874506838 265.063083100552 0.809980571291016
2.0606719613734557 11.979820238619649 20.154512811198593 280.4772446388705 0.835446496079885
2.063993407634984 11.912965915973222 18.83293850857857 296.99774110389507 0.8623913359343306
2.0661597311939777 11.84407991853922 17.629134079721954 314.72507011825803 0.8909362423793685
2.067163812655237 11.773217715183542 16.53255996168999 333.7687486907688 0.9212077604357743
