M[M_sun], R[km], Lambda[1], P_c[MeV/fm^3], rho_c[fm^-3]
0.24162668629717493 15.618656898711224 2160425.4255784233 3.5677272577965504 0.1711233750220791
0.2536449147810203 15.277240653689612 1723188.706908099 3.784836536495986 0.17388838408355248
0.26604108535714316 14.981253507544237 1383022.2973420685 4.011437077713541 0.17666709124531224
0.278817280920175 14.723492184603222 1116425.7671293926 4.247784447505897 0.17945816643542656
0.29197320577181873 14.49834526118066 905785.2833665507 4.494504047122153 0.18226817983922233
0.30550912945154474 14.301165790309659 738583.9855620925 4.751752099882744 0.18509284982244073
0.31942838907683946 14.128050648656435 605050.0766303298 5.020209925716344 0.18793877390868494
0.33372474892624915 13.975955162730727 497652.6527520698 5.300102868705229 0.19080260026610327
0.34840902546026165 13.841959750270554 410962.3205156786 5.592158124591154 0.193690596655527
0.36347320221072443 13.72393046210314 340624.72236694 5.896544786181617 0.19659785946528416
0.37892770513892793 13.619940473385567 283264.7266085016 6.214126227319505 0.19953205441204094
0.39476142277799947 13.528399280132382 236384.8732358531 6.545158017355163 0.20248932683037857
0.41098774799677323 13.447828053583411 197840.14004741443 6.890346306560631 0.20547345108614684
0.42759649398117583 13.377028581541293 166065.04662256702 7.250394641497472 0.20848747146849073
0.4445931907412361 13.314887599756483 139773.10475114308 7.625559458838691 0.2115268937382424
0.4619769359758371 13.260532796277133 117964.45991369669 8.016794886949004 0.21459795852746677
0.4797429492303035 13.213115091335448 99791.24105448951 8.4248037513142 0.21770227598911296
0.4979013944866553 13.171945898565102 84628.25030743118 8.85002360896432 0.22083726561479966
0.516441724928123 13.136369061617986 71927.16747911343 9.293334446664838 0.22400642898844975
0.5353623212541042 13.105806313675712 61263.78105548914 9.755618201930343 0.2272126409726041
0.5546700076678476 13.079775728023302 52293.30707172367 10.2376846895842 0.23045725286719135
0.5743552102119924 13.057833257154034 44719.30772081384 10.740000092956462 0.23373689690593305
0.5944130583657485 13.039505737808163 38319.39250405978 11.263819208466392 0.2370578870264709
0.6148530322839969 13.024476692938183 32894.25364666389 11.81007519264954 0.2404217782105038
0.6356588333215698 13.01243137503024 28284.32896603089 12.379747348438348 0.24383020394268626
0.6568310533455817 13.002999743829072 24364.40925292645 12.97351804563155 0.24728103874845847
0.6783646905184805 12.99596737070105 21022.439607028413 13.592727540124343 0.25077921743199927
0.7002552548458583 12.99105684229383 18167.670338963944 14.238567539950797 0.2543273052860222
0.7224914351738394 12.987992283518041 15724.886838847895 14.91222812147729 0.25792728767376166
0.7450806416024132 12.98664911988803 13533.181930835559 15.61472912596454 0.26157896093868294
0.7680033781777708 12.986766372565077 11833.12250075816 16.347356725691313 0.26528441811123116
0.7912514699954363 12.988139149254243 10287.040806920279 17.111717974961596 0.2690482544951278
0.814829041318042 12.990663715303958 8953.612794895971 17.909268431014375 0.27287290367642203
0.8387120817760216 12.994131021703291 7805.267977043813 18.741357828484947 0.27675930511893504
0.8628947871251587 12.99840635198871 6811.999606826983 19.609362290873342 0.28070822061351114
0.8873778233892332 13.003363068012007 5953.414963943149 20.5153532083422 0.28472587472816413
0.9121361335421349 13.00886144391516 5209.590894471605 21.461125381598066 0.28881528214752045
0.9371584829099964 13.014752716612811 4563.79301021032 22.44814297766611 0.2929762016614714
0.962443924466608 13.020965748174106 4003.271992662622 23.478472101894162 0.2972127566552508
0.9879651757461896 13.027349417006896 3515.3438599288124 24.55451655248187 0.30153089086649815
1.0137109896872663 13.033804414842464 3090.8459228773872 25.678194774571818 0.3059320559391253
1.039677623781933 13.040260585499242 2720.4976440636697 26.85151681338671 0.31041787023992556
1.0658302066819816 13.046595821563738 2397.375208416425 28.077557257716364 0.31499689582908635
1.0921644684937244 13.052718657387711 2114.941686472836 29.358342042721315 0.3196693753034599
1.118665364522778 13.058556875465843 1867.7548389630945 30.696686475589264 0.3244403986162287
1.1452979343893892 13.064014474104127 1651.5028381758775 32.095930399646114 0.32931761524559655
1.1720609574394298 13.06902023875796 1461.4997714014023 33.558079024101886 0.33429913668270816
1.198920835374485 13.073478251842257 1294.9417447664216 35.08764572617187 0.33939833060840247
1.2258686932200493 13.077341969764944 1148.6226933505106 36.68661708972978 0.34461173149147756
1.2528659864687686 13.080497275583932 1019.6925277544453 38.36008223344411 0.3499540020861043
1.2799104513969848 13.082941524623639 906.3768261591335 40.11032228175303 0.3554219535359214
1.306954992456758 13.084527269183353 806.5022734089312 41.942732835883334 0.3610297001633891
1.3339946595037309 13.085242552942862 718.3097722890982 43.86087758365338 0.3667796170374596
1.3610037705320734 13.085031024338432 640.3639036352184 45.8693682215879 0.3726790262687778
1.3879360295770566 13.083770330234286 571.5635011099885 47.97357859633683 0.37873810485467313
1.4147872884085142 13.081460680087199 510.62324231903807 50.17831257059974 0.384962738082245
1.4415193630378176 13.07802005983074 456.7116807560356 52.48870404967798 0.3913594451259637
1.4681144502465886 13.073416770348166 408.84190334621695 54.911214941247785 0.3979401473719649
1.494525297950447 13.067546532705153 366.38176993061774 57.452037668815336 0.4047139101295241
1.5207375697324026 13.060395153536355 328.7218017232878 60.11780299382146 0.4116905091473193
1.546721200303801 13.051902182204639 295.1631778801711 62.91561947770415 0.4188804891150741
1.5724377476111069 13.042015814089371 265.34835372834146 65.85311672256677 0.4262952269423768
1.5978515975016554 13.030677134321905 238.81138064076444 68.93849277409478 0.4339470003738279
1.622949224196328 13.017856623076412 215.1457857476216 72.18056611806678 0.4418490625681717
1.6477018566924428 13.00350839693407 194.01591578903296 75.58883275588333 0.45001572334492995
1.6720511581458302 12.987569444300972 175.15879235420007 79.17315536057814 0.45846087804699615
1.695987519095103 12.97000893593114 158.2965053454223 82.94388767894525 0.4671984665123182
1.7194675942790003 12.95079251870684 143.2136277323258 86.91369653818332 0.47624972258075876
1.742448847093045 12.929848251933992 129.72230612604977 91.09408377943616 0.4856286714183514
1.764931220537028 12.907186035101175 117.62741651352026 95.49930748922338 0.49535788942001885
1.786856488335788 12.882748497307475 106.77911989939254 100.14287735484389 0.5054542573852173
1.8081939184639149 12.856479744546863 97.04602361155624 105.04140922272565 0.5159438135379324
1.8289078202532427 12.828346994561334 88.29643328431469 110.21145329681863 0.5268491084204205
1.8489807098055666 12.798356640410837 80.42459699073224 115.67075387924179 0.5381939089027606
1.8683552864290864 12.766411436555481 73.35446018531981 121.43932985220837 0.5500068201636564
1.8870314690446306 12.732583095124646 66.97822778462366 127.53862179557217 0.5623176926746526
1.9049531028418722 12.696756676310622 61.22905702184048 133.99124826486226 0.5751564354599049
1.9220926538618122 12.658928964446456 56.05132266779057 140.82284640121802 0.5885591440141135
1.9384038206918566 12.619030173688678 51.36811938239899 148.06110210723685 0.6025640781615209
1.953897871209202 12.57717565415749 47.144547140876774 155.7344219257157 0.6172066502937658
1.9685113760699884 12.533231926332807 43.32174619822705 163.87657500173086 0.6325348441854339
1.9822229227655312 12.487224611531092 39.86020642370082 172.52148189711727 0.6485906711120678
1.9950077657007919 12.439130332531285 36.72865913872958 181.70821229524566 0.6654265071895398
2.006841311134448 12.388963908738994 33.8872455588915 191.47891749310224 0.6830972164332021
2.0176847342173976 12.336676934760602 31.314673286002325 201.8796616925016 0.7016620715955217
2.027517589370912 12.282284000073037 28.978890286290223 212.9602837701279 0.72118331996702
2.036322856382329 12.225801633570091 26.858007702445008 224.77658933493464 0.7417322642614007
2.0440634002739895 12.167196676677802 24.931908632232243 237.38949324165847 0.7633851394013969
2.0507186236168713 12.106475791971324 23.1780754367631 250.86605123585466 0.7862250668250096
2.056286349689474 12.04371623434038 21.584951838200606 265.27958240117624 0.8103408136733246
2.060727431084677 11.978854758875078 20.133686045411444 280.7114038366778 0.8358305716643649
2.064028099083996 11.911946191674193 18.813815985685743 297.2517862165236 0.8628029345368754
2.0661843738752457 11.843031539885844 17.61169168137473 315.0010410668866 0.8913780175888149
2.0671716490623844 11.772126769093166 16.51735414005678 334.06846559019004 0.9216811393371932
