M[M_sun], R[km], Lambda[1], P_c[MeV/fm^3], rho_c[fm^-3]
0.24162668629717493 15.618656898711224 2160425.4255784233 3.5677272577965504 0.1711233750220791
0.25364213580436906 15.277332582653534 1723197.7779238315 3.784804932072637 0.1738879901496619
0.26603818342122526 14.981280855255372 1383094.058214636 4.011370638806368 0.17666628837032863
0.2788117825433494 14.7236016851591 1116464.5952775278 4.247680926278582 0.17945696574519285
0.29196500270880893 14.498494178229068 905951.5676839655 4.494360726990877 0.18226658393629772
0.30549956139924866 14.301306428033755 738711.1937687378 4.751564114342624 0.18509081921983164
0.3194160166169166 14.128192362034298 605162.3617953827 5.019975889909048 0.18793634569685472
0.33371198167448696 13.976072711943626 497724.6251773885 5.299816620973693 0.19079971822641756
0.34839232577596985 13.842098615496436 411051.46875125234 5.59181895013424 0.19368731504935266
0.36345403517342956 13.724045433683424 340688.29488365084 5.896145064822162 0.1965941051976861
0.37890548693122134 13.620073822693916 283336.4181482571 6.213661121720906 0.19952781320900534
0.3947359490214324 13.528526372765583 236431.70404849912 6.5446280103052406 0.2024846793845552
0.41095990581989733 13.447929306603749 197904.3037100283 6.889741166123873 0.2054682974562501
0.4275645791153151 13.377167966757643 166110.0001805058 7.2497086889547635 0.20848179675889947
0.4445594291086262 13.314993719222416 139821.58033436656 7.624794589989045 0.21152080489039016
0.4619391603718217 13.260625554239637 118003.19158276718 8.015937760428816 0.2145913279608761
0.4797017498100204 13.213237677943155 99832.08050239935 8.423847683203364 0.21769508769347817
0.497857385532307 13.17203497712328 84661.78448881047 8.848972124348997 0.22082965241691993
0.5163937857850928 13.136443292553206 71955.11785713445 9.292170528963132 0.2239982349352679
0.5353108313653747 13.105876491891456 61288.94849441898 9.754333959271367 0.22720384836757151
0.5546142207688428 13.07986864878839 52310.94767400255 10.236271750544669 0.23044784324437737
0.574295191179955 13.057872158713637 44741.57809911356 10.738464596710005 0.23372703854439358
0.5943500727523364 13.03955260711943 38336.62073341197 11.262138062977533 0.23704738319903398
0.6147835501895793 13.024531992358268 32910.91933508001 11.808238466254553 0.24041060784951196
0.6355827722012001 13.012457033391014 28301.666624708578 12.377744489851262 0.24381834486837406
0.6567547984422372 13.003053848643582 24378.12738356529 12.971358252313054 0.2472686942555149
0.6782839743295326 12.995992613395142 21033.44984767866 13.59038014198528 0.2507661477480666
0.7001702889791476 12.991066975527946 18041.402785614075 14.236019950290558 0.2543134844877803
0.7224020394453314 12.987994451984251 15734.627585804832 14.909466944861942 0.2579126882921629
0.7449868407566687 12.986642328975432 13638.270231584154 15.611767047415226 0.2615638207579632
0.7679053598990644 12.986757664350808 11839.653161777225 16.34415363175782 0.2652684514913364
0.7911473604027786 12.9881268656629 10293.297974785939 17.1082577895422 0.2690314287851504
0.8147183560742317 12.99066504068226 8959.130484117837 17.905534012163535 0.2728551841259985
0.8385974992599892 12.994128612438098 7809.600267858276 18.73736573997724 0.2767409635378042
0.8627772977585215 12.99838309730153 6816.873539379238 19.60506062493585 0.28068892175136834
0.8872488702618995 13.003344975810633 5957.616661031595 20.510721260606797 0.28470557681499276
0.9120078993954924 13.008833605813507 5213.011078450968 21.4561410298872 0.2887939405968979
0.9370248881330933 13.014719865106946 4566.979652630003 22.44282698518367 0.2929541220551665
0.9623014886979895 13.020919222662187 4006.271818904896 23.47275775555954 0.2971895489968882
0.9878235189489778 13.02731120339074 3517.934601601659 24.54837695471707 0.30150650115918254
1.0135637899450067 13.033776536165682 3093.4707692290126 25.671653691201385 0.30590681263865727
1.0395234664444386 13.040228508938702 2722.5073496926434 26.84449427699248 0.3103913403619731
1.0656733524421105 13.046552099354647 2399.2917581612905 28.070020395267743 0.31496901369760993
1.0920018610531543 13.052678771451228 2116.654470495552 29.350317566513045 0.31964049211616363
1.1184982063590552 13.058517333488771 1869.36753614364 30.68807857998039 0.3244100337066907
1.1451256645852388 13.063976631630545 1652.7989419647415 32.08676717935817 0.32928613132322804
1.171885893443398 13.06898877890997 1462.7974222115258 33.548252994027614 0.3342660219482518
1.1987399320786847 13.073443607592747 1295.9727826011776 35.07711050869348 0.3393634935003053
1.2256833099553919 13.077321665321916 1149.5646998534362 36.67540325760871 0.3445755574049189
1.2526774481337306 13.08048702980378 1020.6139527872151 38.348109069174434 0.34991620406237073
1.2797147655355192 13.0829318916274 907.11466074269 40.09752451256635 0.35538236151351627
1.3067575020105195 13.084523628713871 807.0957492378062 41.92910586568569 0.3609885037680047
1.3337933770281691 13.085228789094439 718.8852702581761 43.846268629406296 0.3667361916702425
1.360801070008962 13.085035814787188 640.9313434481843 45.85380789428984 0.3726337789507057
1.3877293847946726 13.083784527464246 572.0760650015532 47.95700043239897 0.37869091804855826
1.4145833749158223 13.08150009456429 511.06116932585854 50.16053478267367 0.38491292276132344
1.4413064839644028 13.078048148055206 457.0813827119493 52.46975485986087 0.3913074177503738
1.4678979410354174 13.073457413266054 409.2081404780938 54.89101044353028 0.39788576049780905
1.4943064411526805 13.06759740006497 366.71514570890537 57.43048716063699 0.4046570049146473
1.5205170507323624 13.060459070902693 329.00767868477294 60.09480836755097 0.4116309144152551
1.5464993049907731 13.05198121308065 295.4326592362864 62.89107455140016 0.4188180203262223
1.5722138299605881 13.042108980423238 265.5898636376453 65.8269065032572 0.4262296850624577
1.5976378443515347 13.030790383318363 239.0328659273093 68.91049264599056 0.43387817062849166
1.6227190275324144 13.017951436138462 215.34160849096594 72.15064094719237 0.4417767130713109
1.6474773474765687 13.003648262315934 194.195479996147 75.55683590155127 0.4499396035867455
1.671826546216497 12.98772233331851 175.32089094388238 79.13909466127095 0.4583814148251922
1.695764320999615 12.970184948578355 158.4442035754731 82.9074308154704 0.4671146887462327
1.7192287406388322 12.950952589802599 143.35774677915938 86.87465583837346 0.4761613146040792
1.7422320654125496 12.930059084644338 129.84529860088864 91.05244299296406 0.4855360359958735
1.7647129331681886 12.907421610329736 117.74035960059534 95.45466547110138 0.4952599348641809
1.7866401766131916 12.882998339903994 106.87756631148888 100.09519523386157 0.5053513614367677
1.8079807552785188 12.856754285180251 97.13675176718772 104.99043974059164 0.5158355797357845
1.828693213148915 12.828633922708084 88.37627420110493 110.15691271077445 0.5267350556570493
1.848774510768789 12.798681371767517 80.50361399388551 115.61215308082852 0.5380728598748198
1.8681638317149456 12.766790158400543 73.4197530695553 121.37654817666898 0.5498790196791756
1.8868371382197202 12.73295507330112 67.04298465645184 127.47140031644996 0.5621829261555228
1.9047628864920694 12.697155400184128 61.28846679565935 133.91926161017116 0.5750143114518868
1.921908775361789 12.659357894007687 56.1041790903877 140.74552732176372 0.5884084970443766
1.9382252405564342 12.619485969241262 51.417323966618454 147.97798757567116 0.6024042032248486
1.9537383398284431 12.57769522272217 47.18700608969259 155.64527714222936 0.6170377120055405
1.9683487308002416 12.533750494190096 43.36098593291818 163.7808597483147 0.6323560472966033
1.982071747312912 12.487771771854575 39.89868329397677 172.41831486576814 0.6484001844687315
1.994865662621921 12.439712485022595 36.76537797977027 181.597219494695 0.6652243322643344
2.006700856310446 12.389559331739779 33.9217098053742 191.35937814656918 0.6828823191162807
2.0175607526328516 12.337318119756075 31.343546192751948 201.75078069885075 0.7014333205448532
2.027403927000691 12.282952519570562 29.00607900030523 212.8215080949881 0.7209405402260478
2.036221016811608 12.226508112837207 26.883380708408733 224.62663447791164 0.7414730637211175
2.043973155856904 12.167935791225391 24.95448262094865 237.22762865539525 0.7631091454126838
2.05064105725829 12.10725277974696 23.19919944509975 250.691000532526 0.7859303548325118
2.0562156669167653 12.04450696707143 21.60203122343674 265.0899176503955 0.81002522554101
2.0606786047906085 11.97970111807396 20.152177764125344 280.50626570263387 0.8354940973790503
2.063998259786682 11.912841372633203 18.830458029352144 297.0292264346741 0.8624423478117693
2.0661621798885523 11.843950411081044 17.626927804326687 314.7592724652332 0.890990993609792
2.067165243359357 11.773082489186924 16.53055210281393 333.80589357166315 0.9212664278080348
