M[M_sun], R[km], Lambda[1], P_c[MeV/fm^3], rho_c[fm^-3]
0.24162668629717493 15.618656898711224 2160425.4255784233 3.5677272577965504 0.1711233750220791
0.2536437972107283 15.277278385136999 1723232.2920540792 3.7848150642553846 0.17388811644243193
0.26603927394863647 14.981284005042328 1383072.0974685885 4.011391938623562 0.17666654576604912
0.27881410530639444 14.723541134045403 1116450.740451035 4.247714114281497 0.17945735067601343
0.291967688703947 14.49846629953766 888771.80983952 4.4944066740013415 0.182267095566923
0.3055046722645784 14.301209079360234 738643.4217707937 4.751624380407965 0.18509147020835684
0.31941898690878023 14.128182238971172 605105.4832957948 5.020050918903344 0.18793712415162908
0.33371757727615287 13.975939438784382 497702.76980589627 5.299908388123454 0.19080064216934642
0.34839746910600644 13.842056468809728 411023.5469439444 5.591927684496335 0.19368836708421774
0.36345970281423834 13.724021874101075 340672.36980170675 5.8962732091652335 0.19659530875647446
0.3789127077500991 13.620023422032656 283320.32550126844 6.213810226674842 0.19952917286665117
0.39474444385216734 13.52847741177153 236409.1713125936 6.544797920998205 0.20248616927179441
0.4109685246732491 13.447896470507338 197872.36186396916 6.889935162533517 0.20546994961108203
0.42757664824427455 13.377072213466016 166096.53948730533 7.249928591396092 0.2084836159554404
0.4445704881052632 13.314950209480868 139815.93332256234 7.625039790616965 0.2115227568450519
0.46195192393565226 13.260580635640599 117991.52966438567 8.016212535940028 0.21459345357160178
0.47971544487361373 13.213171532931169 99817.04917079148 8.42415417610402 0.2176973920916219
0.4978726688959239 13.171989950125752 84651.84607278506 8.849309204505298 0.22083209302127482
0.5164097890654449 13.136408916926948 71943.0503412781 9.292543651130911 0.22400086173859055
0.5353271220306163 13.1058760868372 61283.27736246447 9.754745653131266 0.22720666704165865
0.5546331530290272 13.079834768990722 52305.64780280414 10.236724699483174 0.23045085970761187
0.5743144251511851 13.05786588317741 44331.2623296109 10.738956832641803 0.23373019885155133
0.5943706729151765 13.039532055501569 38332.563382364184 11.262676988051293 0.2370507504126474
0.6148057998425419 13.024515863864798 32905.091134835966 11.80882726394223 0.24041418872184028
0.6356101227082335 13.012455363868101 28295.380329638818 12.378386542223348 0.24382214650811138
0.656777954386142 13.003035587177438 24373.034178340953 12.972050610979252 0.24727265149373584
0.6783087558528793 12.9959997758496 21030.22621487598 13.59113263806423 0.2507703374446284
0.7001954585126028 12.991076894034956 18174.312526810412 14.236836618232243 0.2543179149512214
0.7224305802145988 12.988005176541197 15731.956324758929 14.910352078324339 0.2579173683264322
0.7450172766400976 12.986640584430654 13635.898101786013 15.612716580142974 0.26156867413941753
0.7679367641813458 12.986747679791105 11837.601543346167 16.34518042164947 0.2652735697814185
0.7911800663781933 12.988139500397772 10290.072526292433 17.10936698943638 0.2690368224486292
0.8147525802515115 12.99066029470401 8957.498592412903 17.906731116508645 0.272860864300519
0.8386345775200343 12.994131438605514 7808.381893602619 18.73864543930787 0.27674684309409425
0.8628152279531718 12.998398350713959 6815.532312896206 19.60643955737124 0.28069510815155874
0.8872893685955674 13.003352588732334 5956.396816100823 20.512206062369597 0.2847120834465395
0.9120486007266065 13.008836947299292 5212.006241402213 21.457738791609938 0.28880078174990365
0.937068401817029 13.01472900476311 4565.998802923951 22.444531051457897 0.29296119977632146
0.962345630448004 13.020930690746365 4005.067607822992 23.47458950967104 0.29719698829460217
0.9878689666816305 13.027328016203352 3517.1026192339455 24.55034501781219 0.301514319339576
1.0136108351343334 13.033784331555523 3092.356509915245 25.67375044555636 0.3059149044175252
1.0395735790389535 13.04023871651369 2721.852146086563 26.846745353874816 0.3103998445250842
1.0657232910381342 13.046561686705433 2398.6905089632164 28.072436330927705 0.3149779512941455
1.092054964417085 13.052694505635499 2116.1206904810965 29.35288979894263 0.3196497505735514
1.1185512572874683 13.058535943421566 1859.8250004296506 30.690837816468004 0.3244197670921948
1.1451807624063972 13.063985974881508 1652.368575676662 32.08970441489873 0.32929622337523934
1.1719434046096933 13.069002160031282 1462.296001110619 33.55140267901682 0.3342766367114115
1.1987980083471488 13.07345919084713 1295.605652581661 35.08048750745383 0.3393746603196994
1.2257428790826383 13.077323793191399 1149.255931848707 36.678997771043164 0.3445871527488397
1.2527372156573362 13.08049364846596 1020.3449934188751 38.35196245015591 0.34992841072857495
1.279778205409844 13.082935425720192 906.8940667566156 40.101626716850454 0.35539505236311336
1.3068199925431694 13.084524309477356 806.8134871743869 41.93347384848789 0.3610017088417622
1.3338570035524555 13.085236976371538 718.751858759041 43.85095135812516 0.3667501111617239
1.3608647193110288 13.085037095191247 640.7344376029187 45.85879555787102 0.37264828239887693
1.3877944900817372 13.08377784837164 571.9079152289472 47.96231433246785 0.3787060431235185
1.414651893407072 13.081490222989563 510.9257958241274 50.16623318160817 0.38492889030311445
1.4413736803819288 13.078039755410083 456.96039942268925 52.475828712436844 0.39132409427387155
1.4679686967758367 13.073445875559905 409.09332987742465 54.89748664124206 0.3979031932573304
1.4943762829795115 13.067582057041543 366.6110585178541 57.43739477308499 0.40467524481726985
1.5205873349964698 13.060440219382116 328.8985161511894 60.10217883743935 0.41165001632076204
1.546570418959577 13.05195671611147 295.34638851021344 62.89894190899112 0.41883804337677394
1.5722865175130778 13.042079671218733 265.51516216380264 65.83530760244673 0.4262506930451749
1.597710305730903 13.030755236109785 238.9689276398477 68.91946742443604 0.4339002323745148
1.6227971633566545 13.017938160630871 215.28329043341049 72.16023271322281 0.44179990289532967
1.647549468899782 13.003604159289013 194.13835296488622 75.56709165092369 0.4499640017714585
1.671898173821846 12.987673501398842 175.27222506763252 79.15001188271893 0.45840688457792916
1.6958355815216601 12.970131547701186 158.39686817971372 82.91911601001989 0.4671415412892746
1.7193161370044778 12.95092403586604 143.309251715366 86.88716915051474 0.47618965109941247
1.7423024749898928 12.92998944147122 129.80384728589422 91.06578963156198 0.4855657273540328
1.764782399956916 12.907346016636312 117.70315168052434 95.46897399172408 0.49529133095336453
1.7867105910995278 12.88291521189072 106.85050617332952 100.11047809480743 0.5053843411876607
1.8080508451654802 12.85666504271859 97.10711062444368 105.00677618122171 0.5158702702017051
1.8287615797832821 12.828537996300863 88.34987315234181 110.17440320513315 0.5267716465343182
1.8488425311271213 12.798578801797902 80.48353874311974 115.63093528343443 0.5381116574241637
1.8682278448805925 12.766678294650196 73.39512014136078 121.39667030079778 0.5499199809499661
1.886899789823288 12.732835658975988 67.02421446675748 127.49297531996267 0.5622262270154228
1.9048238350346043 12.69702740731662 61.269959168811944 133.94233380169487 0.5750598631218065
1.9219679520675648 12.659219194450598 56.08733448090355 140.77030846010058 0.5884567801256475
1.9382835887339516 12.619339741612599 51.40338512054129 148.00462604009846 0.6024554436365207
1.9537824200531673 12.57750405187389 47.172315491566835 155.67384817830765 0.6170918569789099
1.9684003118867028 12.533584883654898 43.34795833502355 163.81153647037831 0.6324133516683594
1.9821182557099482 12.487594190259536 39.88781647009739 172.4513796839779 0.6484612350403234
1.9949115594266997 12.439526556627817 36.75254153368886 181.63279225644135 0.6652891285430996
2.006749669854949 12.389376103319625 33.908693706590846 191.39768982041866 0.6829511924718393
2.0176002738205105 12.337113484756244 31.3345118467726 201.792086067767 0.7015066335002409
2.0274399515199133 12.282736738119914 28.997537625359584 212.86598437812094 0.7210183488224573
2.0362510080354372 12.226283654086123 26.874059875327866 224.674693270174 0.7415561344876607
2.0440025674869666 12.1676978967548 24.947586447032407 237.2795040539565 0.763197597732586
2.050665682472563 12.107003901634537 23.191686397437543 250.74717421179304 0.7860250420726415
2.0562423423506893 12.04426928168804 21.597507574087786 265.15070682004705 0.8101263822510866
2.0606947135657268 11.979429945562373 20.145508750776035 280.5720083474165 0.8356019306179604
2.0640037456824247 11.91254463289746 18.824870325173936 297.10055184374323 0.8625579077546276
2.066169532616358 11.843656686297251 17.621892967672334 314.83675327860806 0.8911150251527019
2.0671667237033624 11.772776570937722 16.526353245995118 333.89004072952383 0.9213993315222482
