M[M_sun], R[km], Lambda[1], P_c[MeV/fm^3], rho_c[fm^-3]
0.24162668629717493 15.618656898711224 2160425.4255784233 3.5677272577965504 0.1711233750220791
0.25364341566217646 15.277310934416528 1723250.8946325534 3.7848091044887604 0.17388804215681603
0.26603818060590395 14.981316508973451 1383064.802554671 4.011379410026123 0.17666639436534295
0.27881253722138766 14.723570183178339 1116454.500784541 4.24769459301336 0.17945712425872096
0.29196656764451384 14.49849244643975 905996.8827026667 4.494379647832449 0.18226679462425993
0.30550113610496726 14.301289316493728 738730.122514451 4.751588931701743 0.18509108729467477
0.31941709323083006 14.128180467666008 605121.378725226 5.02000678656055 0.18793666626153907
0.3337148309510813 13.975974879560933 497704.6908293358 5.299854410294006 0.1908000987021693
0.3483942539481488 13.842076537997226 411034.68388562277 5.591863726436727 0.19368774827239676
0.36345470229549687 13.724077106361062 340678.79288487916 5.896197834010566 0.19659460081707075
0.37890919092360603 13.620037803410048 283331.8188955083 6.213722522320292 0.1995283731085406
0.3947394266775233 13.528509921790256 236422.9279951027 6.544697978529008 0.2024852929113552
0.4109634575193601 13.447935818498802 197893.87780542538 6.889821052625102 0.2054689778032176
0.427571582684663 13.377083529425343 166099.90458428406 7.249799243307933 0.20848254589185614
0.4445639610221418 13.314970310382693 139824.87126524423 7.62489556187726 0.21152160869154507
0.46194449680661764 13.260604676095884 117995.97664481979 8.016050910935897 0.21459220327152662
0.47970743551924777 13.213193438467277 99821.81844617748 8.423973894573573 0.21769603662654188
0.4978636843079898 13.172015479416851 84658.99909904311 8.849110931193602 0.22083065743778246
0.5163996087682482 13.136440383578282 71947.98513833825 9.292324177466723 0.22399931663031206
0.5353164634728668 13.105893298916461 61287.418881820704 9.754503491106018 0.22720500907224997
0.5546229969965151 13.079851529842106 52308.25014622915 10.236458270674213 0.2304490853956784
0.5743030491524886 13.057864306350854 44737.63581740247 10.738667294691137 0.23372833992822042
0.5943579712903212 13.039547051572033 38002.06622344097 11.26235998688681 0.23704876978363515
0.6147937496214456 13.02451934135821 32908.42677331818 11.80848092697673 0.2404120824152396
0.6355938625751032 13.012444153016988 28299.652516060356 12.378008880048041 0.24381991034234773
0.6567647390521999 13.003027136935735 24376.054729928022 12.971643357871722 0.2472703238019752
0.6782949414962299 12.996005056287931 21032.637997598496 13.59069001117031 0.2507678730166699
0.7001815954147524 12.991070415320804 18040.713187203983 14.236356244393953 0.25431530889970405
0.722413871815206 12.987997998809956 15733.323429805754 14.909831431909556 0.2579146154725781
0.7449995593460781 12.986646933899063 13541.055822156442 15.612158052985079 0.2615658193190721
0.7679184324610485 12.986744781321816 11838.619000167217 16.34457645045701 0.26527055913650527
0.7911612037591667 12.988129142709429 10291.667036425939 17.10871454317997 0.2690336498234211
0.8147337473298165 12.990662545067568 8958.616068731524 17.906026963212906 0.2728575231434801
0.8386139150657195 12.994127447112549 7809.618816375707 18.737892702097973 0.27674338465609144
0.8627920666363319 12.998396149668277 6816.1969857593485 19.605628449313286 0.2806914692212418
0.8872656349398788 13.00333618659348 5956.8223203382895 20.5113326798585 0.2847082561489558
0.9120249984603603 13.008840999796982 5212.6197399510265 21.45679896374102 0.2887967576791309
0.9370432020768636 13.014721228273505 4566.555098216973 22.443528693084403 0.29295703655029426
0.9623187537507246 13.020928058461282 4005.7342114152775 23.47351204259293 0.2971926123806513
0.9878430144956589 13.027314459951596 3517.6328762265075 24.54918737082254 0.30150972055764697
1.0135824776753646 13.033777984588957 3092.995924853457 25.672517099578954 0.30591014469786937
1.0395444614485443 13.04023015453244 2722.274277855922 26.845421231893855 0.31039484223067415
1.065694405746504 13.046555311397382 2399.058358730427 28.071015235201656 0.31497269404311506
1.0920229998657938 13.052686455422528 2116.306719599779 29.351376765863108 0.31964430458347215
1.118520781906194 13.05852284495405 1869.2389164977656 30.689214783110828 0.32441404173685745
1.145148535772661 13.063984024349871 1652.5146942207175 32.087976678250065 0.32929028704228974
1.1719095765885985 13.06899239685336 1462.5617461934664 33.54954997430664 0.33427039290551636
1.198763943638606 13.07344905687315 1295.8551691923349 35.078501090999936 0.33936809177900507
1.2257077189907424 13.077318681064279 1149.4566872569847 36.67688340695812 0.3445803321375979
1.2527012749850799 13.08048457310166 1020.4901903132804 38.34969581334707 0.34992123052006074
1.2797410418662827 13.08293412950827 907.0177760227947 40.09921371564688 0.3553875873435211
1.3067842437573995 13.084523747878741 807.0161443735694 41.93090450927045 0.3609939413400547
1.3338195985172319 13.085233823083174 718.8064646797773 43.84819687660084 0.3667419234181207
1.3608266458895866 13.085036410872675 640.8310545017703 45.85586170522023 0.3726397511539022
1.387756592937387 13.083782935145548 572.0082120805016 47.9591885783319 0.37869714621823225
1.414611402309309 13.081492245278518 511.0115065089303 50.162881253958076 0.38491949783244883
1.441333530416331 13.078044087363645 457.0400400272673 52.47225593198608 0.3913142847573589
1.4679264343385907 13.073454365498218 409.16151583134763 54.89367718942618 0.397892938898157
1.4943354196522078 13.067591099362945 366.66404710224094 57.43333155007954 0.4046645156698964
1.5205456023199855 13.060452254398982 328.9534886263856 60.09784334745163 0.41163878011447863
1.5465285491910696 13.051970969320855 295.39573737493777 62.89431413410654 0.41882626532176825
1.5722445522119688 13.042097483598427 265.5785596709529 65.83036586375556 0.4262383356192387
1.5976680258934088 13.030776458513664 239.01112868667178 68.91418822901196 0.4338872550882943
1.622755106040705 13.017961071679851 215.31222390317615 72.15459058534546 0.44178626203376653
1.647505966129601 13.003630275253501 194.1742957804793 75.56105894574388 0.44994965010880067
1.6718564759690846 12.98770119256607 175.30171772791698 79.14359007756256 0.4583919025799696
1.695793533945999 12.97016314749401 158.42493459739825 82.91224245641365 0.4671257458831065
1.7192586323619394 12.950923242113493 143.33915489234116 86.8798084688514 0.4761729827769693
1.7422607542709645 12.930029485776634 129.82929232933012 91.05793875787683 0.48554826204988605
1.7647412431382616 12.90739008621741 117.72459973624477 95.46055730381732 0.495272862860742
1.7866690255222295 12.882964351487095 106.86375704951332 100.10148826427928 0.5053649415233937
1.8080087599471446 12.856718949969787 97.12291015006377 104.99716659590771 0.5158498642271483
1.8287209363421868 12.828594629951986 88.36297457417729 110.1641230227105 0.5267501534074808
1.848801776385514 12.798640513260027 80.4948272930172 115.61988700652444 0.538088835496535
1.8681894097000933 12.766747908097155 73.40921085829694 121.38483382935058 0.5498958862316824
1.8868630491545078 12.732905858213769 67.03443944897154 127.4802842066803 0.5622007560523292
1.9047878294225644 12.697102659386847 61.280021153254886 133.9287619823871 0.5750330681364804
1.9219330844693365 12.659300515718666 56.09646728526529 140.75573136740272 0.5884283784056838
1.9382514096663155 12.619423400341606 51.413414038303046 147.9889563897135 0.6024253022843915
1.9537501094905947 12.57759744163476 47.179961086022836 155.6570417072675 0.6170600070339374
1.9683697393147894 12.533682755171201 43.356007309133446 163.79349134383753 0.6323796432220159
1.982090308844268 12.487698210846581 39.89507903506962 172.43192977276283 0.6484253229058741
1.9948845936788497 12.439635904335866 36.759449453063446 181.61186706018933 0.6652510130079823
2.006718161290119 12.389478613744746 33.918782317312946 191.3751534706978 0.6829106786056633
2.017577188726399 12.33723368988882 31.340325566453178 201.7677886869311 0.7014635080459962
2.027418694556959 12.28286464196767 29.00324365065139 212.83982171640483 0.7209725788110473
2.036234182029026 12.226414298336143 26.879574679259427 224.64642320301067 0.741507269003554
2.043984998389123 12.167838001596973 24.951586236805618 237.24898887223213 0.7631455665445737
2.0506511475995977 12.107151044534952 23.196302516217262 250.71413289434324 0.785969350765722
2.0562239929623036 12.044400020940142 21.600676837951987 265.11494810659553 0.8100668776743658
2.0606841268088067 11.979589771749128 20.14933009927275 280.533335744706 0.8355384985485458
2.063997031039735 11.912710549440341 18.827759628843133 297.05859516329355 0.8624899304144543
2.066165739151992 11.843828655983893 17.624649098069245 314.79117565648363 0.891042064344109
2.0671655355040164 11.772954637964757 16.52851078090646 333.8405415981338 0.9213211515981804
