M[M_sun], R[km], Lambda[1], P_c[MeV/fm^3], rho_c[fm^-3]
0.24162668629717493 15.618656898711224 2160425.4255784233 3.5677272577965504 0.1711233750220791
0.2536434272117406 15.277287238228418 1723283.7436413448 3.7848085312826076 0.17388803501207786
0.2660379656957333 14.981324220495146 1383112.2556654832 4.011378205035927 0.17666637980374755
0.27881235121398645 14.723594450914689 1116464.985826104 4.247692715476079 0.17945710248211788
0.2919664452167879 14.498490933587599 905987.1684488455 4.494377048483852 0.18226676567991001
0.3055010143982412 14.301289331878952 738667.349749737 4.751585522286313 0.18509105046648117
0.3194165123466128 14.128205223754659 605135.8740195406 5.020002541967712 0.1879366222222501
0.3337143769946431 13.975983101671002 497714.0489312057 5.299849218780636 0.19080004643224394
0.34839375610918194 13.842085845937977 411030.615919768 5.591857575045091 0.1936876887559905
0.3634547868141685 13.724120916722757 340675.98811752105 5.896190584547666 0.19659453272858105
0.37890835783524873 13.620054003291681 283328.0001036308 6.213714087063823 0.19952829618915832
0.3947383471289467 13.528534519888261 236427.59625842245 6.544688366241078 0.20248520862457564
0.4109630216577198 13.447921951528631 197893.12917131602 6.88981007775011 0.20546888433657676
0.42756965312044515 13.377104536092011 166106.70815588158 7.249786802867034 0.2084824429752768
0.44456313843773637 13.314995957752418 139825.18072132327 7.624881690258383 0.2115214982645394
0.4619434176754956 13.260611606781183 117996.8798657399 8.01603536619713 0.21459208302040486
0.47970694846360795 13.213191904413696 99827.1001827355 8.423956555509253 0.21769590626101779
0.49786291046801767 13.172017476901305 84657.9002969051 8.849091861738689 0.22083051936678114
0.5163991389932883 13.136435341525209 71949.05163233448 9.29230306903434 0.22399916802563213
0.5353147811978605 13.105904214446948 61287.92469004647 9.754480200587544 0.2272048496130321
0.5546213530016805 13.079851750192235 52310.97275797436 10.236432646265643 0.23044891474711343
0.5743019494788578 13.057864113570162 44738.66076508978 10.738639447731977 0.2337281611421167
0.5943580845715827 13.039536862954735 38336.571829661094 11.262329498622986 0.23704857929241105
0.6147922291957343 13.024531566645562 32908.78843490689 11.808447617313696 0.2404118798369124
0.6355927209898476 13.012455580669116 28300.65007256301 12.377972557656273 0.24381969527477085
0.6567636505377703 13.00304069451305 24376.375475166846 12.971604189548453 0.2472700999319011
0.6782938104371302 12.995983816100177 21032.380404087373 13.59064744075086 0.25076763599597973
0.700179948160766 12.99105623899558 18040.503418806376 14.236310043642904 0.25431505825837475
0.7224115791134729 12.988015599940065 15733.266581639627 14.909781357927727 0.25791435071256064
0.744998238537565 12.986649485699003 13637.896142716376 15.612104335809027 0.2615655447525001
0.767915761374498 12.986755149466221 11838.367337420543 16.344518362692973 0.2652702695835705
0.7911593102666049 12.988128883520599 10291.781535065133 17.10865179332392 0.26903334469212004
0.8147320398479916 12.990652800004092 8958.743447407107 17.905959240435543 0.2728572018037439
0.8386118567868838 12.994121182952716 7809.53306689709 18.73782030676602 0.2767430520369995
0.8627899494263669 12.998396431304274 6816.479669380652 19.60555044018114 0.2806911192434636
0.8872634306933176 13.003333318569771 5956.701924320731 20.511248681505503 0.2847078880551488
0.9120224416860796 13.00884065437937 5212.66598074802 21.456708575040057 0.28879637066088876
0.9370402833904505 13.014719594143486 4566.545508273036 22.44343229054356 0.29295663614902284
0.9623167451949 13.02092082126526 4005.804469355818 23.47340841652753 0.2971921915244094
0.9878399441854745 13.027314036950434 3517.672572619841 24.549076033522773 0.3015092782674093
1.0135808216761089 13.033773723880755 3093.158334277982 25.6723984819919 0.30590968692975645
1.0395416609249943 13.04022697795885 2722.3152949830205 26.845293884022432 0.31039436113334734
1.065691955259612 13.046551496444785 2399.10397234217 28.070878560996896 0.31497218842580116
1.092019173620634 13.05269119871529 2116.3338118394563 29.351231249690862 0.31964378081459943
1.1185164209492693 13.05852399827019 1869.1741896773874 30.68905868781922 0.3244134911006016
1.1451453812450998 13.063987344373617 1652.5065629745268 32.087810513265204 0.32928971611576835
1.171906510790472 13.068994618790512 1462.6358556505297 33.54937179072657 0.33426979240848
1.1987601775497816 13.073451350012968 1295.8517867897574 35.07831004793306 0.3393674600513748
1.2257035787847272 13.077319346858175 1149.4358529883737 36.67668005875244 0.344579676167764
1.2526982352570202 13.0804832842952 1020.4973334452665 38.349477820622745 0.34992053996689887
1.2797372899350004 13.082928228405896 906.9924509837167 40.09898164661963 0.35538686939948005
1.3067800328672439 13.084523293555446 807.0573868875706 41.93065740476471 0.36099319430569765
1.3338151131738034 13.085234993577927 718.8128315017477 43.847931966479436 0.3667411359682385
1.3608236623892593 13.085036458945767 640.8590719323851 45.85557954450561 0.37263893066887266
1.3877518415597863 13.083779313285737 572.0069223073751 47.95888796196964 0.37869629056702414
1.4146076063697166 13.08149530429007 511.0129430208126 50.16255888598994 0.38491859452187643
1.4413296958967368 13.078046316230012 457.05015555243614 52.4719123241098 0.39131334133886936
1.4679229956359545 13.07345270549998 409.1611917449684 54.89331082036549 0.3978919526985357
1.494331264696015 13.06759057145062 366.6659320839975 57.43294077534154 0.4046634838092901
1.520541989309423 13.060454758078373 328.9580279974582 60.097426388296036 0.4116376994894288
1.5465245461186081 13.051972272662864 295.4017571688719 62.89386906541407 0.4188251325865614
1.5722401283375813 13.042097376174768 265.5647011216997 65.8298906006727 0.42623714716539407
1.5976639029989173 13.030776605030928 239.01492019472104 68.91368051223614 0.43388600702199076
1.622750976378291 13.017965113971226 215.32045933588486 72.1540479648943 0.4417849501509776
1.6475023696722344 13.003632439896531 194.17431520254354 75.56047876303651 0.4499482698678892
1.6718523335468545 12.987704792748614 175.30233993457944 79.14297247465782 0.4583904617194587
1.6957894066070172 12.970165513275262 158.425271023499 82.91158140848724 0.46712422679689686
1.719254356322702 12.950926782425721 143.33769045095534 86.879100573497 0.47617137974228274
1.7422562294538535 12.930033399005934 129.82595875281473 91.05718372041996 0.48554658236946385
1.7647369591228113 12.90739384024479 117.72679487537833 95.45974785181161 0.4952710867422996
1.7866652689044282 12.882968264397752 106.86357083283556 100.1006236929458 0.5053630758159645
1.8080047426900236 12.856722771165039 97.1251731003624 104.99624242263994 0.515847901743277
1.8287169759504815 12.828601675179712 88.3662063142991 110.16313435810547 0.526748086372784
1.8487980240666322 12.798646467717843 80.49430680774859 115.61882447452196 0.5380866406720695
1.8681869823088815 12.766752359055875 73.41164693964163 121.38369549695634 0.54989356900408
1.8868594855814207 12.732913012416631 67.03540742108524 127.47906368383788 0.5621983064727233
1.904784358232948 12.697109301160667 61.28139654668596 133.92745676252943 0.5750304912272142
1.9219297772806858 12.659308370964844 56.09689170675367 140.754329471308 0.5884256469789773
1.9382462888872216 12.619432218654373 51.412736572914135 147.98744942354818 0.6024224035599963
1.9537573964019905 12.577640448616418 47.18143207882684 155.65542541436326 0.6170569439970907
1.9683673977552743 12.533691392141884 43.356773195726184 163.7917559311023 0.6323764014566041
1.9820873593308252 12.487707565045785 39.89611082290011 172.43005926427634 0.6484218692164709
1.9948817676008894 12.439646783305603 36.760434459605534 181.60985467616956 0.6652473474225871
2.0067154024301854 12.389489235279246 33.9167518742716 191.37298614527316 0.6829067823787542
2.0175752956936197 12.337245555808503 31.340497365849195 201.7654520070664 0.7014593606697308
2.0274166037839874 12.282876172327033 29.003190813903238 212.83730565681228 0.7209681771153211
2.0362321395308327 12.226427605717232 26.88039661635063 224.64370447989822 0.7415025696259304
2.043983328311891 12.167851038410543 24.95160866600241 237.24605424275822 0.763140562731741
2.0506492066512734 12.107165350907712 23.196438072108506 250.7109547903588 0.7859639932007795
2.0562235788630967 12.044414345071504 21.602279952498982 265.11150922372815 0.8100611551734795
2.060683677727783 11.979604698723143 20.14915310316738 280.52961664322373 0.8355323983565015
2.063996421983186 11.912726874857535 18.828622933552438 297.0545602446877 0.8624833931233317
2.066164844109422 11.843845246725621 17.624795880439606 314.7867925268597 0.8910350478156764
2.067165234058084 11.772972032443986 16.529270101164116 333.83578135389257 0.921313633172647
