M[M_sun], R[km], Lambda[1], P_c[MeV/fm^3], rho_c[fm^-3]
0.24162668629717493 15.618656898711224 2160425.4255784233 3.5677272577965504 0.1711233750220791
0.253644264610244 15.277260182150224 1723200.1746844717 3.784825602365684 0.17388824779489306
0.2660405783856115 14.981261433623319 1382953.953554021 4.0114140918651975 0.17666681347490035
0.2788157654010499 14.723521269915699 1116417.1173204642 4.24774863216457 0.17945775103143974
0.29197092039809086 14.498388225531361 905816.5183392832 4.49445446233386 0.18226762770109667
0.3055062748612005 14.301208783864555 738609.2107055865 4.751687061861921 0.18509214728768894
0.3194232475656221 14.128119345590832 605099.7476712548 5.020128955238898 0.1879379338087297
0.33372093752727827 13.97594385989156 497648.8147111518 5.300003833863852 0.1908016031495791
0.34840313958070285 13.842009603293134 410995.69347894576 5.592040777979254 0.1936894612947759
0.36346671121726754 13.723949241056227 340637.63866811414 5.896406491237744 0.19659656056990496
0.3789194608967783 13.619989572604805 283293.8513740743 6.213965310280513 0.1995305870424021
0.39475165606682633 13.528463895471328 236401.80908147772 6.5449746451537445 0.20248771890389586
0.41097802568229985 13.4478512334119 197860.27516448757 6.890136938940932 0.20547166802363978
0.42758704611370846 13.377026482888294 166067.4552963333 7.250157313545517 0.20848550811516614
0.4445822282526159 13.314927491568815 139791.77793186385 7.625294826374854 0.21152478709367215
0.46196376566715813 13.260554819685135 117977.05244580672 8.016498333803717 0.21459566444913505
0.4797290889087201 13.213151437439544 99807.7839896651 8.424472964732955 0.21769978893645314
0.4978863547769825 13.171981046927897 84638.92765727882 8.849659808501919 0.22083463154401192
0.5164251990920209 13.136389654490888 71935.39487954344 9.292931744441859 0.2240035939396944
0.5353441611404528 13.10584980793072 61274.302510513415 9.755173867189118 0.2272095988217656
0.5546514270968217 13.07979894060592 52304.15481740175 10.237195825619981 0.2304539972238961
0.5743341644381401 13.057845899527603 44727.52488030576 10.739468823828602 0.2337334859935656
0.5943921636170514 13.039514547651333 38323.733296700244 11.263237544006772 0.23705425277640121
0.6148291448172257 13.02451145659362 32899.48897217647 11.809439696237051 0.24041791333201354
0.6356340799633701 13.012449883181088 28290.83043912492 12.379054369031799 0.24382610076019895
0.6568048286303722 13.003010003901522 24369.300025586843 12.972770765530084 0.24727676760183512
0.6783371938036798 12.995973737961695 21026.576751744014 13.591915346866124 0.2507746953575371
0.7002255520205561 12.991062258147704 18171.070798206 14.237686078137463 0.25432252331266514
0.722455589643829 12.988020696524252 15728.076998866969 14.91127275584479 0.25792223629553485
0.7450472030025075 12.986658994205344 13633.137810080014 15.613704245631501 0.26157372243025045
0.7679692157862726 12.986765049624315 11835.4036701686 16.346248450361333 0.2652788936366763
0.7912146770911429 12.988140687574296 10288.019765131312 17.110520741710697 0.26904243275524586
0.814790829751345 12.99066743797642 8955.81980933351 17.907976308073682 0.2728667726454596
0.8386726663498849 12.99412572473709 7806.599106921536 18.73997654720485 0.27675295884614715
0.8628521015170602 12.998413815633086 6813.433521619989 19.607873889491 0.2807015430951942
0.8873345419566628 13.00335744378371 5954.781285867215 20.513750522274538 0.28471885150931525
0.9120912836043047 13.008855389987819 5210.657489261614 21.459400755608605 0.2888078977984628
0.9371117376672122 13.01474115102343 4564.940887222915 22.446303596357254 0.29296856191869936
0.962396261852492 13.020955296839004 4004.2080078820736 23.476494879960104 0.29720472656948677
0.9879175406506525 13.027335124926445 3516.299068195453 24.55239218208113 0.301522451751382
1.0136593782965708 13.0337977587112 3091.544900689879 25.675931479436684 0.30592332144731277
1.0396259168853206 13.040241692348019 2721.2397109769468 26.849086921303417 0.31040869054518444
1.0657766558616146 13.046579142254313 2397.984754728716 28.074949392913755 0.314987248203195
1.0921075846679247 13.052704126804432 2115.532516785463 29.35556544866614 0.31965938126969873
1.1186062639306888 13.058544659044488 1868.3997292681622 30.69370799886548 0.3244298918465851
1.145239124775789 13.063993171202016 1651.983081257132 32.092759762204594 0.3293067212476427
1.1720019260555616 13.069009167845856 1461.9744210517802 33.554679030494526 0.3342876783536973
1.1988580704953684 13.073471516178868 1295.3460647992692 35.08400032699769 0.3393862762616034
1.2258042340183397 13.077338290514984 1148.9617314379445 36.682736864629 0.3445992144859484
1.2527999614274685 13.08050029663296 1020.0648962508337 38.355951433642005 0.34994099459353295
1.2798446385172977 13.08293785264827 906.6243334650828 40.10589395070664 0.35540825375907364
1.3068866095808571 13.084523295171422 806.6591729804169 41.93801756706314 0.3610154451913855
1.333923859015651 13.085239806690664 718.5024045825285 43.855822504522685 0.3667645907279888
1.3609330447707102 13.085035133821446 640.5459329223164 45.8639839253291 0.37266336946665857
1.3878645883615444 13.083772182792877 571.7523155870875 47.96784208221973 0.37872177688370884
1.4147214905275456 13.081481839477307 510.77769273380454 50.17216092775019 0.3849455005010555
1.4414444846820524 13.078027910130851 456.81858038924486 52.48214704475565 0.39134144204714444
1.4680399724948665 13.073428210384469 408.9699347572351 54.90422353685375 0.3979213277687128
1.494448918583378 13.067564539041578 366.49431724692647 57.444580475300505 0.4046942190300926
1.520661191044424 13.0604177294098 328.80075969611937 60.10984605866482 0.4116698873110201
1.5466445006655167 13.051929678218603 295.2587346977275 62.90712605387357 0.4188588726761681
1.5723607582599448 13.042048545739025 265.436523837667 65.8440470135198 0.4262725470184037
1.5977851376239411 13.03072028965491 238.8944056937154 68.92880365279602 0.43392318263452884
1.6228736330233886 13.01789460859166 215.2089668441088 72.17021081707286 0.4418240267606939
1.6476240865668499 13.003556959832622 194.07863071289714 75.57776052517946 0.4499893827704786
1.6719736705492636 12.987623158660236 175.20674781803731 79.16136891379962 0.45843338040150755
1.6959095956665087 12.970069753789721 158.34614748431085 82.93127200421716 0.4671694757285359
1.7193907195670963 12.950859125270856 143.26262519564133 86.90018668396932 0.4762191294079388
1.7423720006192676 12.929913205841538 129.77038843394894 91.07967412271243 0.4855966152361451
1.7648554898107354 12.907270306801273 117.66473860469223 95.4838591955731 0.49532399241431374
1.786782100572887 12.882831611986798 106.81560944958574 100.12637697234733 0.5054186502756386
1.8081204056900195 12.856574004522964 97.07648330058015 105.0237711765462 0.5159063591098995
1.8288301415994133 12.828439432264098 88.32181092610328 110.19258424482068 0.5268096582520071
1.848910540224741 12.79847134570677 80.45743579745341 115.65047481746979 0.5381520193589059
1.8682851795484823 12.76653212698635 73.37827792200294 121.41760388020448 0.5499625940463371
1.8869665927528525 12.732710008783867 67.00210876012363 127.51540953047675 0.5622712351638661
1.9048884203752923 12.69689469538217 61.249724325218345 133.9663366306984 0.5751072521590717
1.9220293951704892 12.659077004203958 56.06885975049375 140.796089298022 0.5885070110018755
1.9383423696743238 12.619189061841263 51.38560665559727 148.0323392752584 0.6025087514231703
1.953838579819083 12.577343580725802 47.15682782123753 155.70357210068198 0.6171481867872158
1.9684547599540074 12.533412644701968 43.33670935709335 163.84345120611368 0.6324729686599431
1.982169773235159 12.487411628800649 39.875274148769094 172.48577908936164 0.6485247497812113
1.99495955683366 12.439335822972353 36.742154553267575 181.669801032285 0.6653565405414545
2.0067955137885187 12.389174238306166 33.900395707693995 191.43754829675242 0.6830228465327751
2.017641932580387 12.336899411093233 31.325153662777215 201.83505935664377 0.7015829068490318
2.0274759323417224 12.28251481737009 28.988157469709144 212.91225687898887 0.72109929979433
2.03628755672202 12.22604722366157 26.866805248034996 224.7246932759386 0.7416425606879561
2.044032287328695 12.167451184959827 24.939885931835782 237.33347515237804 0.7632896234132643
2.0506918987619454 12.10674431032742 23.185715068687642 250.80550633004657 0.7861231928095131
2.056264269745276 12.043997956841825 21.591549087158757 265.21395263134156 0.8102316269555848
2.0607108044584614 11.979147393768205 20.140242897886665 280.64040825013353 0.8357141223783543
2.0640156945524324 11.912250926787598 18.819755332266183 297.1747606850057 0.8626781393742957
2.0661764776470486 11.843350014229621 17.617070034605554 314.91736695681533 0.8912440717960216
2.0671684992315966 11.77245602749775 16.52217895427671 333.97759093281275 0.9215376100748822
