M[M_sun], R[km], Lambda[1], P_c[MeV/fm^3], rho_c[fm^-3]
0.24162668629717493 15.618656898711224 2160425.4255784233 3.5677272577965504 0.1711233750220791
0.25363886906788935 15.277417205924062 1723273.799284031 3.7847423992174076 0.17388721070778831
0.2660304038262007 14.981472244330389 1383207.731062427 4.01123918438272 0.17666469982119792
0.2788024756701267 14.723735264516431 1116706.8890371863 4.247476105159182 0.17945459012886666
0.2919509009868445 14.498698370446366 906110.7255653837 4.494077166769517 0.182263426427422
0.30547968890313487 14.301603186204385 738922.9362745349 4.751192189456108 0.18508680172122796
0.3193910430000425 14.128500280636759 605298.1242385966 5.019512863046302 0.18793154161444178
0.333684120392759 13.976314671925625 497937.55790559354 5.299250305013727 0.1907940163643888
0.348358863855998 13.842377714393917 411227.78518132673 5.591147933576237 0.1936808227795637
0.3634141679646416 13.724381151710563 340858.08952256286 5.8953542760644115 0.19658667794232457
0.3788600866151818 13.620383927456443 283483.93902068515 6.2127409947060785 0.19951942275853515
0.3946861488930854 13.528824099801376 236563.7862564238 6.543579502798261 0.20247548539018326
0.41090406086336595 13.448187952687546 195526.8266493101 6.888544041699073 0.20545810224229472
0.4275047797896162 13.377350437636972 166221.92903524605 7.248351718325022 0.2084705708886414
0.44449069484773984 13.315227096351206 139920.76365733042 7.6232815259236455 0.21150875992753257
0.46186458560367516 13.260867294506975 118087.71190639002 8.014242218058307 0.21457821156985307
0.4796208442856564 13.213412131453238 99914.60661354435 8.42195644623489 0.21768086823537605
0.4977690497070392 13.17221811249747 84724.60877831491 8.846892167906171 0.22081459264357686
0.5162986110155925 13.13661008917409 72017.48084131481 9.289868201573668 0.2239820264069127
0.5352076979182119 13.106026995136462 61342.88785427992 9.751793656931355 0.2271864561130914
0.5545035957297881 13.079990236473865 52361.41554813171 10.233476921368934 0.23042923077233338
0.5741751037923363 13.057993366100808 44781.906899491056 10.735427385141138 0.23370753870531105
0.5942281376441731 13.039654943046495 38374.314389006395 11.258812806322533 0.23702660693527872
0.614650541626542 13.024616031253808 32943.74065403866 11.804605528708642 0.24038851352781038
0.6354414916245408 13.012529452010929 28331.548485716685 12.373783010931755 0.24379488865773816
0.6566030512441496 13.003094553853115 24405.080776663708 12.967086423214798 0.2472442782321352
0.6781252345005327 12.996038405808195 21056.88579029988 13.585737319713413 0.25074029775754336
0.700002139016922 12.991101926480496 18198.457282905776 14.23098125144597 0.2542861493006346
0.7222239824099363 12.988032932751114 15751.815619659368 14.904005887684686 0.2578838136243057
0.7448003666330609 12.986654006336451 13654.492590276273 15.605908717534408 0.26153387686159624
0.7677086786088341 12.986749515493962 11853.47886873535 16.33781872045875 0.26523687354736114
0.7909425694917243 12.988120894432832 10304.763064436369 17.10141451714976 0.2689981522688324
0.8145049517924715 12.990630068441137 8971.056914146711 17.89814849262907 0.27282014036389746
0.8383731939788129 12.994097120282872 7819.513062015882 18.729470725512005 0.27670469003132664
0.8625436537872454 12.99834702450733 6825.766997004026 19.59655349658347 0.2806507556316163
0.8870058921666736 13.003290749317136 5965.521666279822 20.501561092226186 0.28466543553684237
0.9117539246204759 13.008775009789886 5220.0078862194005 21.446284093590005 0.2887517360501138
0.9367589766228456 13.014673654071897 4573.3431659436665 22.43231433226185 0.29291045847992614
0.9620278592419951 13.020856410514462 4011.6423301354257 23.46145750890588 0.29714365533759723
0.9875407283043514 13.027241090422486 3522.8945108642815 24.536235949952452 0.3014582707108583
1.0132759004440568 13.033709226794153 3097.767008791102 25.658718912351567 0.30585689483597805
1.0392220883989867 13.04015356140919 2726.569001336377 26.830607656304707 0.31033887920957215
1.065364355385406 13.046484292748618 2402.7223348962093 28.05511696119463 0.3149138794144637
1.0916804365057167 13.052612423452983 2119.7426988935345 29.334450123919073 0.31958337906548473
1.118166785465835 13.058452457849429 1872.256946206382 30.671057767108543 0.3243499916863641
1.1447863820429085 13.063906803233287 1655.2089747748958 32.06858352160407 0.32922345688230253
1.1715371182091951 13.06893172141752 1465.0038933668775 33.52882407317512 0.3342005444817733
1.1983865990972744 13.07340425975703 1298.0423011826724 35.05627966179985 0.33929461153688345
1.2253186387406079 13.077265678117659 1151.4366332675434 36.6532309129544 0.3445040328532693
1.2523029140761377 13.080441263636292 1022.3055559023045 38.32434023991118 0.3498409096219102
1.2793344060640968 13.082895673585309 908.6323860636771 40.07222113620378 0.35530408132036234
1.306368656976008 13.084507203328462 808.4728581470956 41.90216339705237 0.36090705260356004
1.3333946558588106 13.085228602893233 720.0801386661743 43.81738514615047 0.36665033502056865
1.3603940568219806 13.0850472341812 642.0707257375453 45.82304389219382 0.3725443214115843
1.3873178883365884 13.08381178291357 573.0707978161082 47.92422457326494 0.37859762737318525
1.4141584887795549 13.081524830098697 511.96521554312005 50.125387853851336 0.3848144371934916
1.440890079675871 13.07812944712532 457.8843568072169 52.43229263141999 0.3912045605069592
1.467472695276936 13.073539997284911 409.9499761967301 54.85106712128334 0.39777824025797015
1.4938745670751679 13.06770298495289 367.3703993045531 57.387883525000206 0.4045445078440268
1.5200816893242777 13.060592902974633 329.59106544627775 60.0493505719455 0.4115131023178777
1.5460611131875603 13.052138058127083 295.9733089773718 62.842552800798224 0.4186945286132901
1.571773908960634 13.042290721009893 266.0847375979903 65.77509359952928 0.4261001205184038
1.5971901180241268 13.030990642160564 239.47104771643038 68.85514238508786 0.43374210895234344
1.6222819149568832 13.018220516822902 215.74571664190114 72.09148635136175 0.4416336961688072
1.6470319579605373 13.003919689075522 194.5553040724018 75.49358726769083 0.4497891365856776
1.6713874116297658 12.988032536938043 175.64958494835784 79.0716438710911 0.45822382502352443
1.695321837826442 12.970533042601343 158.75441071984804 82.835368541255 0.4669490898499651
1.7187879343678665 12.95132616996641 143.63712717019524 86.79748776435574 0.47598656688384383
1.7418027706910837 12.930499820703169 130.09822712767203 90.97013699009412 0.4853529354352385
1.764282818112032 12.90789358201039 117.96636850345843 95.36642915511628 0.49506632468469763
1.7862124072378325 12.88350148279456 107.08682277618476 100.0009517902727 0.505147988174139
1.807557276777577 12.857299912016892 97.31655602339261 104.88970075560968 0.5156216602900182
1.8282877687009127 12.829249113810098 88.55110998267602 110.04871952485757 0.5265081574049673
1.8483674458964832 12.799319618534623 80.66223804383431 115.49633607098419 0.537833621897859
1.8677658975730016 12.76747943874513 73.56057097676624 121.25247078271659 0.5496264435743808
1.8864485120949206 12.733697576984703 67.16870828160583 127.33836636282312 0.5619159280720902
1.9043858955647843 12.697943640412829 61.40570959266464 133.7769979624543 0.5747334388388231
1.921526391034706 12.660141136995021 56.20909496224778 140.592728981418 0.588110787771111
1.9378815420699782 12.620416361029303 51.51867157376361 147.81374013313163 0.602088265097304
1.9533906998305808 12.578622813827385 47.27755834840296 155.46911682562126 0.6167038705716719
1.9680277415962688 12.534764903052087 43.44558563987457 163.5911748477285 0.632000887459713
1.9817680571735257 12.488847472760305 39.97543366494812 172.21445495358793 0.6480237794304724
1.9945777382403842 12.440847405424668 36.83391898982258 181.3779011015748 0.6648248407702443
2.0064349444684066 12.390757040926085 33.988340119812094 191.12317805490545 0.6824576993787028
2.017321539021588 12.3386019040079 31.40505353295468 201.49612899771242 0.7009813388946516
2.027179593715702 12.2842852407581 29.06062428339724 212.54723933290575 0.7204606113382149
2.0360067962848984 12.227869707745894 26.93336836586758 224.33035950964015 0.7409609453851537
2.0437951277019506 12.169404482662301 24.999243406375243 236.90783165274368 0.7625638621461098
2.0504945889128177 12.108810918090757 23.241220142397356 250.34467915941184 0.7853465352795441
2.056089787043787 12.04610935617271 21.642026958157544 264.7151872168884 0.809401652328275
2.0605785103520393 11.981377373934473 20.18791811622298 280.1003980510964 0.8348273868213584
2.0639253598784406 11.914590352582124 18.86180429026729 296.58956682517237 0.8617300204656775
2.066120783685486 11.845766306693577 17.656614514892535 314.2816824118205 0.8902264658690121
2.0671532423750607 11.774973882059374 16.558403135254906 333.28722549287806 0.9204472330085076
