M[M_sun], R[km], Lambda[1], P_c[MeV/fm^3], rho_c[fm^-3]
0.24162668629717493 15.618656898711224 2160425.4255784233 3.5677272577965504 0.1711233750220791
0.25364025195091894 15.277407317777213 1723316.7900142558 3.784768081996811 0.17388753083124378
0.26603383381751383 14.981385679980285 1383164.3153877368 4.011293173467846 0.1766653522474295
0.27880643638560404 14.723675844831725 1094193.6573138006 4.247560225805465 0.17945556580159644
0.29195718598184695 14.49861105400601 906057.8087613967 4.494193625043225 0.18226472321732828
0.3054885786675138 14.301463417542562 738855.5763346847 4.75134493811898 0.18508845169831217
0.31940114061844826 14.128368193500073 605218.06931286 5.019703025887794 0.18793351462731836
0.33369606463983026 13.976182397945376 497818.8614062648 5.299482886681423 0.19079635807585973
0.34837212526298333 13.84227371223924 411161.2323997909 5.591423513333557 0.19368348908952515
0.3634295947634759 13.724241200883812 340773.21115220286 5.895679043020789 0.1965897282223069
0.37887820840373204 13.62026680880243 283426.69182561233 6.213118876895517 0.19952286858910306
0.39470680701545635 13.528694456440618 236515.28056610984 6.544010106454131 0.20247926120252818
0.4109266970136568 13.448097819970728 197972.00294550628 6.889035676713522 0.20546228921238438
0.42752902858265573 13.377276051678953 166171.45966163807 7.248908995587438 0.20847518110061544
0.4445199264039313 13.315116311695519 139890.3964602903 7.623902903863018 0.21151370649547468
0.46189534534471793 13.260751313080327 118054.31260027149 8.014938531157785 0.2145835981146225
0.4796542613561399 13.213327858954662 99870.55616134808 8.42273312115948 0.21768670774503734
0.49780480936177557 13.172145989495336 84695.93990545163 8.847746339856723 0.22082077721345844
0.5163373797289321 13.13654659615217 71985.18667329453 9.290813688649763 0.22398868269487265
0.5352488936115618 13.105980392224247 61320.071440272135 9.752836866073174 0.22719359847507908
0.5545502602404222 13.079939033635316 52341.45199075378 10.234624648664342 0.23043687418839093
0.5742248838501963 13.057948717172824 44766.502853323436 10.736674643180496 0.23371554648827592
0.5942755686415088 13.039603182819263 38358.96364682227 11.260178344751697 0.23703513884409533
0.6147060818825022 13.024573717200859 32929.707071800345 11.806097409695182 0.240397586653357
0.6355001652356004 13.012490709444167 28318.87491113877 12.375409799417962 0.24380452099307753
0.6566657295317748 13.003078150381915 24393.27574316958 12.968840649046498 0.24725430466763507
0.6781904826048016 12.996022305040693 21047.788600428292 13.58764388287038 0.2507509129904025
0.7000703020103176 12.991089755501909 18189.70594780203 14.233050368413316 0.25429737436116573
0.7222974467419141 12.988021552995663 15744.564550180561 14.90624843111761 0.25789567079676873
0.7448771179967096 12.986657974054745 13648.10762141687 15.60831438665454 0.261546173046395
0.7677890366751913 12.986752754160308 11847.480715485082 16.340420078360854 0.26524984066406004
0.7910261681293469 12.988128265676648 10300.290610721215 17.104224611410757 0.2690118168056459
0.8145925973449366 12.990643387638618 8966.4263954843 17.901181235527048 0.27283453051209683
0.838465871757013 12.994106608324836 7815.544697687955 18.732712668817133 0.27671958508338723
0.8626394682108055 12.998359428203807 6822.1557793498905 19.60004677290722 0.2806664277593869
0.8871053792030946 13.003304125121893 5962.036751222187 20.505322503898338 0.28468191862600584
0.9118581880318566 13.008805189166003 5217.123320544516 21.45033159307221 0.2887690662707934
0.9368698509370265 13.014684106806094 4570.663709081678 22.436631064420666 0.2929283877277393
0.962139656286171 13.020872058893769 4009.5169786119122 23.466097617174913 0.2971625001959883
0.9876569230309215 13.027269390725664 3520.8483365851116 24.541221260485912 0.3014780749829697
1.0133962351588308 13.033740098278773 3095.9929285101666 25.66403013472255 0.30587739186599133
1.0393463848678703 13.04018524946015 2724.9496481381384 26.83630968512125 0.3103604204476793
1.0654920360395688 13.046523244426593 2401.4231637247744 28.06123646935719 0.3149365181361231
1.0918121880644736 13.052634250901587 2118.5668436051565 29.340965431791357 0.3196068301734056
1.1183034620125187 13.05847428813039 1871.0603056627472 30.6780466149971 0.324374645300157
1.144927169297995 13.06394332001022 1654.202713266221 32.07607867664804 0.3292493780441316
1.1716817700639726 13.068954222749298 1464.1327347407173 33.53680161320492 0.3342274296141925
1.1985293885873278 13.073419878332889 1297.2187929583038 35.06483277920403 0.3393228943773837
1.2254680314379232 13.077291654777614 1150.6170381853708 36.66233479949565 0.344533400582
1.2524571307973875 13.080457655529596 1021.6362441124711 38.33409957279342 0.34987182504902264
1.2794910555817902 13.082912814327603 907.984323023862 40.08261048811657 0.3553362225043223
1.3065281457171098 13.084505639662916 807.9847685183075 41.91322568530812 0.3609404955768865
1.3335596805543675 13.085230837391316 719.6264749705026 43.82924431246145 0.366685586595954
1.3605616120797577 13.085042719444406 641.5603386015622 45.83567510190934 0.3725810512536169
1.3874868726453775 13.083795844284818 572.666824726252 47.93768174121647 0.37863593081724367
1.4143372669793095 13.081522046359469 511.57666846638267 50.1398184356336 0.38485487327392853
1.4410638336906416 13.078105821431766 457.5577785991016 52.447673733113646 0.3912467912494092
1.4676458999631095 13.073507296399894 409.64118010588254 54.86746680013075 0.3978223852440095
1.494053832117299 13.06765781733851 367.11552113227054 57.40537534858143 0.4045906958954287
1.520260628554097 13.06053586458974 329.34232749527416 60.068014111295675 0.41156147225500384
1.5462411205915036 13.05207188983424 295.75720926862414 62.86247417270509 0.4187452300886124
1.5719547125589795 13.042217121745423 265.87927547474607 65.79636606348446 0.42615331493321074
1.597371198327475 13.030906127225274 239.27368330851792 68.87786700103337 0.4337979704656398
1.6224641122882175 13.01811703474773 215.5846691934735 72.11577270512323 0.44169241280847493
1.6472155563361137 13.003809028657749 194.4089755689072 75.5195542718505 0.44985091147319917
1.6715646035439484 12.987907633275057 175.5126621040096 79.0994087637053 0.45828882808020766
1.6955031903740463 12.970389993018735 158.62831824788682 82.86495361863334 0.46701707627161476
1.718976761274893 12.951203206106964 143.51703947949272 86.82916877603334 0.4760583087879393
1.741982342684445 12.930325178457567 129.99439052972275 91.00392712789245 0.48542810605413717
1.7644612968572193 12.907699099119185 117.87272658969555 95.40265364511018 0.4951458093042798
1.7863883939364045 12.883295287231546 106.99538097477993 100.0396421653336 0.5052314803249861
1.807731559673814 12.857074566169496 97.24132883145701 104.93105748068994 0.5157094813824132
1.828457422198849 12.829009336178064 88.47636717321797 110.09313605770528 0.5266013059113291
1.8485340746235002 12.799057152546181 80.59851112336626 115.54388203542089 0.5379318354535342
1.8679291013355257 12.767195865961481 73.50239724860684 121.30340743885348 0.5497301319400735
1.886608100489573 12.73339458096694 67.11661624621634 127.39297943462329 0.5620255360714278
1.904540069914626 12.697620531623192 61.356787799301 133.8353995608327 0.5748487417275575
1.921693930687402 12.659855543806001 56.16555245198838 140.65545468195808 0.5882330012891415
1.9380260273482315 12.620042344814932 51.476184071378874 147.88116521199763 0.6022179605911095
1.9535224704058536 12.578198097289679 47.24030853836696 155.54143162852046 0.6168409143619796
1.9681602118721513 12.534348855672244 43.41010350485825 163.66904422412793 0.6321466927299589
1.9818934339092829 12.488403827770599 39.94443395053293 172.29813899335622 0.6481782928600809
1.9946945039437687 12.440382189338067 36.80406458183573 181.4679299485776 0.6649888295633805
2.006544292734347 12.39026419559712 33.95843673369577 191.220135768004 0.682632001422373
2.0174168060767785 12.3380630853291 31.379612907596748 201.60065982526373 0.7011668708024393
2.027271121798985 12.283738859518737 29.038866640939418 212.6598648299848 0.720657755004734
2.0361052119665333 12.227332271058481 26.903965520069658 224.4519735312213 0.7411711581166759
2.0438695028025835 12.168802993202153 24.980514516297575 237.03909951975902 0.7627876859178426
2.0505511049846077 12.1081628716586 23.223364401699992 250.48683284715526 0.7855861742648161
2.056142557320142 12.045449917036748 21.626648718554893 264.86900011720223 0.8096576059307383
2.0606195464903565 11.980687459450735 20.172233425036598 280.2670385684647 0.8351012032343023
2.0639562835262604 11.913870576837988 18.849389478857486 296.7700264234016 0.8620223973497608
2.0661387495339394 11.84502173542238 17.64485466803437 314.47770810945804 0.8905402644556424
2.067158485807999 11.77419810237547 16.54777599965142 333.50010882349204 0.9207834652242118
