M[M_sun], R[km], Lambda[1], P_c[MeV/fm^3], rho_c[fm^-3]
0.24162668629717493 15.618656898711224 2160425.4255784233 3.5677272577965504 0.1711233750220791
0.2536403313705988 15.277406658455954 1723330.1584273912 3.784769569419002 0.17388754937124384
0.26603394234826855 14.981384687183068 1383146.4149173347 4.0112963002701 0.17666539003298942
0.27880562268267517 14.723699051417128 1116575.2042418623 4.247565097714653 0.1794556223084012
0.29195748211148537 14.498594367430362 906067.2974611145 4.494200369842262 0.18226479832223094
0.305488782003626 14.301440805969724 738798.13099571 4.75135378475571 0.18508854725887292
0.3194014381517262 14.128355478338987 605246.3660033527 5.019714039465781 0.18793362889744084
0.33369706667602067 13.976149005862375 497834.59364487405 5.2994963570758316 0.19079649370038002
0.3483720956889123 13.842229233877198 411158.8325308075 5.591439474111793 0.19368364351444523
0.3634310154106635 13.724219497249944 340785.487142418 5.8956978526656965 0.1965899048864724
0.37887971837025847 13.620249292101647 283435.2655607057 6.213140762935101 0.19952306816343154
0.39470801960956875 13.528681803325888 236506.64692701315 6.544035046100635 0.2024794798895362
0.4109281192588342 13.448100791633314 197965.59975042628 6.8890641512946 0.20546253171386575
0.427529901453687 13.377270974759622 166144.75015160427 7.248941272189378 0.2084754481166715
0.444521332532179 13.315131397444901 139881.94163948926 7.623938893217304 0.21151399299387588
0.46189629075360705 13.260774819979442 118048.17076490255 8.014978860830988 0.21458391009724986
0.4796569205833263 13.21331056318974 99872.68176146857 8.422778105496652 0.21768704596436592
0.49780705994525115 13.172143736128936 84699.54457777782 8.847795812944955 0.22082113541975548
0.5163395637098847 13.13654323618606 71989.52695230712 9.290868450888082 0.22398906822444445
0.5352517144753527 13.10597276192001 61318.671419056154 9.75289728859557 0.2271940121596509
0.5545534153905674 13.079933335985391 52340.73476806966 10.234691125149014 0.2304373168958463
0.5742289208453872 13.057965960445673 44764.35151473129 10.736746884763003 0.23371601030161326
0.5942783796601779 13.039629547936457 38359.80288485348 11.260257437509155 0.2370356330170752
0.6147093549116242 13.024570840221623 32929.757658178234 11.806183820652853 0.24039811217615314
0.635503777554675 13.012487902188344 28317.53115990047 12.375504024728393 0.24380507890813238
0.6566687832521471 13.003066245544314 24391.298441096977 12.96894225602649 0.24725488541146678
0.6781928233957689 12.996025129103494 21046.72053850381 13.587754313888672 0.25075152784072613
0.7000742645255212 12.991080584280189 18189.261439559046 14.233170215301907 0.2542980245363855
0.7223013266330226 12.98802213086747 15744.366435968714 14.906378323722999 0.2578963575879368
0.7448815748464859 12.98665771129065 13647.553140605554 15.608453728315649 0.2615468852685376
0.7677941870699291 12.986750843252773 11847.317576913907 16.340570755387432 0.26525059175124643
0.7910304082538686 12.98812107537868 10300.202072869006 17.104387379652007 0.26901260829248513
0.8145980920166321 12.99064393297712 8966.411416472549 17.901356900928736 0.27283536403186714
0.8384709747861752 12.994112459720558 7815.122212208504 18.732900452378438 0.2767204478516896
0.862645194450844 12.99837022563255 6822.098698428548 19.600249115337213 0.28066733554225953
0.887110245696828 13.00331664407392 5962.021185052619 20.50554037857918 0.2846828733866393
0.9118638763832015 13.00880388473413 5216.823864183026 21.450566040020657 0.2887700701047339
0.9368760847232027 13.01468782582078 4570.550420105918 22.43688110725612 0.29292942626332497
0.9621470758005307 13.020879756807048 4009.234424737265 23.46636639246061 0.2971635917722844
0.98766220938545 13.027276169777684 3520.7506295440876 24.541510032667507 0.30147922213776057
1.013402938147455 13.033737901028774 3095.7991748117797 25.664337786322296 0.3058785791527651
1.0393537977052556 13.040184208161829 2724.872156336582 26.836639975595133 0.3103616682256144
1.06549941257007 13.046519990359942 2401.3317998763214 28.06159094396018 0.3149378294918169
1.0918206612235977 13.052638317199765 2118.4993464350155 29.341342834611936 0.31960818859183315
1.1183115437799196 13.058477843660395 1871.0141847546165 30.678451449751545 0.32437607338098595
1.144935002236526 13.063943714872376 1654.1135503957614 32.07651284168374 0.32925087955571947
1.1716896457163959 13.06895172135759 1464.0644752955445 33.537263722667966 0.33422898697072845
1.1985366663151886 13.0734162107089 1297.1386610490347 35.065328232100796 0.33932453270579577
1.2254767280864822 13.077289693418384 1150.5757466044395 36.66286215861874 0.3445351017608977
1.2524649323578914 13.080460039461427 1021.5871103414197 38.33466490259199 0.3498736158898919
1.2795006905597104 13.082912042898778 907.9724534079877 40.08321231549627 0.3553380843571775
1.3065374283387243 13.084504558517096 807.9486355502808 41.91386649669761 0.3609424328467994
1.333568622040068 13.085229671822031 719.5960421636212 43.82993128854212 0.36668762864414367
1.3605712987852485 13.085037706847505 641.5339471122466 45.836406803888295 0.3725831789435775
1.3874965098428163 13.08379704955241 572.6339211903584 47.938461292727496 0.3786381496724887
1.4143457895088647 13.081522954250275 511.5534727893675 50.14065437983983 0.3848572156817173
1.4410738034961388 13.078105859662838 457.5445742545733 52.44856474362658 0.3912492376304449
1.4676555127673614 13.073509150998518 409.6134919766963 54.86841682002652 0.3978249425267115
1.4940631646744615 13.06765567340169 367.11275762375647 57.40638864022161 0.40459337154363334
1.5202716265970353 13.060534303716906 329.3300761692309 60.06909528490237 0.4115642743119126
1.5462516016699186 13.05206911149571 295.74061033798836 62.86362821778709 0.4187481672250967
1.5719653716941653 13.042212092609109 265.8757464633268 65.79759838343033 0.4261563965009367
1.5973871682463 13.030909661078065 239.28918300006637 68.8791834512285 0.433801206555537
1.6224743604797842 13.018111851418354 215.57307035892043 72.11717963498928 0.4416958143151315
1.6472259099361903 13.00380124228054 194.40241017894908 75.52105857125729 0.44985449016583856
1.6715751542243924 12.987899754250428 175.50374784092247 79.10101006495299 0.45829256389769846
1.6955143063646938 12.970381555144934 158.61983963659682 82.86666753463288 0.46702101484559
1.7189861890983222 12.951195275684992 143.5043122323263 86.83100412370406 0.47606246494740523
1.7419924718406365 12.93031541574857 129.98683915994235 91.00588467140534 0.4854324608679075
1.7644717094482565 12.907689406725655 117.86894116834543 95.40475222907268 0.49515041406608457
1.7863995624723223 12.883283341489244 106.99049914556659 100.04188361663813 0.5052363172796586
1.8077410174923658 12.857059468734754 97.23439902284251 104.93345341487762 0.5157145691536829
1.8284676719108828 12.828994605085 88.47453185075797 110.09570927354987 0.5266067023526338
1.848544830282424 12.799042805656573 80.59403995713161 115.54663656698077 0.5379375253652211
1.8679385937736406 12.767180116440025 73.49972944106446 121.30635842475766 0.5497361390659588
1.8866173281233436 12.733376248570533 67.11549560948211 127.3961434312116 0.5620318861873346
1.9045497180650681 12.697601026723914 61.355317707917514 133.83878306391696 0.5748554218132141
1.9217023971204292 12.659836002933417 56.1653920198048 140.65908872648995 0.5882400817898469
1.9380351254735533 12.620021105412192 51.47510498038283 147.88507154409177 0.6022254746152448
1.953530619137516 12.578173821176067 47.23932643107142 155.5456212775992 0.6168488541663737
1.9681672824993444 12.53432450866954 43.40783619311983 163.67355571736397 0.632155140203419
1.9818992108729572 12.488380678730534 39.94119933864045 172.30298740191805 0.6481872449163764
1.9947012788351934 12.44035482296266 36.80144625370624 181.47314599363392 0.6649983306617752
2.006547584113416 12.390238768302726 33.95681475759884 191.22575329542227 0.6826421001187849
2.017421274907975 12.33803361698454 31.37660412713754 201.60671616930105 0.7011776202156965
2.02727891800899 12.283706302196245 29.038639799517455 212.66638596161113 0.7206691633343673
2.0361065999559536 12.227300194384142 26.911578981574543 224.4590197563801 0.7411833376846096
2.0438725365790487 12.168768165052349 24.978674236559925 237.04670514148276 0.762800654201546
2.050555553775349 12.108126700563943 23.223059830211138 250.49506926284968 0.7856000589999266
2.0561452049935434 12.045411837883414 21.625762999185163 264.87791214641766 0.8096724360651307
2.060620663520005 11.980648430590009 20.171241889285753 280.27669392490145 0.8351170684938859
2.063958681870603 11.91382859808333 18.84855333522213 296.7804825654235 0.8620393381733795
2.0661395867542516 11.844977810085103 17.643919354533168 314.4890662877409 0.8905584466650915
2.0671588013742026 11.774153465502204 16.546668806295443 333.51244388882986 0.9208029474745949
