M[M_sun], R[km], Lambda[1], P_c[MeV/fm^3], rho_c[fm^-3]
0.24162668629717493 15.618656898711224 2160425.4255784233 3.5677272577965504 0.1711233750220791
0.2536438565134422 15.277276735330675 1723149.4965112044 3.784817594940657 0.173888147986203
0.26603963541879416 14.981256561379011 1383077.879512068 4.011397258628445 0.17666661005516848
0.27881463978716997 14.723554646435929 1116432.1999324653 4.247722403589373 0.17945744681949305
0.29196949231000047 14.498408574126476 905907.3917358621 4.494418150129239 0.1822672233562706
0.3055043813851818 14.301225373347638 738666.4133646023 4.751639433022569 0.18509163280532293
0.31942016715521127 14.128142444363592 605112.376575348 5.020069658884932 0.18793731858617102
0.3337177753834661 13.976020687027553 497708.6822444107 5.29993130884246 0.19080087294295447
0.34839883003093813 13.842044973120881 411016.528143774 5.591954843178919 0.19368862985194282
0.36346075604849226 13.724010486171478 340656.6664908944 5.896305215965885 0.19659560937111953
0.3789144494690965 13.620013421299598 283315.0978240276 6.213847468917798 0.19952951247106435
0.39474652470401855 13.528456413515055 236418.01393544773 6.544840360015301 0.20248654140464203
0.41097104046840405 13.447882515796913 197878.64855477048 6.88998361760184 0.20547036227477725
0.42757856801227134 13.377067244978448 166090.84284391173 7.24998351720674 0.2084840703425956
0.4445730982125339 13.314947000285581 139810.55816913905 7.6251010353596635 0.21152324439258402
0.46195515490168765 13.260573382929438 117986.00141553994 8.016281167860688 0.21459398449499462
0.4797186247314232 13.213162425428855 99817.67815153788 8.424230730376754 0.21769796767273195
0.4978747917791928 13.172000182050253 84649.13256080265 8.849393398861867 0.22083270262438986
0.51641339417161 13.136408664512132 71944.15981967252 9.292636848086012 0.2240015178509646
0.5353295283028577 13.105864450789769 61278.87571834857 9.754848484575302 0.22720737108015637
0.5546366862226887 13.079840218285609 52303.08096112855 10.236837835702467 0.2304516131506978
0.5743195180102577 13.057859260521267 44733.449903197616 10.739079782059383 0.23373098822489716
0.5943756405895334 13.039527416599496 38331.21486974386 11.262811599629421 0.23705159146822352
0.6148121627174264 13.02452667955822 32904.40980072541 11.808974332889491 0.24041508314641877
0.6356163666228003 13.012432347540221 28294.07735945996 12.378546913358777 0.24382309607750427
0.6567845744241451 13.003023786554065 24371.649293798884 12.972223547854018 0.2472736399299959
0.6783160973250135 12.995980665698832 21029.300764920812 13.591320596391936 0.25077138394624005
0.7002041403259947 12.991053833331595 18173.723612409107 14.23704060579867 0.2543190215937249
0.7224367750057893 12.988005809028575 15730.886432868805 14.910573167666804 0.25791853730912606
0.745024032548882 12.986657508285733 13635.215514590864 15.612953755573537 0.26156988642289386
0.7679450045180187 12.986756827928586 11837.197574720873 16.345436894975247 0.26527484823662173
0.7911883893580215 12.98814311535142 10289.654636079322 17.109644047822727 0.26903816968974215
0.8147609659045926 12.990662379154987 8956.898737360674 17.90703013245754 0.27286228310981586
0.8386443122336164 12.994127514633115 7807.975373386931 18.738965086575206 0.2767483117078977
0.862824103868597 12.998404876685289 6815.250032228058 19.606783992080853 0.2806966534128772
0.8872997476139293 13.003347949766777 5956.071355353448 20.512576942247662 0.284713708699671
0.9120585346803003 13.008849196361833 5211.661355642753 21.45813788789847 0.2888024905646381
0.9370783625613484 13.014732036131162 4565.664440297204 22.444956701686518 0.29296296768504265
0.9623561749026659 13.020929384393618 4004.9891540558897 23.475047055344618 0.2971988465235326
0.9878795247337343 13.027327818319051 3516.871013592325 24.55083661251095 0.3015162722119432
1.0136221659175804 13.033786402818345 3092.073723922883 25.674274186410045 0.30591692563434636
1.0395861173741707 13.040244233305382 2721.7071373476583 26.847307643582248 0.31040196875434756
1.06573604138435 13.046567182129964 2398.585727145362 28.07303980148587 0.31498018379414927
1.0920684427117673 13.052698822066487 2115.932174676896 29.353532311580587 0.31965206322454326
1.1185639575048385 13.058533221112654 1868.7827020891407 30.691527041945218 0.32442219837972636
1.145193069283946 13.063988988290786 1652.092991803425 32.09043810376893 0.32929874425793193
1.1719570522794742 13.069004497414216 1462.2551703605166 33.552189437129336 0.33427928816736885
1.1988118836439292 13.073462713750164 1295.5782740401492 35.08133104802376 0.3393774496796798
1.2257576763613476 13.07732430662362 1149.1928015861977 36.67989564623409 0.34459004915521757
1.2527527168422492 13.080495490045132 1020.2895243937897 38.35292499018219 0.34993145984436846
1.279793706730365 13.082936405586931 906.8349121082317 40.10265141261979 0.3553982224294949
1.306837251242254 13.084522503919684 806.8443824036881 41.934564935541744 0.36100500736322494
1.3338729153259559 13.085240676278927 718.6693216231496 43.85212106895258 0.3667535881472329
1.3608807610743103 13.08503544108407 640.6981629573581 45.86004144160508 0.372651905259535
1.3878114351567676 13.083778825164762 571.8615866915645 47.963641710463676 0.3787098212697816
1.414667830076402 13.081486370549888 510.880585530689 50.16765660846795 0.3849328789020404
1.4413910150496945 13.07803863075225 456.9246628683015 52.47734592857804 0.3913282599809435
1.467985435871447 13.07343940006159 409.06913366878115 54.89910436448892 0.39790754787736976
1.494394108317838 13.067576148270872 366.58671407503414 57.43912026540259 0.404679801067651
1.520604677106919 13.060435180433968 328.8455112194717 60.10401995365103 0.4116547879063509
1.546588105955735 13.051950514926133 295.3223572273587 62.90090715035643 0.41884304507229225
1.5723040617602078 13.042071432985216 265.49824416191575 65.83740617564138 0.42625594078578705
1.597728409703013 13.030746852835211 238.94962308036284 68.92170930654342 0.4339057433555343
1.6228148411917773 13.017930205987483 215.2610157291585 72.16262872341346 0.4418056956820273
1.6475674406434095 13.003592752252755 194.12312729888737 75.56965352959512 0.4499700964201056
1.6719219203865046 12.987657712336365 175.18306348206858 79.15273900238877 0.45841324691691865
1.695853578400109 12.970117047894355 158.38614337041787 82.92203497679654 0.46714824906642594
1.719334033432045 12.950908561699816 143.29923969606503 86.89029498975606 0.47619672958735193
1.7423199619115597 12.929970127751144 129.793833141382 91.06912364440161 0.485573144305395
1.7648000506873656 12.90732798576306 117.6929440652375 95.47254829432661 0.49529917377137744
1.7867274106641098 12.882893925038049 106.83792854255681 100.1142957993707 0.5053925796284818
1.8080665343145073 12.856643833757458 97.09663475067507 105.01085708356185 0.5158789360063782
1.828778629521631 12.828514246334896 88.34271642392241 110.17876889764187 0.5267807740360458
1.8488581419762506 12.79855326889962 80.47638048212237 115.63562717296192 0.5381213492488809
1.8682450760278437 12.766650001576542 73.39176485162902 121.40169692362132 0.549930213311983
1.8869161862314534 12.732804253845272 67.0174450453093 127.49836489606068 0.5622370438516473
1.9048388149687885 12.696996024166829 61.26353417768917 133.94809740020006 0.5750712422548371
1.9219823634489048 12.659185078809006 56.082280294822056 140.776498984898 0.5884688416220905
1.9382979275469998 12.61930136787124 51.399583503263855 148.01128056092818 0.6024682439384197
1.953795705698875 12.577465252697495 47.16802349698554 155.68098549341948 0.6171053829055021
1.9684137708919347 12.533544080651193 43.344758349151846 163.8191998292507 0.63242766688642
1.9821310631679214 12.487550369182994 39.88425022118138 172.4596396427586 0.6484764861510867
1.9949214030626021 12.439481494851671 36.74871227401931 181.6416787566999 0.6653053154265389
2.0067609913793407 12.389327860489034 33.908230146482566 191.4072605663954 0.6829683979166655
2.017609432800813 12.337062613810735 31.331914501308002 201.80240471374532 0.7015249480790019
2.0274489209117927 12.282683339562764 28.99527407051699 212.8770951994198 0.7210377865395803
2.036261540142571 12.226225831813183 26.872925596235298 224.6866991002596 0.7415768868507818
2.044009712647914 12.16763855608236 24.94561249461098 237.29246337904675 0.7632196945723289
2.0506724018020033 12.10694148520765 23.191298802293137 250.7611806536014 0.7860486095792845
2.0562482184153086 12.044203866927225 21.596415504786815 265.1658930743866 0.8101516530606103
2.0606975986682095 11.979365496126018 20.14426798671227 280.5884321349288 0.8356288694520836
2.0640076749361236 11.912472133874713 18.82410456062022 297.1183703911051 0.862586776994101
2.0661705424014505 11.843582867373259 17.620402198938272 314.8561096589906 0.8911460109105873
2.0671686412449497 11.772700418469332 16.52640884447323 333.91106259984394 0.9214325338872037
