M[M_sun], R[km], Lambda[1], P_c[MeV/fm^3], rho_c[fm^-3]
0.24162668629717493 15.618656898711224 2160425.4255784233 3.5677272577965504 0.1711233750220791
0.25364111116265553 15.277357927957905 1723111.0503153654 3.7847836577307166 0.17388772497525296
0.26604079458391433 14.98114151892872 1383046.2815432346 4.011325916268545 0.17666574792485246
0.27880823800487464 14.723650791718814 1116592.0932071197 4.247611242897599 0.17945615752298408
0.2919608449943049 14.498538838686889 906029.2771402027 4.494264254621045 0.18226550969406957
0.3054935774380225 14.301387087982992 738777.8343278699 4.7514375777646425 0.18508945238329075
0.31940667132430606 14.128329455066348 605233.2413584748 5.019818357445413 0.18793471123674255
0.3337006329208943 13.9761524842547 497829.94961259025 5.299623945780211 0.19079777830692518
0.34838129524439115 13.842181297240568 411115.15659646224 5.591590651584048 0.1936851061980768
0.3634387509813539 13.724179858122332 340745.1753846205 5.895876014536865 0.1965915782204695
0.37889089389288816 13.620150789750145 283393.1406837339 6.21334806445847 0.1995249585037174
0.3947193692083548 13.528602930510083 236473.39496060956 6.544271271532402 0.20248155126744788
0.4109406600502949 13.44804736337477 197939.89025644748 6.889333859912451 0.2054648286656342
0.42754500174009574 13.377209511766214 166139.6917986891 7.249246993984868 0.2084779772747358
0.44453717787940034 13.315054643330004 139861.69874014423 7.624279782736183 0.2115167066936374
0.4619136838474535 13.260707134631154 118027.72197971985 8.015360862616866 0.2145868651898988
0.47967396482258357 13.21328237740881 99857.56445659228 8.42320419722934 0.21769024957853042
0.4978269602355411 13.172100800594642 84680.42177099071 8.848264423171997 0.220824528358021
0.5163614690666903 13.136497989668168 71973.93530028887 9.291387161352771 0.2239927199784537
0.535275406041526 13.10593759387401 61309.23444978792 9.75346961494921 0.22719793060881793
0.5545780226983517 13.079891348347111 52330.31777739316 10.23532079660895 0.23044151026213383
0.5742564015236485 13.057902552238602 44755.705039310924 10.737431165215856 0.23372040359408414
0.5943067161053245 13.039604308451574 38347.747055071115 11.261006614898074 0.2370403138909585
0.6147388108789467 13.024556213935405 32921.64915116928 11.80700231903047 0.24040309001192345
0.6355343913722196 13.012482940829521 28309.026200067954 12.376396544079022 0.24381036358143504
0.6567007804080536 13.003069019568173 24192.782620213107 12.969904697874272 0.24726038633440087
0.678229660258557 12.996004608829262 21041.47322947229 13.588800341350487 0.250757351841386
0.7001126139647993 12.991082231965203 18184.48966709614 14.234305434764925 0.25430418315737674
0.7223404061722501 12.988005616419358 15739.412283464922 14.907608701701863 0.2579028630601055
0.7449223100087131 12.98664868259503 13643.764974492231 15.60977361297015 0.2615536316433773
0.7678382748487362 12.98675108346326 11843.9577930414 16.341998015387375 0.265257706284377
0.7910776887430002 12.988126873870707 10296.808118896633 17.105929175189154 0.2690201055220865
0.8146462048783877 12.990653984740776 8963.247534948985 17.903020866784757 0.27284325943087473
0.8385216193586849 12.994108096440035 7812.968091229944 18.734679209361683 0.276728620319674
0.8626978691855339 12.998376902161267 6820.1151752607275 19.602165784156146 0.2806759344264703
0.8871673492333796 13.003322864010705 5960.378140604496 20.507604180230537 0.28469191728547305
0.9119213464785774 13.008815464493338 5215.363909935777 21.452786826769376 0.28877957887048095
0.9369360736432162 13.014699575210722 4569.181042121244 22.439249630032588 0.29293926375850604
0.9622079621848426 13.020897202080622 4008.098419706447 23.46891236417952 0.29717393171991685
0.9877271978042309 13.027290819905582 3519.5809873123494 24.544245431755087 0.3014900885797806
1.013462713331604 13.033749813723617 3094.5680801763233 25.667252026979654 0.30588982576871293
1.0394213204518563 13.040201514005991 2723.9233268496228 26.839768671832992 0.3103734878766181
1.0655700065199927 13.046530812090914 2400.3099872054895 28.06494873451984 0.3149502514191764
1.091892379535945 13.05266304816298 2117.634174930538 29.34491782216322 0.3196210563519642
1.118385155411175 13.058495889112924 1870.355611587192 30.682286299288904 0.32438960106122106
1.1450100728243044 13.063954869328569 1653.6825386550315 32.08060126384794 0.32926494584485316
1.171768225638051 13.068966194047562 1463.545778800569 33.54164113549068 0.33424373930327117
1.1986184692381907 13.073426838607945 1296.6881857336891 35.0700215092559 0.3393400521009974
1.2255594804780248 13.077298809873442 1150.1515008197578 36.66785768505168 0.34455121655587945
1.2525484232737216 13.080468852444124 1021.1540213756979 38.34002012966523 0.3498905800752774
1.2795874786855583 13.082911667081797 907.6469965030585 40.08891328806548 0.35535572126173476
1.3066251641805637 13.084516439352097 807.5130200805664 41.91993676999854 0.3609607842026305
1.3336572975058694 13.085232672294026 719.300317722775 43.83643888932879 0.36670697259916496
1.360661541683999 13.085039323461983 641.2821178573801 45.84333810178325 0.37260333421631037
1.3875886978917829 13.083791939462795 572.410637731117 47.94584587986832 0.3786591685912881
1.414440623273976 13.081512231504455 511.35404044590894 50.14857319155107 0.38487940506480334
1.4411688036711678 13.078090844132085 457.3608862299833 52.457005214222185 0.3912724120003294
1.4677525903989055 13.073486027513225 409.44697899739003 54.87741630517562 0.3978491675222108
1.494159189996884 13.067632326488196 366.9237631635991 57.41598752057607 0.40461871787628717
1.5203686337405204 13.060503114647462 329.20419774394696 60.07933723684502 0.411590818182409
1.5463502359654873 13.05203350568861 295.620227989739 62.874560511185884 0.4187759907809525
1.5720649328252183 13.042168196640386 265.76012024696684 65.80927220940644 0.42618558833986353
1.5974872574723742 13.03086156464 239.19173662305363 68.89165428330988 0.4338318622794357
1.6225743704152162 13.018062603559542 215.48030002135826 72.13050762743667 0.44172803714025016
1.6473268584826133 13.003741510137747 194.3229742736639 75.53530899881908 0.4498883915952969
1.6716750508118916 12.987831898863448 175.43610442529518 79.11617944319168 0.4583279538835804
1.6956143478159476 12.970304321590264 158.54621186523468 82.8829037819848 0.46705832569471706
1.719078505184615 12.951079272942973 143.45009326914519 86.84839077295567 0.47610183715356597
1.7420838927863262 12.93020431483964 129.9344884428482 91.0244289613934 0.48547371508722315
1.764569144346704 12.907588392735 117.81081843389276 95.42463269830975 0.4951940362546838
1.78649565985798 12.883168824395693 106.94607090422872 100.0631175723668 0.505282139234912
1.8078365325384302 12.856940215338271 97.19708110668192 104.95615090551996 0.5157627673226376
1.8285607455902348 12.828857269196844 88.43483550270976 110.12008630369981 0.5266578248469489
1.8486359140334696 12.79889921201589 80.55930732865335 115.57273135543439 0.5379914281935471
1.8680280651233416 12.76702454301938 73.46795343102305 121.33431440087527 0.5497930471886119
1.8867049130361184 12.733209172758924 67.08312426341243 127.42611745718811 0.5620920438183026
1.904634116199228 12.697423754993023 61.32711009147653 133.8708366813797 0.5749187056066455
1.921769034329676 12.659596934923195 56.13893267702146 140.69351597940292 0.5883071591705439
1.9381139084072947 12.619819477164132 51.4531770754206 147.92207846844218 0.6022966592754421
1.9536095446113846 12.577971720008334 47.221257111140794 155.585312369993 0.6169240727595943
1.9682405939284342 12.534095251714033 43.38915053661492 163.71629601411763 0.6322351685895023
1.9819689692974123 12.48814002473658 39.92589313918909 172.34891969514473 0.6482720538736864
1.9947656114621686 12.440097566592245 36.78657769816257 181.52256135958763 0.6650883414360427
2.0066113784132087 12.389966223557593 33.94409869584328 191.278972418325 0.6827377727742945
2.017477218687609 12.337748795321486 31.364357201861328 201.6640927877213 0.7012794580536558
2.0273279565179863 12.283409960924955 29.024702996088553 212.728166143702 0.7207772440667444
2.0361532560477524 12.226984019961213 26.900641547222776 224.52577490698354 0.7412987255516426
2.0439128254330234 12.168436601980822 24.970306248774737 237.1187602786976 0.7629235148295949
2.0505895440052955 12.107775101262177 23.212652166327473 250.5731008937998 0.7857316026915243
2.0561724718669483 12.045052377262852 21.616250351475426 264.9623449398171 0.8098129371387893
2.0606435716472915 11.98027163820166 20.162844464451243 280.368169486359 0.8352673771373413
2.0639749568279653 11.913434509404778 18.841615537254413 296.8795453234952 0.8621998375916311
2.066149294201679 11.84456741160092 17.63717332714643 314.5966756415644 0.890730708075432
2.0671618176402706 11.773727395084496 16.541239737814152 333.6293090768343 0.9209875267039226
