M[M_sun], R[km], Lambda[1], P_c[MeV/fm^3], rho_c[fm^-3]
0.24162668629717493 15.618656898711224 2160425.4255784233 3.5677272577965504 0.1711233750220791
0.25364156457462067 15.277356045362671 1723125.4698854925 3.7847965012697373 0.1738878850637709
0.26603762218538707 14.981290654628104 1383022.8545428787 4.01135291568192 0.17666607419682914
0.27881149754071044 14.72356210371222 1116538.6489185279 4.247653311340674 0.17945664545352794
0.2919640961225326 14.498505758067473 905950.901091828 4.494322495715317 0.18226615822217135
0.3054978505816561 14.301316043332342 738735.8140877062 4.751513968731965 0.1850902775515322
0.3194120347425341 14.128251379432106 605157.1251751222 5.019913460697834 0.18793569796969292
0.33370635207195465 13.976148941636806 497764.2153446728 5.299740264729292 0.19079894944573436
0.3483875964632681 13.84213990044084 411072.6325693404 5.591728476337431 0.19368643969048005
0.3634483873781972 13.724096437541494 340717.83883047017 5.8960384410433155 0.1965931037645912
0.378900163164267 13.620092940219791 283361.3291217007 6.213537057846362 0.19952668189585213
0.3947281105065086 13.52859166896068 236449.491513376 6.544486635267819 0.20248343971646535
0.4109521145063753 13.44799488020511 197916.3788390174 6.889579750943018 0.20546692277683468
0.4275580591669489 13.377147184055175 166124.4487183573 7.249525719157681 0.20848028309665934
0.44455112771521416 13.315011937318188 139833.07357845452 7.624590571398186 0.2115191807712234
0.46192866586767567 13.260684324514685 118012.98425587101 8.015709134815815 0.21458955935692364
0.47969128473364164 13.213233760450658 99841.09927043434 8.423592668056527 0.2176931703360786
0.4978456148472231 13.17205555687249 84670.6760136841 8.848691660041167 0.22082762173549805
0.5163805866940426 13.136494620259876 71959.0077252269 9.29186007716349 0.22399604933524403
0.5352962342461124 13.105905020803817 61300.045206648465 9.753991415369994 0.22720150313070367
0.5546006991446294 13.079879049168957 52320.16671456554 10.23589488206156 0.23044533344729676
0.5742779165054253 13.057898131297263 44747.51501928857 10.73805504118383 0.2337244090710511
0.5943333449120933 13.039589266368042 38343.13793950625 11.261689661946656 0.23704458158127867
0.6147669467363978 13.024533541229383 32913.874307291044 11.807748571211803 0.24040762847028022
0.6355650179033788 13.012472455198655 28306.469703020957 12.377210287074272 0.24381518181409206
0.6567335078721775 13.003044151011068 24380.846110063583 12.970782194917021 0.24726540174766262
0.678263073925268 12.996007141767912 21036.94994576311 13.589754050772088 0.2507626618399314
0.7001470861575118 12.991066205932615 18180.10736304867 14.235340468821228 0.25430979826764705
0.722377650825197 12.988006286783774 15736.195503283272 14.908730501063346 0.2579087944361952
0.7449622087115347 12.986647910149657 13640.795609154711 15.610977024395671 0.2615597826843302
0.7678786214269483 12.986751419157839 11841.305509339056 16.343299332296898 0.2652641930227894
0.7911197665840392 12.98813104603649 10294.048496088737 17.107334926820204 0.2690269412162409
0.8146903998206877 12.990654476775989 8961.132505166112 17.904538015180368 0.2728504581915306
0.838567456468155 12.994129533862566 7810.928533763235 18.736301026081627 0.27673607172835163
0.8627460117345459 12.998382449603392 6818.347926980088 19.60391335215043 0.28068377466192723
0.8872167568824743 13.003323296436454 5958.526315717256 20.509485908109582 0.28470016330880554
0.9119739086756876 13.008820801594187 5214.001146020993 21.454811698844527 0.28878824878633014
0.9369892856164665 13.014716755377316 4567.73331384215 22.441409212613994 0.29294823343506937
0.9622643302507611 13.020908464347263 4006.8827033883326 23.471233752071413 0.29718335956589736
0.9877854222541552 13.027303025930824 3518.5481796088893 24.546739548288052 0.3014999965207534
1.0135242651071794 13.033760848293873 3093.9263616501735 25.669909219354427 0.30590008038583355
1.0394834394112935 13.04022064271434 2723.112693037422 26.842621416587072 0.3103842650326066
1.0656342531291174 13.04655331191924 2399.6436682920707 28.068010381182066 0.3149615777814859
1.0919599619427518 13.052669461205214 2117.100311188566 29.348177521750333 0.31963278926901206
1.1184533315565073 13.058509822037852 1869.7487043903632 30.685782958897928 0.32440193575456977
1.1450805800594226 13.063964384017897 1653.130643882915 32.084323473424526 0.3292777349903354
1.1718400399857278 13.068980329141736 1463.0751200038944 33.545632543933394 0.33425719076125454
1.1986908805263503 13.073439659978499 1296.25577888228 35.074300949025286 0.33935420304815594
1.225633998054146 13.077310616305446 1149.7547725525224 36.672412740331275 0.344565910459104
1.2526261200590105 13.080476506515044 1020.8561928700864 38.34490319328039 0.3499060485503363
1.2796646564972682 13.082926351343218 907.3456685120988 40.09411163387385 0.35537180320701073
1.3067060074231915 13.084517780817622 807.3187953701462 41.9254718794293 0.3609775176770051
1.333739274229731 13.085228296222885 719.0331762290665 43.84237280070915 0.3667246112525803
1.3607446473658926 13.085039708223745 641.0725429085701 45.84965838484893 0.3726217127409198
1.3876734143670664 13.083784803417299 572.2153647725623 47.95257952197552 0.3786783347103922
1.4145270987578742 13.081501346937852 511.1818749243299 50.155794004813885 0.3848996385793158
1.4412481386011964 13.078059212440964 457.1797206692666 52.464701739055265 0.39129354377388237
1.4678418111439033 13.073469466143518 409.3043087780447 54.885622609795796 0.3978712574183766
1.4942478019765866 13.067611424152965 366.80603812708625 57.42474043222266 0.4046418303854645
1.520458464759172 13.060478183611199 329.078412204173 60.08867658874798 0.4116150228016867
1.54644058084043 13.05200245237649 295.51112881775606 62.88452941417103 0.41880136243161264
1.5721559994235537 13.042135035034189 265.66543225501164 65.81991735088219 0.42621220782656394
1.597578877271214 13.030818463155995 239.10077274210641 68.90302625670978 0.43385981679557833
1.6226661763951868 13.01801676531632 215.39560139377247 72.14266129557495 0.44175742082459096
1.6474176572497425 13.003683971862912 194.24439569634478 75.54830389504062 0.44991930614545084
1.6717664661675897 12.98776597476158 175.3591500451566 79.1300123882219 0.4583602259860767
1.6957040753939423 12.970234851653473 158.4865985038977 82.89770968598557 0.46709234961898904
1.7191683095839714 12.951004336355279 143.40269099268303 86.8642458231793 0.47613774104148937
1.7421730224530876 12.93011597326755 129.8845581212805 91.04133975849963 0.4855113353861438
1.7646531398814986 12.90748368183738 117.76829103476928 95.4427620838983 0.49523381617476014
1.7865834578369681 12.883064907558946 106.90456327177627 100.0824813301664 0.5053239253841707
1.8079258361225763 12.856826376818722 97.16268443280927 104.97684940844277 0.51580672063698
1.828637778055265 12.82871199378548 88.39929712087242 110.14231657069095 0.5267044452388051
1.8487201167758704 12.798767418852231 80.52691820647371 115.59652824375179 0.538040584353136
1.8681097080773978 12.766883821297931 73.4394712193902 121.35980873322075 0.5498449443066368
1.8867850888457578 12.733055568905975 67.05926239885632 127.45345230980826 0.5621469046494025
1.9047119643737993 12.697261552404466 61.30554989905425 133.90006818315862 0.5749764176674578
1.9218598370952868 12.659471897276097 56.11808496395141 140.72491233976922 0.5883683312199699
1.9381790276360245 12.619604770214773 51.4330617389774 147.95582762134467 0.602361577450175
1.9536837696401836 12.57779413797533 47.20280657953496 155.62150962655159 0.6169926701841693
1.9683061198784848 12.533886926669165 43.372755797007635 163.75527434903123 0.6323081529502177
1.9820309932278648 12.487917660795777 39.910102612428716 172.39080935287615 0.648349398546567
1.9948260386290633 12.439865392639433 36.77356738211108 181.56762785089762 0.6651704306748462
2.0066664637932443 12.38972163080907 33.92985324650514 191.327508264819 0.6828250262476366
2.0175277755562977 12.337489697557327 31.352379401051007 201.7164206663051 0.7013723348764225
2.0273734623849804 12.283135849155386 29.01292336213384 212.7845105085412 0.7208758151620542
2.0361934355656697 12.2266994274457 26.889681513188417 224.5866570065105 0.7414039617100721
2.0439492604910137 12.168133358800363 24.960853174059558 237.1844765914557 0.7630355671796508
2.050620687018624 12.107458987956186 23.204109530182723 250.64426856001205 0.7858515752900971
2.0561990571741937 12.044723295845758 21.609034697350385 265.03935135032737 0.8099410802798566
2.0606649574805376 11.979926317834504 20.156397813245576 280.4515792612768 0.835404398887067
2.0639876375570307 11.91307654200744 18.83427384214055 296.9698964810113 0.8623462226560283
2.0661568602942277 11.844194261960668 17.63098409172273 314.6948227433767 0.8908878222813843
2.067163822093015 11.773336557772808 16.534559867087154 333.73589913735236 0.9211558771901569
