M[M_sun], R[km], Lambda[1], P_c[MeV/fm^3], rho_c[fm^-3]
0.24162668629717493 15.618656898711224 2160425.4255784233 3.5677272577965504 0.1711233750220791
0.25364449268954375 15.277279766659532 1723162.390692507 3.7848289413902982 0.17388828941422407
0.2660402849817263 14.981275704444435 1382995.013109807 4.011421111189291 0.1766668982992895
0.27881687030140195 14.723480657031416 1116417.9070351832 4.24775956929157 0.17945787788563103
0.29197136753010994 14.498379944570873 905808.1443373833 4.494469604292023 0.1822677963103151
0.3055072256698138 14.301192624747857 738630.8191276197 4.7517069228250515 0.18509236182399594
0.3194248107835996 14.128104415615626 605072.0123644955 5.020153681538691 0.18793819035363354
0.33372241304497613 13.975924881337958 497660.36988595926 5.3000340765153755 0.1908019076428983
0.34840493470459555 13.84199445638608 410986.2590530661 5.592076612522523 0.19368980800383978
0.3634677935426535 13.723951072912573 340651.88847451226 5.896448722791382 0.19659695721759388
0.3789227159452721 13.619965654851542 283287.6613923695 6.21401444994999 0.1995310351370197
0.39475523213943153 13.528418323546026 236399.7013184647 6.545030641950896 0.2024882099201589
0.4109808733891319 13.447845405182905 197852.41917495074 6.890200873939101 0.20547221252091347
0.42759107134624325 13.377005578853918 166068.11630157975 7.250229786754122 0.20848610766744763
0.44458545416717016 13.314920998684446 139792.46420343377 7.625375637514435 0.2115254304023046
0.46196782360329125 13.260566776704259 117973.67597735989 8.016588892489352 0.21459636499378199
0.47973290918938016 13.213140801961893 99802.57416869861 8.424573977188134 0.21770054840890327
0.497891630781356 13.171957149424914 84634.3740991512 8.849770902301966 0.220835435910591
0.5164300136629633 13.136394171612904 71931.33622786988 9.293054717529438 0.22400445967789745
0.5353497364710701 13.105826247320483 61269.49439719729 9.755309553425832 0.22721052780156506
0.5546575893545147 13.0798064186235 52301.951863009424 10.23734510953962 0.23045499139656506
0.5743409449318477 13.057837303247489 44725.58463521571 10.739631056804829 0.23373452757952645
0.594398640197072 13.039506962934674 38321.839849831646 11.263415165929514 0.23705536256138882
0.6148368474099246 13.024484671342519 32897.69073963363 11.80963375650398 0.24041909354221885
0.6356414249349743 13.012439972748112 28289.11152104786 12.379265982513807 0.24382735373932826
0.6568129577303621 13.003022395019777 24368.414067118352 12.972998960458458 0.24727807187047
0.6783452984543957 12.995972285036457 21025.66810006579 13.59216336385807 0.25077607624970055
0.7002346563681868 12.991053751555262 18170.30651624094 14.237955247138988 0.2543239835676352
0.7224700476919664 12.98800593316428 15727.6256319649 14.911564492258439 0.25792377881592465
0.7450593645720012 12.986648795827278 13633.490363784673 15.614017209180728 0.26157532209231715
0.7679797198299828 12.9867511799683 11834.405459305479 16.346586879500652 0.2652805806210548
0.7912250734294259 12.9881400073304 10287.388607084276 17.11088633510186 0.2690442105121068
0.8148008676953756 12.990676212996485 8955.084578955515 17.90837087700405 0.2728686448468212
0.8386848748478464 12.99413705224788 7806.576922299597 18.740398341546346 0.27675489677290405
0.862866522956001 12.998399841249634 6813.196582791209 19.608328393968772 0.28070358217014496
0.8873490304460457 13.003366994543313 5954.5501513747995 20.51423992461138 0.2847209961462383
0.9121048772944922 13.008850401999625 5210.456335672213 21.459927393345886 0.2888101527087464
0.937126008228234 13.014749085237463 4564.501500305529 22.446865275621096 0.29297089481458966
0.9624108180115374 13.02095766293275 4003.9762170109448 23.47709864993001 0.2972071786587321
0.9879324715283297 13.027337811326126 3516.030964590914 24.553040884912548 0.30152502873977755
1.0136758004432518 13.033801785234 3091.677512814354 25.676622603965722 0.3059259886299734
1.0396404791916705 13.04025475584891 2720.986749547171 26.849828917293856 0.31041149367242543
1.0657924856034655 13.046587425080887 2397.7820764264566 28.075745733949127 0.31499019421496044
1.0921255266289278 13.052714185358461 2115.309977193412 29.356413312218898 0.31966243305789777
1.1186252294682237 13.05854945224376 1868.278343543348 30.6946175083406 0.3244331002001933
1.145255761146568 13.064004587992045 1651.829262771113 32.09372794898017 0.329310047842041
1.1720201668303063 13.06901116652763 1461.7857761930845 33.555717252169785 0.3342911772677881
1.198876614306352 13.073476268618636 1295.177963351914 35.08511348420699 0.33938995717071696
1.2258236612153395 13.077334600399872 1148.8488185614688 36.683921726873706 0.3446030366681371
1.2528204523930069 13.080501836469828 1019.9669197376458 38.3572128097734 0.34994496654604695
1.279864494131742 13.08294050561903 906.5253114888854 40.10724617875828 0.35541243710091525
1.3069077196657521 13.084522256149844 806.6082451764603 41.93945741233403 0.36101979806177503
1.3339451615717528 13.085237397000064 718.4686801773925 43.857366111413576 0.3667691791259632
1.360955737982993 13.085033129866362 640.49848588772 45.8656280592408 0.37266815038473505
1.387886743396715 13.083771710520251 571.7100846815356 47.969593766309096 0.3787267627420831
1.4147433940298448 13.081481078247243 510.7086324125291 50.17403937146616 0.38495076410735646
1.4414686276706892 13.078023360733578 456.79389173832686 52.48414926589531 0.3913469393962265
1.4680618784126152 13.073424732454958 408.9361384855633 54.90635840178893 0.39792707444117126
1.494471969449303 13.067558954609044 366.45874906965895 57.44685756862847 0.40470023181104653
1.5206845307653196 13.060410883452834 328.76882500347 60.11227574751627 0.41167618428903563
1.5466680803094408 13.051922478759053 295.225424424592 62.909719558638535 0.41886547335198776
1.5723841460227759 13.042038078964499 265.41001672635093 65.84681648570461 0.42627947242452996
1.597808704740386 13.030707200630367 238.8743243603734 68.93176226081466 0.4339304554668429
1.6228959665099252 13.01788295879585 215.18258018826708 72.17337284087122 0.44183167152342
1.6476474867813362 13.003542869388953 194.05712631111376 75.58114146070547 0.44999742593597253
1.671996661886941 12.987606153684558 175.19076772844014 79.16496793257184 0.4584417768711277
1.6959338669701756 12.970052879358168 158.3344814660522 82.93512422365578 0.46717832811758636
1.7194140013355037 12.950839236955018 143.24449997108445 86.90431193616567 0.47622847107450084
1.742392438042278 12.92988834666256 129.7620342247657 91.08407412470112 0.4856064036209874
1.7648785247637837 12.907245878329656 117.6560808947853 95.48857633838088 0.4953343428789208
1.7868051502740863 12.882804963583466 106.80422146746984 100.13141536345549 0.5054295229050656
1.80814290553619 12.856545235468246 97.06713640655724 105.02915694497237 0.5159177958004415
1.828852303456327 12.828407571147151 88.30964459759974 110.19834589113992 0.5268217043218181
1.8489318819411722 12.798436742312044 80.44600579843316 115.65666699733053 0.5381648102657413
1.8683074231938783 12.766495616728113 73.37340509511286 121.42423786068176 0.5499760983995062
1.8869857100658716 12.732671665377174 66.99459242575058 127.52249733674147 0.5622854208469368
1.9049083776747056 12.69685207909635 61.243761959235655 133.973943321321 0.5751222701282172
1.9220484033702663 12.659032246567921 56.06256825522418 140.80425948175375 0.5885229296267489
1.9383622062258605 12.619139823030407 51.38166837787533 148.04112188412012 0.6025256452082778
1.953856243878244 12.577292887873257 47.15447531855184 155.71299194738305 0.6171660383396543
1.9684723807537177 12.533357124265526 43.32990095739467 163.85356538027642 0.6324918620213338
1.982185804657052 12.487352929416302 39.871552270001146 172.49668072809376 0.6485448784651696
1.994974710602229 12.439273864351255 36.73845053597929 181.68152965838215 0.6653779043965171
2.0068092976457415 12.389109576896596 33.89633402338954 191.45018008235044 0.6830455548452401
2.0176547562409675 12.336831603374405 31.32161063240432 201.84867832900167 0.7016070791815662
2.027490281139253 12.282443103672712 28.985282303881515 212.92692148259366 0.7211249546409811
2.0362985318573883 12.225972939644256 26.86401734337571 224.74053926069186 0.7416699508498414
2.0440418086569796 12.167372957152688 24.937600037943998 237.35057972344094 0.7633187882781792
2.0506941108261874 12.106664507713699 23.177912988305597 250.8239930773348 0.7861542989637731
2.056270939534042 12.043911949383002 21.589963483186004 265.23399673115233 0.8102649815022076
2.0607153317866387 11.979058613133269 20.138024683890404 280.6620858962909 0.8357496787634803
2.0640200430290965 11.91215916756824 18.818154226055036 297.19827944110364 0.8627162439732914
2.0661787079428997 11.843252992036996 17.61502545228953 314.9429157020164 0.8912849703120371
2.067169265915458 11.772356157840678 16.5207008220962 334.0053381929093 0.9215814346557691
