M[M_sun], R[km], Lambda[1], P_c[MeV/fm^3], rho_c[fm^-3]
0.24162668629717493 15.618656898711224 2160425.4255784233 3.5677272577965504 0.1711233750220791
0.25364481587246 15.277252380898224 1723178.4753382215 3.7848342545895 0.17388835564068894
0.2660408309615653 14.981251877769528 1382938.8111345167 4.011432280657001 0.17666703327571498
0.27881656445774694 14.723513977274184 1116366.1024711742 4.2477769729726935 0.17945807974210526
0.29197252662526196 14.498373428312822 905849.4800176107 4.494493698938989 0.18226806460980113
0.30550891608582154 14.301190970206909 738651.0714865397 4.751738526639473 0.1850927032055085
0.3194269046719579 14.128073226955006 605066.5521165814 5.020193027391602 0.1879385985820436
0.3337268301419665 13.97587096542772 497652.6126018954 5.300082200364268 0.19080239217020475
0.3484077913928656 13.841970348480773 410971.254430144 5.592133634591807 0.19369035970804635
0.3634718871264226 13.723917568466677 340655.9525230546 5.896515924265431 0.19659758838805952
0.37892624120858154 13.619966715156481 283278.18511523976 6.214092644161925 0.19953174817408056
0.39476022383260456 13.528393581448292 236381.22464738708 6.545119747785909 0.20248899125795589
0.4109857608483297 13.447815591285119 197841.94943616673 6.890302611714529 0.2054730789625016
0.427594058956029 13.377018639540431 166061.68066520643 7.250345111282921 0.20848706171771925
0.4445908340459863 13.31491540551144 139785.80364892917 7.625504230116817 0.21152645408210433
0.461974196079506 13.260522054816727 117967.42944467068 8.016732996302899 0.21459747975328272
0.47974101406328934 13.213102043136118 99794.13718140611 8.424734716053042 0.21770175694045857
0.49789822090386976 13.171952156896278 84631.0551752534 8.849947683602855 0.22083671588274226
0.5164392248470911 13.136361527808173 71924.76396435741 9.293250402368214 0.22400583731136195
0.5353586215911835 13.105812730765836 61266.5768238112 9.755525468764358 0.22721200607226325
0.5546659881837491 13.079802897049285 52295.31781196812 10.23758266297893 0.23045657340980097
0.5743508609726563 13.057815155467736 44721.83334880929 10.739889216202755 0.23373618504282892
0.5944054842685674 13.039531313566057 38318.273474197274 11.263697813958032 0.2370571285513859
0.6148481084260033 13.024479718658851 32894.82985720533 11.809942563127631 0.24042097160172313
0.6356534919868271 13.012419637964202 28286.110179251908 12.379602721891096 0.24382934759816827
0.6568257945714907 13.003014856978938 24365.98327358589 12.973362086214726 0.24728014734838608
0.6783589011681027 12.995969445403054 21023.51810024454 13.592558032924128 0.25077827366132216
0.7002486409423887 12.991052772984562 18168.215687534328 14.238383575944345 0.25432630727230887
0.7224845739157558 12.98799570273861 15725.430420152616 14.912028733228889 0.2579262334329324
0.7450743178051684 12.986639162058005 13630.887049844054 15.61451522950846 0.2615778676418826
0.7679962033806886 12.986753630023562 11833.282798342656 16.347125424066764 0.2652832651306452
0.7912430889177136 12.98814399322747 10286.005889103706 17.111468107113765 0.26904703947239617
0.8148189231869275 12.990679003104669 8954.151596311325 17.908998758903625 0.272871624101539
0.83870285922845 12.994145079544852 7805.652439066745 18.741069548290362 0.27675798062060114
0.8628851903559832 12.998418580600134 6812.305017959194 19.60905165376172 0.2807068269806999
0.8873696623414328 13.003365503418395 5953.799943677382 20.515018718962136 0.28472440894383727
0.9121274257405692 13.008860534082556 5209.858251760072 21.460765442188872 0.28881374099120405
0.9371491621475995 13.01475152371291 4564.123185006675 22.447759087727857 0.2929746072012217
0.9624339886657519 13.020957725175412 4003.437782273731 23.478059443211873 0.2972110807257292
0.9879569602846069 13.027342025637209 3515.6230730281254 24.554073182362412 0.3015291295674912
1.0137000491107409 13.033810442291479 3091.1274048007463 25.677722409405032 0.30593023299097427
1.0396648628283574 13.040259475786003 2720.6152973853627 26.851009677573384 0.31041595437214253
1.0658188250074787 13.046584041498937 2397.4891461984153 28.07701297694194 0.31499488229783035
1.0921519634507726 13.052721388196643 2114.975934085533 29.35776254622023 0.3196672894718687
1.1186524971359488 13.058550814587903 1867.8208018255295 30.696064843712136 0.3244382057695014
1.145286912079391 13.064009473383859 1651.600162240585 32.09526866150327 0.32931534157851633
1.1720504311990754 13.069019001896445 1461.625336855552 33.55736941637499 0.3342967452315049
1.198907147653967 13.073475393422866 1295.0067203454216 35.086884899051014 0.33939581475937447
1.2258549430047945 13.077338283472026 1148.67222050966 36.68580725135351 0.344609119078236
1.2528526145686603 13.080501108242057 1019.8473506117912 38.35922009675843 0.3499512873003311
1.2798961530259094 13.08294445541731 906.3954348845621 40.10939804605012 0.35541909425942375
1.3069410925007394 13.084519783932782 806.5191544248574 41.94174871220441 0.3610267250084136
1.3339793112544147 13.08523771129327 718.3547586254458 43.85982253646322 0.3667764808915802
1.360989302440604 13.085031105470204 640.4042440532415 45.86824446187851 0.3726757585281941
1.3879213802843928 13.083768154123359 571.6156665193608 47.97238132339154 0.3787346970293827
1.4147720362888359 13.081461460401997 510.6496368537481 50.17702865359614 0.3849591404053104
1.4415036701396657 13.078020731686774 456.73359978636074 52.487335527112876 0.391355687675741
1.4680987195692299 13.073417513488025 408.87307235083637 54.909755752390176 0.39793621949798963
1.4945088756701201 13.067550990855944 366.40308847947244 57.45048126195471 0.40470980035790727
1.5207213485132627 13.060399195964715 328.73240394754987 60.11614228230352 0.41168620511311654
1.5467054501521869 13.051907920670939 295.19036275325686 62.913846791580035 0.4188759774879534
1.572421635850451 13.042022348548036 265.373256791464 65.85122375536498 0.4262904933448603
1.597835764094153 13.0306833497419 238.83061501654205 68.93647052417053 0.43394202929131087
1.6229331703216625 13.017861311508979 215.16090031837814 72.1784048239109 0.4418438372498134
1.6476857650287655 13.003517890949192 194.03207085495563 75.58652182470003 0.45001022569441
1.6720337841665416 12.987581355147285 175.16240691302912 79.17069535884607 0.45845513889109946
1.6959712847359403 12.970023224412563 158.31210120323212 82.94125460068402 0.4671924157061427
1.7194516168877712 12.950805801026045 143.22716166629644 86.91087682628228 0.47624333732062757
1.742427919961051 12.929827143785861 129.74053427008033 91.09107626031303 0.4856219807953304
1.7649150754749232 12.907203433142133 117.6346554622772 95.4960831842741 0.4953508145750078
1.7868416407632852 12.882765070615243 106.78133125785702 100.13943345638548 0.5054468256017534
1.8081792827068683 12.85649939805373 97.04784588892622 105.03772786891918 0.5159359961754079
1.8288922400857714 12.828369197580153 88.29984411384032 110.20751500451814 0.5268408744988365
1.8489658212613016 12.79838043655564 80.43264665402688 115.666521284914 0.5381851658234355
1.868341376986269 12.766435786583973 73.36047927798037 121.43479525375521 0.5499975893829508
1.8870163116786338 12.732611645106312 66.97915086893538 127.53377697285073 0.5623079961455584
1.9049398444334598 12.69678477673541 61.23330585087903 133.98604874219987 0.5751461699877318
1.9220789841757324 12.658960633520184 56.05300501851505 140.8172616829421 0.588548262859151
1.9383918406168061 12.619063583854398 51.37286323676596 148.05509874196878 0.6025525303897418
1.9538854782403479 12.577211732189873 47.14689083684575 155.7279829512412 0.6171944477925861
1.9685001472898482 12.533271615722201 43.325773016926725 163.8696613897136 0.6325219295007295
1.9822112874565263 12.487264469506103 39.86412823771322 172.51402997472005 0.6485769119521376
1.9949970830243604 12.439175961496336 36.73095336984173 181.70019504353868 0.6654119036543901
2.006831894395389 12.389007843767166 33.89139225832719 191.470282837241 0.6830816938088032
2.0176747842456173 12.336723716607025 31.315452924355867 201.8703521871025 0.7016455481417454
2.027509720524536 12.282331559228878 28.981864797533145 212.95025946024583 0.7211657830366167
2.0363151506536386 12.2258557884536 26.859758494456138 224.76575741293064 0.7417135410263452
2.044056506598957 12.167249686342116 24.933381000018183 237.37780092606684 0.7633652029292387
2.0507126664027133 12.106531889324048 23.179348807141363 250.8534140322056 0.7862038032246589
2.056282116919561 12.043774173424778 21.58693955280227 265.2658962463648 0.8103180641488439
2.0607242204334884 11.978915207982071 20.134925734500758 280.69658523759097 0.8358062657128638
2.064025790189457 11.912010797702443 18.815544126786136 297.2357089658 0.8627768865099634
2.0661828672630027 11.843097568182586 17.612736784136413 314.9835760296065 0.891350059499238
2.0671705725845073 11.772196986846769 16.51834473793463 334.0494975475951 0.921651180829071
