M[M_sun], R[km], Lambda[1], P_c[MeV/fm^3], rho_c[fm^-3]
0.24162668629717493 15.618656898711224 2160425.4255784233 3.5677272577965504 0.1711233750220791
0.25363937004121107 15.277405131245601 1723239.840562622 3.784754480092923 0.1738873612900736
0.26603212319518293 14.981445837863221 1383140.6063747157 4.011264580144719 0.17666500671399413
0.2788034734745193 14.723746231150768 1116576.563620628 4.247515674317403 0.17945504907147258
0.2919549034181087 14.498589175809219 906107.473599785 4.494131946957304 0.1822640364175268
0.30548521337068124 14.301475862529816 725668.6295905029 4.751264039912112 0.18508757784328145
0.3193975918968744 14.128375040583308 605236.8799027833 5.019602312310074 0.18793246968507765
0.3336899885396615 13.976240234747983 497885.18871973676 5.299359707089451 0.19079511786176048
0.34836557265779833 13.84231532955399 411191.1129032498 5.5912775608640946 0.19368207695923295
0.3634212365669337 13.724338646063321 340829.3635231415 5.8955070396874 0.1965881127305999
0.37886918231512606 13.620309467671103 283460.7293052784 6.212918742221202 0.19952104360185113
0.39469599888702755 13.528734241651291 236541.07455070785 6.543782048912156 0.20247726144597572
0.4109147106718886 13.448146132875966 197995.5066878429 6.888775295046891 0.20546007169284644
0.4275144231783416 13.377342413119575 166207.34213625063 7.248613847627929 0.20847273941718636
0.44450430452264045 13.315174934403213 139901.56576219018 7.623573805996903 0.2115110866648512
0.46187905266478874 13.260794080841242 118065.34841817727 8.014569744965847 0.214580745255277
0.4796366508228661 13.213373329597122 99890.54140779347 8.422321772376206 0.21768361497724217
0.49778663737181944 13.17218935756699 83840.09101193902 8.84729394570393 0.22081750168649908
0.5163174896719958 13.136580434430794 72001.96260521113 9.290312930403902 0.22398515732560317
0.5352269870193543 13.10602684468367 61331.0850650717 9.75228435023779 0.22718981565920637
0.5545263310401264 13.079948439450984 52352.613822738036 10.234016775618757 0.23043282599103937
0.5741975475977147 13.057962689757582 44773.93078153176 10.736014054388267 0.233711305303605
0.594250560161878 13.039651918465237 38365.80420570435 11.259455109412395 0.23703062005660747
0.6146768269773213 13.0245942605032 32936.65482926176 11.80530725756839 0.2403927812100864
0.6354690577900625 13.012506998961848 28324.670977839414 12.374548193951247 0.24379941936317542
0.6566323706201508 13.003086647761947 24398.507316435993 12.9679115467173 0.2472489942997177
0.6781552025457538 12.996027350926253 21052.627112007507 13.586634095205968 0.2507452907632254
0.7000345407128276 12.991082109261285 18193.93792417852 14.23195448406257 0.2542914291350783
0.7222588252643567 12.988008101644342 15748.83109594325 14.905060691163458 0.2578893907679091
0.7448368045662204 12.986644935546746 13651.03393733172 15.607040246876462 0.2615396604890198
0.7677468528240624 12.9867423723826 11850.637680848358 16.339042291279334 0.2652429727410196
0.7909821576256107 12.988123686506565 10302.502195045907 17.102736266074874 0.2690045794862735
0.8145461520392876 12.990638231341068 8969.262920663114 17.899574962959743 0.272826908863619
0.838417085630341 12.994089453867067 7817.406846378173 18.730995591947426 0.27671169600361034
0.8625888496899006 12.998355432916755 6824.051796431427 19.598196575397527 0.28065812709001936
0.8870521108687549 13.003292066995197 5963.847045261476 20.5033302859274 0.2846731884179589
0.9118034783861788 13.008780489619785 5218.686553084256 21.44818784559647 0.28875988736490366
0.9368139520591139 13.014666761751183 4572.103415674196 22.43434471498341 0.2929188915338269
0.9620798789771888 13.020872961873783 4010.4870424506557 23.46363998736679 0.29715251903110457
0.9875952336258041 13.0272543001134 3521.9405769849227 24.538580789370737 0.3014675856447196
1.0133325804846132 13.033724581081298 3096.9141802177583 25.66121703983478 0.30586653559104793
1.0392786211283502 13.040167017453319 2725.7130327771274 26.833289593139618 0.3103490110839993
1.0654240988842465 13.046499423355453 2402.0422742362034 28.057995252007185 0.3149245274637561
1.0917418857835186 13.05262835245685 2119.1304706334 29.337514572214207 0.3195944091977664
1.1182308393612728 13.058463327107708 1871.6877578507208 30.67434493541981 0.32436158738558524
1.144852194387885 13.063919940308397 1654.8146649356445 32.072108820630426 0.3292356487377107
1.1716050315441588 13.068939334604792 1464.571390916358 33.53257625182869 0.33421318971070163
1.1984510836096993 13.07340878702799 1297.67436025755 35.06030254954384 0.3393079141360455
1.22538779748066 13.07727807748001 1151.002079882774 36.657512842053784 0.3445178456937155
1.2523750692170124 13.08045226529166 1021.9753757650499 38.328930440939665 0.3498554503724963
1.2794071010606511 13.082902388355105 908.3071117357094 40.07710765035697 0.3553191985626734
1.3064432407398916 13.084505400276354 808.2211350715609 41.90736640860581 0.36092278209573886
1.3334714479172303 13.085233957105135 719.911901885475 43.82296294533932 0.3666669151243832
1.3604725197748704 13.085044710913584 641.8622348520411 45.828984799085966 0.37256159676181544
1.3873973733640443 13.083803054369104 572.8690169353065 47.9305539440923 0.3786156428057253
1.4142460460803674 13.081532521169805 511.77242209702416 50.13217503677099 0.38483345562799554
1.4409712356127606 13.07811928903442 457.7372821920338 52.4395268593691 0.39122442298647647
1.4675530164997697 13.073526531288353 409.79229982159865 54.85878040136184 0.3977990030207383
1.4939582595853191 13.067683323360571 367.23761215380534 57.39611045568351 0.404566231473671
1.5201657159436361 13.060567495437224 329.4725862049499 60.05812857497289 0.41153585210003646
1.54614573379422 13.052106508127082 295.8758279149059 62.851922376188085 0.4187183749275716
1.5718601057666906 13.042254111245082 266.01213197110076 65.7850986062932 0.4261251392694553
1.5972750718253275 13.030953588437383 239.38576071016774 68.8658303505326 0.4337683820442731
1.6223676314299045 13.018175080202052 215.66853856709045 72.10290881221835 0.4416613120276892
1.6471181859812223 13.00386758244341 194.48916831535342 75.50580014671712 0.4498181907354565
1.6714725972238687 12.98797482028964 175.58605606082082 79.08470789324392 0.45825442072126504
1.695406795468257 12.970465793478807 158.6929277235367 82.84928301292099 0.466981065265328
1.7188708022994281 12.951252150202995 143.57329087681416 86.8123879545197 0.47602030848353216
1.7418878423291697 12.93041758285238 130.05096718463565 90.98602910336479 0.4853882895375891
1.7643672283488143 12.907803391781835 117.9223840264732 95.38346613704317 0.49510370762721845
1.786295711675866 12.883402955074258 107.04615115722042 100.0191484708571 0.5051872558213996
1.807638778900746 12.85718905221311 97.2831820302536 104.90915140850187 0.5156629637922049
1.8283673175477286 12.82913788941205 88.51440254006538 110.06960918074189 0.5265519663229373
1.8484458328860398 12.799195509749628 80.62901833596162 115.51869747283124 0.5378798128377484
1.8678433174284728 12.767346033149076 73.53550747880881 121.27642679285461 0.5496752092321235
1.8865235399309268 12.733554240538584 67.14422730992 127.36405134749583 0.5619674776313843
1.9029436346727842 12.698362165168033 61.73116570171965 133.99280532067658 0.7658931453522698
1.914711369792361 12.659921456752897 57.525868483304485 141.46354041627657 0.9828951093929664
1.9223210778026198 12.616149667841185 54.15137797729596 149.80438468849144 1.1911088139553665
1.9263646938838423 12.566470825061295 51.34954394851809 159.04296917621508 1.3914067367254446
1.927401642343548 12.510746291560874 48.96419534519056 169.20947840036766 1.5848472618211529
