M[M_sun], R[km], Lambda[1], P_c[MeV/fm^3], rho_c[fm^-3]
0.24162668629717493 15.618656898711224 2160425.4255784233 3.5677272577965504 0.1711233750220791
0.25364432446142965 15.277265000530976 1723158.9894667815 3.7848249070421582 0.17388823912802073
0.26604051294154996 14.981256243162042 1383046.5482092344 4.011412630151652 0.1766667958109548
0.27881621365542547 14.72350267668126 1116409.7223575497 4.2477463546041205 0.17945772461517073
0.29197086133019373 14.498411660928074 905866.1731709666 4.494451309156564 0.18226759258973566
0.3055060468650207 14.301225778152903 738642.8068876443 4.751682925997045 0.18509210261245485
0.3194241421927347 14.128093919006723 605099.7754893374 5.020123806215462 0.18793788038562423
0.33372156791681323 13.97592496281252 497668.85343046486 5.299997536115557 0.19080153974170364
0.3484027657727788 13.842012757210128 410997.6585224922 5.592033315776898 0.19368938909591535
0.36346621774343174 13.723956246437917 340633.46845140716 5.896397696924942 0.19659647797185806
0.3789197566960795 13.619981914015872 283283.0470671503 6.213955077426374 0.1995304937310935
0.3947506455608343 13.528472380538615 236402.14426838057 6.5449629843772845 0.20248761665463924
0.4109771962882428 13.447857079204494 197863.19170365145 6.890123625121907 0.20547155463757003
0.42758604436524816 13.37703516769452 166071.20818847886 7.25014222174027 0.20848538326452903
0.4445807579315178 13.31494103492064 139800.87149084813 7.6252779982906755 0.21152465313130167
0.46196292008770384 13.260558315740603 117975.63603009634 8.016479475906205 0.21459551856805184
0.4797287670420941 13.213133103848548 99807.77313899726 8.424451929961165 0.21769963078437538
0.4978853452140299 13.171974969977871 84639.87175876743 8.849636674410272 0.22083446404330395
0.5164237016215536 13.136399369960094 71934.5938963833 9.292906136632519 0.2240034136591202
0.5353431717962278 13.105834991385311 61273.196407351796 9.755145612022726 0.22720940537194015
0.5546494765379647 13.079806771290976 52296.96189761396 10.237164738905554 0.23045379019850498
0.574332925220828 13.05786149595916 44727.278986986035 10.739435040635772 0.23373326909500292
0.5943898099058593 13.039522946882503 37990.57283684112 11.26320055626232 0.23705402167630454
0.6148278441936427 13.024497610046176 32900.35439034045 11.809399285420023 0.24041766756682204
0.6356321458333403 13.012430149455856 28291.22911985325 12.379010302987613 0.2438258398418815
0.6568030667293078 13.003011074554674 24369.73988753569 12.972723246617958 0.24727649600321946
0.6783353964442294 12.9959861497347 21026.799185403477 13.59186370027471 0.2507744078031531
0.7002242385089137 12.99106095205579 18171.30664809408 14.237630026926693 0.2543222192321111
0.7224586533291737 12.98800096232326 15728.870601230572 14.911212005279877 0.25792191508439805
0.745046438633265 12.986654491130635 13632.98906812207 15.61363907480739 0.2615733893202271
0.7679670492809356 12.98676421207559 11835.677541484945 16.34617797668454 0.26527854234307285
0.7912110219083642 12.98814941299751 10288.020103166871 17.110444611463084 0.2690420625596316
0.8147878922573288 12.99066958362213 8955.745839638212 17.90789414408484 0.2728663827832076
0.8386702315523291 12.99412446911556 7806.958753689413 18.739888713914066 0.27675255529762216
0.8628518532198697 12.998406136593044 6814.029422635778 19.60777924479203 0.2807011184841192
0.8873328104338101 13.003358902973147 5954.952004894518 20.513648610611614 0.28471840491660666
0.9120891008168468 13.008856034873146 5210.8954001558695 21.459291090229208 0.2888074282430659
0.9371087364620212 13.014737881218533 4564.891805034452 22.446186634102258 0.29296807612408027
0.9623932072366881 13.020950313022277 4004.3210357464263 23.47636915295593 0.29720421595476565
0.987914345773775 13.027332457842542 3516.3484031295607 24.552257098499485 0.3015219151284393
1.013656255694693 13.033795788563046 3091.6911231512045 25.675787562187423 0.305922766042931
1.039620800732174 13.040245292720988 2721.197513216923 26.848932410869548 0.3104081068325879
1.0657716991260637 13.046578286187225 2398.0170672876066 28.07478356598525 0.3149866347372794
1.0921036155100405 13.052703363272009 2115.5791443478342 29.355388892987147 0.31965874577766007
1.1186029829414006 13.058541932190938 1868.4808093984245 30.693518606418504 0.32442922375245603
1.1452343297778695 13.06400282433932 1651.9380741719942 32.09255815115422 0.3293060285319315
1.1719978955429033 13.069007401142741 1461.9820456986006 33.55446283582896 0.33428694975538376
1.1988541033747975 13.073465493321 1295.3815272426207 35.083768528253664 0.3393855097659977
1.2258006299447557 13.07733633665275 1148.9909513384719 36.682490134500355 0.34459841857274637
1.2527963027917581 13.080493142058469 1020.1010658128014 38.355688770776034 0.3499401674933486
1.2798405601221363 13.082937256541898 906.6399759530776 40.105612369482806 0.3554073826408373
1.3068818757595513 13.084529069806333 806.6726890352303 41.93771774104779 0.3610145387719177
1.3339207541073486 13.085231645227932 718.5481705905175 43.85550107196086 0.3667636352641824
1.3609283321276644 13.085033265709955 640.5328783244847 45.863641559764304 0.37266237391410295
1.3878597376919917 13.083775042851682 571.7457653364984 47.96747732121915 0.37872073865615374
1.4147169826241774 13.081480085046143 510.77134786718676 50.17176977133509 0.3849444044376741
1.4414397999800077 13.078028491972006 456.82439890101364 52.48173011391102 0.3913402973112556
1.4680350938044282 13.073431394586395 408.97510088711425 54.903778985339166 0.3979201311159864
1.4944440371803838 13.067564196460891 366.49345557918735 57.444106307322066 0.4046929669653859
1.5206561413059088 13.060420021187976 328.80579063781107 60.10934011548476 0.41166857606778
1.546639818760132 13.051930417095782 295.2664417450681 62.90658599908283 0.4188574981937894
1.5723570338530444 13.042048671595753 265.4431396772279 65.84347031682681 0.4262711049173303
1.597780232348927 13.030721924364162 238.89730120116025 68.92818757216321 0.4339216681888483
1.6228672494939589 13.017898015743752 215.21020592766982 72.16955237901333 0.4418224348679518
1.647618976537712 13.003560092610048 194.08046033882889 75.57705650300454 0.44998770791840864
1.6719679150296598 12.987625372053477 175.21646835350467 79.16061948001163 0.45843163198105424
1.6959052698593493 12.970072596575935 158.34624791686713 82.9304698464072 0.4671676323722249
1.7193854349448954 12.95086438581208 143.26620111665946 86.89932767255729 0.4762171841697322
1.7423662081042228 12.929912471210141 129.77257766531633 91.07875790015196 0.4855945769781974
1.7648502753245268 12.907275208195962 117.67026105414854 95.48287693492497 0.4953218371151236
1.7867769020924897 12.882837588114127 106.81172948232448 100.12532781830967 0.5054163862467416
1.808116473334638 12.856579998986515 97.07590462552892 105.02264968836153 0.5159039776273886
1.8288255572665777 12.82844553071996 88.32423473033751 110.19138448791777 0.5268071498794679
1.8489048969676551 12.798478972731772 80.45368672331205 115.64918541115026 0.5381493558903897
1.868281541591954 12.766540343953341 73.38112382894752 121.41622247835589 0.5499597820184007
1.8869602628613222 12.732719461820727 67.00157209572465 127.5139336291168 0.5622682812641469
1.9048836549793822 12.696902574783609 61.24925194212416 133.96475268301515 0.5751041249545336
1.9220252674505758 12.659085293916768 56.06968809042171 140.7943880153648 0.5885036962562943
1.9383395179922716 12.619197458263345 51.387383473377874 148.03051046878028 0.6025052336229209
1.9538357832025839 12.577353575484201 47.15790535522471 155.70161060373132 0.6171444695541457
1.9684510598049543 12.533424500178732 43.33689441376279 163.84134513124425 0.6324690344945842
1.9821666503622692 12.487423669824564 39.87629589631256 172.4835090432611 0.6485205583892883
1.9949571035949214 12.439347185166426 36.7423433704514 181.66735878533558 0.6653520919547725
2.006792525802062 12.389187315634086 33.901304209845826 191.4349179881474 0.68301811799545
2.017640742496632 12.336912687818536 31.326317255036493 201.83222348998757 0.7015778734654522
2.02747498940992 12.282528330986134 28.98949903129117 212.90920328474792 0.7210939577138962
2.036285597012298 12.226063030581416 26.8673789759825 224.72139368803187 0.7416368572717073
2.044030254421731 12.167467608421338 24.940316561367425 237.32991349492784 0.7632835504601323
2.0506897352329654 12.10676162849124 23.185530007457757 250.80165686895964 0.786116715632727
2.056262465804051 12.04401537146506 21.592207336455512 265.2097788913053 0.8102246816096752
2.0607087222584215 11.979166853852584 20.139587266009805 280.6358943658269 0.835706718557494
2.0640158286199553 11.912270350467494 18.82017648400025 297.1698634375387 0.862670204955905
2.0661761788289237 11.843370596703824 17.617209827576204 314.9120470177858 0.8912355556199868
2.067167904111444 11.77247788376981 16.522105069547028 333.97181321173895 0.9215284846259673
