M[M_sun], R[km], Lambda[1], P_c[MeV/fm^3], rho_c[fm^-3]
0.24162668629717493 15.618656898711224 2160425.4255784233 3.5677272577965504 0.1711233750220791
0.25364461519301523 15.277246690409406 1723084.9831528692 3.7848311882052985 0.17388831741968916
0.26604045668581444 14.981271076358047 1383006.3704276995 4.011425834466583 0.17666695537730806
0.27881681436508843 14.723490597989137 1116430.0534562534 4.247766928851428 0.17945796324543475
0.2919718605699064 14.49837690203137 905818.8965860215 4.494479793280165 0.18226790976706278
0.30550797312750894 14.301193167619015 738595.4089260023 4.751720287233927 0.18509250618511816
0.3194262899011937 14.128078167317039 605061.7847990135 5.020170319840202 0.1879383629824335
0.3337236780801445 13.975907936900231 497659.10461147764 5.300054426784092 0.19080211253633708
0.3484061426909163 13.841984262650772 410979.91280029184 5.5921007255949355 0.19369004130444867
0.363469375842515 13.723947596142834 340647.15956744784 5.896477140440624 0.1965972241221694
0.37892430576586833 13.619975139697441 283289.4787259575 6.21404751610762 0.19953133666056302
0.3947566758386682 13.528421937903257 236380.2548400981 6.545068322312616 0.2024885403260275
0.41098305979489813 13.447848140819108 197850.13477057533 6.890243895972719 0.20547257891460524
0.4275920662716855 13.377039508686877 166070.39151644925 7.250278554217586 0.20848651110817484
0.44458804007347297 13.314907844023368 139791.1109977972 7.625430015644265 0.21152586328718306
0.4619705649662662 13.260533741934774 117970.26745939186 8.016649829835979 0.2145968363934239
0.4797362383583553 13.213123590274297 99806.54492263637 8.42464194898457 0.21770105946178966
0.4978944635559731 13.171954693848502 84631.46714978846 8.849845657946034 0.22083597717339465
0.5164339571150611 13.136374307621782 71928.29425996021 9.29313746688662 0.22400504223853082
0.5353535540585564 13.1058389322139 61267.48243220836 9.7554008576213 0.22721115291841737
0.554661032938146 13.07978569543612 52297.77247754955 10.237445563797635 0.2304556603827361
0.5743451269193321 13.057819484542142 44321.991039853456 10.739740224662114 0.2337352284709862
0.5944032802842877 13.039523025852786 38323.55339102 11.263534689235787 0.23705610934516932
0.6148415970746048 13.024509867824047 32897.48695696367 11.80976434142658 0.2404198877164244
0.6356473365901808 13.012432584234885 28288.88670358443 12.379408379279376 0.24382819688114346
0.6568182590013888 13.003005762672544 24366.068123726294 12.973152515153236 0.24727894952613727
0.678351420872514 12.995970032437857 21024.29120259637 13.592330257166944 0.250777005466931
0.7002403407250235 12.991048109599111 18168.849931014374 14.23813637402108 0.25432496618981043
0.7224764111965749 12.988003806054927 15726.743758612609 14.91176080518015 0.2579248167963425
0.7450652225214061 12.986639244637486 13631.746114648542 15.614227806247923 0.2615763985248301
0.7679869947878379 12.986756706003302 11833.995078543127 16.346814612879214 0.26528171581482946
0.791233635955041 12.98813681080829 10287.178867360042 17.111132347874914 0.26904540678891525
0.8148076514569907 12.990679750897108 8954.524314678107 17.908636388045483 0.27286990467772787
0.8386932468838095 12.994140014139939 7806.2894050937475 18.740682173157786 0.27675620083230024
0.8628742114880553 12.998406134671036 6812.699632553508 19.608634236981874 0.28070495429485964
0.8873575842441134 13.00335778526686 5954.170263502065 20.51456925121982 0.2847224393064994
0.9121129840323231 13.00886082561588 5210.121106910404 21.460281776563455 0.28881167007505926
0.9371353397132944 13.014744017182766 4564.342592763198 22.447243239133606 0.29297246465984084
0.9624205506441362 13.020955952434143 4003.762749009801 23.477504937359907 0.29720882871270465
0.9879417086428268 13.027341051807053 3515.8127688022905 24.553477408852036 0.30152676284216146
1.0136856681976765 13.033796698497987 3091.376064355314 25.67708767457983 0.3059277834270408
1.0396509495567718 13.040258182895618 2720.840990357496 26.85032822072582 0.31041337995088203
1.0658033296031575 13.046585036044274 2397.6998028323105 28.076281607710232 0.31499217664501855
1.0921375727437628 13.05270916854339 2115.208837134384 29.356983856939706 0.31966448666857644
1.1186365512171015 13.058546943217197 1867.98086264943 30.695229536443122 0.3244352591689834
1.1452686948019115 13.064009238678768 1651.6925367472718 32.09437946277714 0.3293122863792759
1.1720327142600755 13.06901199486152 1461.7142167631794 33.55641589463985 0.33429353176494525
1.1988902836044086 13.073469115299565 1295.0920092319436 35.085862553199476 0.33939243413880205
1.2258368412871121 13.077337911322516 1148.7731666366951 36.68471904846501 0.3446056087041679
1.2528330726596075 13.080503957246659 1019.9140405965395 38.35806162004203 0.34994763936821033
1.2798764980290074 13.082938508824917 906.4888539120645 40.10815612638865 0.35541525217488973
1.306921608609191 13.084518583002497 806.581563408102 41.940426320564406 0.36102272721814443
1.3339604944628878 13.085234677951114 718.4342149494745 43.85840484454232 0.36677226677801505
1.360969013921771 13.085032113323427 640.4608307699485 45.86673444056801 0.37267136759134406
1.3879012830910544 13.083769551750816 571.6537014478706 47.970772522043134 0.3787301178614128
1.4147508627970038 13.081460657261935 510.70943681360336 50.175303428571915 0.38495430613466874
1.4414823864270503 13.078024642409781 456.76070418387275 52.48549661751137 0.3913506387189552
1.468077948003708 13.07342492434148 408.9121274904082 54.90779501453419 0.3979309415443123
1.4944874665176178 13.067553815341785 366.43745623165154 57.44838989246026 0.4047042779901987
1.5207004395019101 13.060405856833833 328.75040356770694 60.113910759008036 0.4116804217169733
1.5466838779157661 13.051917052086855 295.2150019887751 62.91146480857675 0.418869915151834
1.5724000243406258 13.042032487660359 265.39697933520347 65.84868015148531 0.42628413275023597
1.5978144506830996 13.030694189835978 238.84884498997604 68.9337532041787 0.4339353495917631
1.6229123025019723 13.017871967297134 215.174415258249 72.17550067158474 0.44183681593787216
1.6476642104897778 13.003530798656117 194.04522152324145 75.58341660686666 0.4500028384547729
1.672011718763246 12.98759678013071 175.18462531908148 79.16738983660092 0.45844742714551917
1.695950106300947 12.970039376307716 158.3221529466956 82.93771651812989 0.4671842852027379
1.7194300631750554 12.950824367866431 143.2402976547623 86.90708796728364 0.4762347574191497
1.7424088165548617 12.929869724174887 129.7494900229056 91.08703504789933 0.4856129905852268
1.7648938615535632 12.907228694456217 117.64679089435377 95.49175068122508 0.4953413080959173
1.7868205067038898 12.88278719125385 106.7970822703808 100.13480589005783 0.5054368395143796
1.8081584779042712 12.856525478984887 97.05873947075624 105.03278123917188 0.515925491996771
1.8288672182017154 12.828386239413955 88.30354384898386 110.20222313278047 0.5268298106027121
1.848946707277929 12.798411734910559 80.44193126383134 115.66083396787843 0.5381734177889822
1.8683217592594883 12.76646977109439 73.36668309007763 121.4287021424209 0.5499851860411503
1.8869993344813536 12.732645839742817 66.98900797333785 127.52726702206026 0.5622949669944685
1.904921408402615 12.69682357822939 61.239461322933685 133.97906219268987 0.5751323763696947
1.9220614840366141 12.659001515548212 56.05848875739418 140.80975755953105 0.5885336419730723
1.9383742141924285 12.619107363139431 51.3770015305151 148.04703209816586 0.6025370137990463
1.953869255585046 12.577258356157236 47.1518294082576 155.7193309957807 0.6171780514709155
1.9684834751832758 12.533320836153969 43.32824128732786 163.86037168278102 0.6325045762509767
1.9821962230433479 12.487314867099448 39.86839495367011 172.5040169638585 0.6485584240223818
1.9949830467180434 12.439232917097694 36.73434219199588 181.68942242511812 0.6653922811805661
2.0068183022936563 12.389066613277356 33.89288972988964 191.45868064218658 0.6830608364036065
2.0176639825639597 12.33678567226266 31.319322695730445 201.85784323052684 0.7016233459777304
2.0274990900443077 12.28239604276767 28.98417840959064 212.936790057478 0.7211422191223232
2.03630587414894 12.22592134932687 26.86210596535079 224.75120286645083 0.7416883831462603
2.0440484928780975 12.167321174284735 24.935557885724936 237.3620903175406 0.7633384148985004
2.0507043999682786 12.106607938496131 23.181465882873624 250.83643383388358 0.7861752320184788
2.056275700919492 12.043853185589768 21.58828448078001 265.24748554190614 0.8102874276669852
2.0607191406709187 11.978998231334756 20.13666534039945 280.67667403798083 0.835773606711212
2.064022357266111 11.912097061447126 18.81685006757226 297.21410660234716 0.8627418868104343
2.066179858057705 11.843187723801286 17.614285837005102 314.9601089970281 0.89131249339569
2.0671714650960182 11.772286498576827 16.52075833102921 334.02401103798746 0.9216109269229938
