M[M_sun], R[km], Lambda[1], P_c[MeV/fm^3], rho_c[fm^-3]
0.24162668629717493 15.618656898711224 2160425.4255784233 3.5677272577965504 0.1711233750220791
0.2536354373819006 15.277506377161505 1723455.63127864 3.7846617686085993 0.17388620568614702
0.26602275639585504 14.981609384275684 1383476.40272647 4.01106969003057 0.1766626515819809
0.2787867569781339 14.724048147384352 1116958.9820498403 4.2472120202988455 0.17945152714245416
0.29193139358728976 14.499018725973553 906499.3677199783 4.493711569363866 0.18225935541545932
0.3054553291039074 14.301898348141286 739213.8505585591 4.750712674769123 0.185081622047441
0.31936023282833387 14.128849752900054 605547.230555762 5.01891590701551 0.18792534796521845
0.3336462533901336 13.976672295285226 498149.4832507617 5.2985202020467534 0.1907866654389713
0.3483152229114533 13.842747101603917 411449.255776046 5.590282869179611 0.19367245304355532
0.36336420083656634 13.724706889633346 341061.6844652816 5.894334828033188 0.1965771030706771
0.37880429462268733 13.620703637715142 283674.35411706724 6.211554838544751 0.19950860644256885
0.39462225740724666 13.529147905681349 236749.19964123302 6.542227878390054 0.2024636334700784
0.41083237208263457 13.448519653858256 198168.45401943877 6.887000872798065 0.20544495996836803
0.42742379176197076 13.377684250480723 166359.00481926263 7.2466025388619615 0.20845610037521978
0.4444033267363 13.315526107449937 140043.25032332065 7.621331178134045 0.21149323390505784
0.46176887113560317 13.261111962728815 118194.55948473804 8.012056705470092 0.21456130486307218
0.4795159304589067 13.213702914048076 99999.93088160238 8.419518744423645 0.2176625401256001
0.4976553945108198 13.172468286930485 83937.17298912584 8.844211271361308 0.2207951818071331
0.5161731401871893 13.136829200165378 72096.83973912052 9.286900754414198 0.22396113539391127
0.5350751301389218 13.106222941685814 61412.560383129894 9.748519560599608 0.2271640399165241
0.5543620690303762 13.0801937617673 52418.21945081899 10.229874856990085 0.2304052424287401
0.5740233022758775 13.058133546275446 44834.89148113073 10.731513006817208 0.23368240718394878
0.5940655868150816 13.039813185136447 38422.31394847737 11.254527289838574 0.23699983095073496
0.6144776752763976 13.024728130304899 32982.90687089765 11.799923584992825 0.2403600394983676
0.635258210610192 13.012613683834784 28366.93595059055 12.368677774370731 0.24376466017323664
0.6564047647202604 13.00316774276128 24438.359385943375 12.961581336026555 0.24721281341123447
0.677918751582614 12.996089099116793 21086.97003853832 13.579754268773165 0.2507069857328633
0.6997843354814576 12.991131955454344 18223.931865717845 14.224488192515535 0.25425092413904316
0.7219898961722936 12.988080331508101 15774.93118479816 14.896968719119519 0.2578466054614209
0.7445594072450921 12.986670608609842 13674.823273796537 15.5983597593837 0.26149529159495166
0.7674566119243756 12.986730380756617 11872.730778925265 16.32965582904307 0.26519618358097785
0.7906778560120423 12.988092401857694 10321.226529998183 17.092596771541356 0.26895527455787793
0.8142277450870338 12.990599589229426 8985.655003088275 17.888632260845014 0.27277498652452525
0.8380853798417854 12.994033270055246 7833.487863560269 18.719289714519707 0.2766578773209572
0.8622422788647971 12.998289937117587 6837.241552269768 19.585592523110698 0.2806015806563682
0.886691706865477 13.003215459193765 5975.646503685015 20.489758980595283 0.2846137168537294
0.9114274235100351 13.008699827901005 5229.179869169697 21.43358454532461 0.28869736026206533
0.9364263178796696 13.014585300080379 4581.328725101509 22.41877021862923 0.29285420394274514
0.9616759153804534 13.020767200075836 4018.846193657883 23.446899025175107 0.29708452900941956
0.9871762871636529 13.02714959365841 3529.3713947010733 24.520594653946162 0.30139613526709713
1.0128940149741097 13.033612287780274 3103.4987479959464 25.64205530884948 0.3057925867808346
1.038832731408954 13.040053154372961 2731.6986278657578 26.812718237651584 0.31027129620724014
1.0649627051093413 13.046395942703207 2407.54570031063 28.03591809208727 0.31484285444932747
1.0912662963231714 13.052515037496734 2123.8816488589546 29.314009796816414 0.31950980643834
1.1177407438880491 13.058360610732992 1875.932755992456 30.64913220899332 0.3242726478593719
1.144353298550139 13.063836935498198 1658.5181925061295 32.0450699948971 0.3291421379599628
1.1710892853124117 13.068847696518295 1468.0274891082279 33.503797596747894 0.33411620267587583
1.1979203539866843 13.07331504674035 1300.836375536702 35.02944803172173 0.33920588661028644
1.2248456929291653 13.077208068526103 1153.812507680115 36.62467192214424 0.34441190596975246
1.2518251589191052 13.08041224350894 1024.4284186035466 38.2937256911713 0.34974392944287863
1.2788417131180059 13.0828656659617 910.5798451662458 40.03963075896507 0.3552032575809273
1.3058645937566538 13.084477074141985 810.2142371884755 41.86746263669344 0.36080214694785284
1.3328829404156428 13.08522350606064 721.7184760055846 43.78018543617981 0.36653975824426255
1.3598745713393592 13.085059203319828 643.499625654061 45.78342309660232 0.37242910952008246
1.3867888046482515 13.083840175523983 574.3362334287648 47.8820136706631 0.3784774815184046
1.4136204624710156 13.081581201068904 513.116390928021 50.08012459861658 0.38468760456421003
1.4403469269155769 13.078210532208969 458.9368766238788 52.3840487960929 0.39107210101055406
1.4669150350681088 13.073636581482807 410.8872319701089 54.79962936564471 0.3976397790706696
1.4933180052523836 13.067843218388857 368.2216303822128 57.333021241663516 0.40439964118955757
1.5195200491985121 13.06076154251551 330.34389881554586 59.990814341744354 0.41136139509229164
1.545494470206634 13.05233510618162 296.6644429467851 62.78007269418721 0.4185355117745764
1.5712051428365743 13.042523498674212 266.71077626583224 65.70837730686368 0.4259332882156713
1.5966239700703404 13.031271978501865 240.03011384578966 68.78387315656805 0.43356691536640457
1.6217183508882287 13.018537750709447 216.2508781436555 72.01532072506143 0.4414495520326202
1.6464505160965088 13.004266769666188 195.01948063423043 75.4121525614253 0.44959540534933723
1.670814828680081 12.98842797036779 176.074159998209 78.98453541083578 0.4580198186241594
1.6947449741625304 12.970969955116296 159.12803196991672 82.74259091882489 0.46673588714383296
1.7182367006551214 12.951855965174996 143.97595334824734 86.69813959441487 0.47576159215915736
1.7412406792164465 12.931035711521009 130.4053129237294 90.86417689192774 0.4851172132193284
1.7637241668979717 12.908484020288004 118.25444294138052 95.25283801267081 0.49481708035450267
1.7856587609732584 12.884142872079396 107.34624499106273 99.87963074669011 0.5048861826254523
1.8070003930657694 12.857972802054473 97.56345259764115 104.7599034722862 0.515345839749491
1.8277506221458004 12.830006128734633 88.76656059360667 109.90944953667656 0.5262160861749915
1.847831739628757 12.800112828638252 80.85711048548832 115.34725700806503 0.5375256759970977
1.8672510418752906 12.768363080634616 73.7467422866171 121.09276405640483 0.5493013392055961
1.8859473012153276 12.734644928310978 67.33768221902724 127.16713676768916 0.5615722716409213
1.903887410577802 12.698931704183991 61.56222045354247 133.5934446181286 0.574370347718838
1.9210614150895722 12.661258284691764 56.35148624030738 140.39607310500512 0.5877276273394085
1.9374288938379838 12.621572043475764 51.646256337617345 147.60235655750216 0.601681658272592
1.952966334682671 12.57988486092997 47.39276520596149 155.24240913315035 0.6162742368006796
1.967615079198203 12.536084706408406 43.551379452890345 163.34706048056276 0.6315437994114803
1.9813806233033364 12.49025366685519 40.07287665956214 171.95211906320532 0.6475394048920938
1.9942234017889282 12.442351534878606 36.92144202456983 181.0956830810322 0.6643107767326515
2.006090730355642 12.392306076893588 34.067985942448324 190.81924849865663 0.6819113215703475
2.0169906230787205 12.340197429110633 31.478864270499596 201.16847006674354 0.7003997766130703
2.026885329402515 12.285991855880958 29.131351530478394 212.19362256875203 0.719840719194999
2.035750776724513 12.229689167734598 26.996260137462613 223.94917521225085 0.7403020592524051
2.0435645029780862 12.171294564474392 25.057535906663855 236.49568050673003 0.7618599856930228
2.050296529399849 12.110787157615729 23.29553285823493 249.89914491452683 0.7845954652507393
2.0559208341827775 12.048164965724846 21.692723897152455 264.2331271017132 0.808599476289521
2.060443266617966 11.983519855276478 20.232542508954626 279.5781534863054 0.8339692573839992
2.0638350764769253 11.916835632683076 18.904961693504674 296.0236063577661 0.8608123561365583
2.066065807773775 11.84810810962876 17.69522513516671 313.66738996609797 0.8892431044854354
2.067137418665779 11.777405188409674 16.59385816659881 332.6201304817575 0.9193936097256161
