M[M_sun], R[km], Lambda[1], P_c[MeV/fm^3], rho_c[fm^-3]
0.24162668629717493 15.618656898711224 2160425.4255784233 3.5677272577965504 0.1711233750220791
0.25364608695354957 15.277223352083084 1723127.623691734 3.784861105848949 0.1738886903286845
0.2660437990489821 14.981197074155912 1382925.5882437737 4.011488728019937 0.17666771540878312
0.2788218406505528 14.723417546623098 1116345.830689042 4.247864926817125 0.17945909987415706
0.29197941585741544 14.498254762466914 905737.1185086077 4.49461546793966 0.1822694205358847
0.3055179600869358 14.301045828094876 725340.5584498707 4.751898246225831 0.18509442848187058
0.31943703410244434 14.127952863978432 605011.1982851798 5.0203918748301435 0.18794066170096652
0.33373862538598903 13.975800424890945 497580.08994570747 5.3003254117084 0.19080484090487956
0.3484222355359817 13.84184838173151 410895.611153008 5.592421817831299 0.1936931479601649
0.3634878047856802 13.723810951260045 340564.5637904778 5.896855554954085 0.19660077827136085
0.3789442451735594 13.61984949355306 283216.8123429025 6.2144878333887315 0.19953535182399024
0.39478049247972874 13.528301629724755 236334.05140004028 6.545570085990882 0.20249294011563637
0.41100976339290757 13.447710429398253 197800.00232696725 6.890816794108917 0.20547745795554048
0.42762083458937805 13.37691360904485 166014.50573022192 7.250927964176582 0.2084918835103361
0.4446200703838605 13.314804460969038 139744.9925440967 7.626154143253793 0.21153162780856744
0.46200414060996753 13.260433837823047 117925.49756213994 8.017461307638639 0.21460311383027908
0.47977551749541025 13.2130250376079 99760.95934794503 8.425547106387107 0.2177078649800699
0.4979361518199009 13.171898619554396 84602.47555558482 8.85084115809262 0.22084318501980044
0.5164797746377138 13.136293957087176 71901.18646043543 9.294239422735936 0.22401280007640895
0.5354028775226424 13.105747314961677 61247.408578600385 9.756616742668959 0.2272194775110591
0.5547144762089523 13.079718538477028 52274.00632336875 10.238772748972634 0.23046443348546394
0.5744001372285739 13.057786838196906 44704.55522134702 10.741194011327455 0.23374456223170442
0.5944625738476084 13.039451486794094 38305.10644687301 11.265126387289536 0.23706605430341302
0.6149054304141054 13.024464024718045 32880.1904396212 11.811503356364208 0.24043046382872754
0.6357147049298917 13.012387490951781 28043.10235828787 12.381304703488164 0.24383942515749657
0.656890383890443 13.00297973073432 24354.622500776044 12.975197440247436 0.2472906374794147
0.6784279045066932 12.995959371775022 21013.371148613205 13.594552826965145 0.25078938014010527
0.7003216430669286 12.991031970479693 18160.718524986365 14.240548508823416 0.25433805213883737
0.7225620568029884 12.987999817402104 15718.74273997301 14.914375191323867 0.2579386400413846
0.7451543403657584 12.986650803870024 13624.200080390365 15.617032432349479 0.26159073391307924
0.7680809844238836 12.986762088043443 11745.9066103592 16.349847467026905 0.2652968338320896
0.7913312328267669 12.988150635638492 10281.424620768747 17.114408655575087 0.2690613383638103
0.814910720339186 12.990691806421156 8949.093520842905 17.91217238441328 0.2728866827276572
0.8387955791642637 12.99417507101219 7801.169058863217 18.74446217301384 0.2767735679758143
0.862985693408303 12.99843829940013 6808.771847913209 19.612707400011107 0.2807232280085623
0.8874728550667004 13.003387578975394 5950.483622469446 20.518955187040106 0.284741659157314
0.9122361286241013 13.008876820873642 5206.832347507836 21.465001437847633 0.2888318782979256
0.9372615959689787 13.014775830103963 4561.645695064003 22.452276962830027 0.2929933718823081
0.9625512132454602 13.02099494586968 4001.0973434926186 23.482915907532114 0.2972308042703299
0.9880779119976663 13.027372847527483 3513.3850439829575 24.559291101849375 0.30154985788455024
1.01382610196339 13.03383512127107 3089.407350841459 25.68328158284296 0.3059516869119076
1.0397953121546297 13.040293963543073 2718.966563386112 26.856978084179122 0.3104385019375707
1.0659526896096811 13.046616897285798 2396.1609197568396 28.083418563354957 0.31501857934733457
1.0922899617686963 13.052744936435221 2113.7451732588465 29.36458260565694 0.319691837498303
1.1187947595007022 13.05858066499528 1866.5998529317078 30.703380822362327 0.32446401335825353
1.1454307670819004 13.064046131418234 1650.4143989675958 32.10305667673314 0.3293421004317575
1.1721997788537801 13.069042072345743 1460.6114537135368 33.5657208456687 0.3343248904092931
1.1990615750185727 13.073500330754706 1294.1975371634446 35.095839172022174 0.33942542411258125
1.2260126852848112 13.077358035003884 1147.8892655649668 36.69533837767139 0.34463986501635085
1.2530136956868345 13.080513199351012 1019.1775977643715 38.36936676703498 0.34998323819230576
1.2800606917210164 13.082951198238801 905.7815780390051 40.12027562149822 0.355452745843897
1.307115599673017 13.084556949916818 805.9200355646734 41.95333116778313 0.3610617405263624
1.3341504398622073 13.085240663647584 717.8098512400506 43.872239769811294 0.3668133913308109
1.36019773143993 13.084755515350642 642.4632382118921 45.84204202466645 0.6042031402829253
