M[M_sun], R[km], Lambda[1], P_c[MeV/fm^3], rho_c[fm^-3]
0.24162668629717493 15.618656898711224 2160425.4255784233 3.5677272577965504 0.1711233750220791
0.25364139084245796 15.277379865970044 1723285.6411075445 3.7847891625793735 0.17388779359053583
0.26603635527113484 14.981335652124367 1383112.390937103 4.011337488427902 0.17666588776756886
0.27880985093740857 14.723602365324494 1116628.868462931 4.247629273736765 0.1794563666535465
0.2919618159433876 14.498544848027212 905968.9411495532 4.494289217143231 0.1822657876575476
0.3054949394596779 14.301362464464194 738768.0845321631 4.751470319400713 0.18508980605544867
0.319409305260068 14.12828032578214 605198.7027779135 5.019859119230776 0.1879351341559983
0.33370442971775016 13.976101107745631 497800.28023019456 5.299673800667876 0.19079828026291973
0.34838395960572016 13.84216275083606 411079.87184355076 5.591649723897299 0.19368567773895773
0.3634428113408291 13.724151290353834 340736.09826634714 5.895945631185797 0.1965922320747687
0.3788950314205062 13.620132627520244 283375.2335461011 6.213429067678242 0.1995256971555475
0.3947243366384482 13.528582224387767 236474.91226560686 6.544363577069677 0.20248236066231112
0.4109455711153821 13.448024732453314 197929.61518532873 6.889439249410918 0.20546572620682813
0.42755045955220156 13.37721147227199 166138.73833932864 7.249366456132653 0.2084789655544689
0.44454308735655856 13.315035696730002 138226.11758590984 7.624412987213104 0.21151776708692388
0.4619204229327093 13.260677611929793 118027.9856523001 8.01551013241513 0.21458801991246781
0.47968113200647394 13.21327172381787 99850.37224922772 8.423370696000998 0.21769150141653226
0.49783484190499094 13.172109887575953 84678.35692189162 8.84844753689615 0.22082585417962233
0.5163691256594812 13.13648958464342 71969.06750992977 9.291589852834585 0.223994146939122
0.5352832162696808 13.105938262221686 61302.50062213602 9.753693258090065 0.22719946178814143
0.5545865962257528 13.079885578734636 52324.32532361142 10.235566848776491 0.23044314887358439
0.5742649386279491 13.057906415429489 44751.20661114365 10.737698557257199 0.23372212033381723
0.5943183422939116 13.039585306036233 38013.56809742581 11.261299367213782 0.23704214301272478
0.6147508190611201 13.02454717214209 32918.898542535746 11.80732216054558 0.2404050351819791
0.6355487359125873 13.012476921507831 28309.2078002774 12.376745311559917 0.243812428659569
0.6567160765309057 13.003048682992317 24383.957347333308 12.970280789759544 0.24726253592139333
0.6782434476154303 12.996000965577894 21039.91568230385 13.589209097102932 0.25075962768390336
0.7001272327482784 12.991080743577298 18182.953707624314 14.23474904539777 0.25430658976671033
0.7223564390619979 12.988001805429736 15739.171090110109 14.908089498977102 0.2579054052165376
0.7449399506748227 12.986656498523944 13642.599180599025 15.610289388255215 0.2615562679445073
0.7678555381535573 12.98675627742005 11842.840337216934 16.342555751765804 0.26526048646033834
0.7910955013618353 12.988120793766168 10295.32840393716 17.106531670950176 0.2690230352549502
0.8146655018359212 12.990641362685112 8962.171936552793 17.90367110570453 0.27284634476805475
0.8385421518373721 12.994106747407416 7812.266459870085 18.735374307718605 0.2767318139369705
0.8627182234706938 12.99837471332905 6818.989277044779 19.602914777687314 0.2806792946880792
0.8871894203710272 13.003319258389453 5959.920389583706 20.508410672664187 0.2846954514603659
0.9119439544704824 13.008811077739676 5214.950723754377 21.45365466855971 0.28878329471771147
0.9369584110685927 13.014702414649344 4568.429456108657 22.44017520664214 0.29294310807679874
0.9622324911114252 13.02089829680951 4007.5440052314393 23.469907287830882 0.29717797240048566
0.9877535403655906 13.027292389918092 3519.2893482358872 24.54531438389887 0.3014943350191924
1.0134894603232154 13.033753098413452 3094.227247149773 25.66839087061472 0.30589422078562956
1.039448800419873 13.040209085988314 2723.6314433644857 26.840991325601106 0.3103781068423913
1.0655960270157345 13.046541042313295 2400.0217716001325 28.066260919651224 0.31495510576255914
1.0919208276892 13.052667995454822 2117.356898620906 29.346314889024534 0.3196260849348615
1.1184145079300631 13.058501847752476 1870.0809469777514 30.683784922413984 0.3243948875514031
1.1450418956609625 13.063954127390586 1653.4640142881296 32.0821965531609 0.3292704271018028
1.1717988737040324 13.068975210086384 1463.3435208905944 33.54335179766796 0.3342495044111852
1.198650245503603 13.073439291288201 1296.4751616494575 35.07185561529588 0.3393461169924443
1.225591687328869 13.077304375731778 1149.9787828657554 36.66980991386564 0.3445575141438348
1.2525818195232366 13.080475637110924 1021.054558842293 38.34211293520484 0.3498972096244383
1.2796203033654716 13.082922230698 907.5186624976558 40.09114121626695 0.3553626137272874
1.3066606490579975 13.084513950883968 807.4845010954573 41.92230902711655 0.3609679558952936
1.3336928752942439 13.08523162050419 719.1974705551665 43.83898206293234 0.3667145322263472
1.360697496806793 13.085037680596026 641.1986065923916 45.846046864647256 0.37261121093076127
1.387624372424331 13.083787926325101 572.320626731664 47.9487317978516 0.37866738284546314
1.4144777973538905 13.0815086246318 511.27337460340004 50.15166789789473 0.38488807677302195
1.4412059494860223 13.078085538138222 457.2764575943644 52.46030379773523 0.39128146867478375
1.4677917549695834 13.073476562265279 409.3941784468631 54.88093336625066 0.39785863481809514
1.4941968586172694 13.067623839576504 366.87165248517647 57.4197388419927 0.4046286234316235
1.5204073999859342 13.060491263537632 329.1519784117486 60.0833398896058 0.4116011917808323
1.54638888449326 13.052021839343613 295.5737288123479 62.87883297090983 0.4187868645306256
1.572103939846496 13.042154204284971 265.7158169447565 65.8138344844569 0.4261969968702533
1.5975268347252434 13.030843431591272 239.15280763410033 68.89652805597235 0.43384384295787887
1.622613561751599 13.018043899649992 215.44639375817397 72.13571640963104 0.44174063031048144
1.6473652704451478 13.003716228013385 194.2847998647794 75.54087830400563 0.4499016408403526
1.671714534042443 12.987804149868927 175.40827339936652 79.12210790902263 0.45834178492653793
1.6956528622817968 12.970275461136376 158.51757288803384 82.88924922495542 0.4670729075041826
1.7191184191673237 12.951047687067062 143.4232668817718 86.8551858434728 0.47611722464504896
1.7421221807890903 12.930166051168166 129.91419807475705 91.03167648839025 0.4854898381670723
1.764607039630238 12.907545681709045 117.79047864764954 95.43240246796826 0.4952110848642198
1.7865335860336489 12.883125144987584 106.9305149709744 100.07141634906318 0.5053000476349906
1.8078738013856357 12.856892608373276 97.17927398050041 104.9650217043412 0.5157816044825284
1.8285881004639422 12.828782986684534 88.4167419698396 110.1296135570036 0.5266778050065445
1.8486724674547557 12.798844063312067 80.54474495247985 115.58293000154869 0.538012495077137
1.868062279012257 12.766963157680589 73.45515445536435 121.34524050379315 0.5498152887301826
1.8867390773313868 12.733143423203606 67.07342819001921 127.43783233199082 0.562115555478557
1.9046689091085234 12.697353100480008 61.318939925006426 133.88336438248467 0.5749434391784434
1.9218166914341546 12.659569714299115 56.12882698336934 140.70697144659994 0.5883333755374993
1.938144272783305 12.619741051659574 51.44454174725601 147.93654223985163 0.6023244810593656
1.9536367699918546 12.577889448677729 47.21030251393107 155.6008252912342 0.6169534712982117
1.9682677329943552 12.534005754006646 43.378405035893174 163.7330007786092 0.6322664471589954
1.9819951798997124 12.488044358233166 39.9195130910682 172.36687211872533 0.6483052010609506
1.9947940734519511 12.439998133783737 36.780800408902195 181.54187522457676 0.6651235219089223
2.0066348633371285 12.389860716708984 33.93945001576976 191.2997730819104 0.6827751663766883
2.0174986797782046 12.337638088805068 31.357704594739896 201.68651852939675 0.7013192615330127
2.0273482001111596 12.28329258667318 29.020318516985228 212.75231315152774 0.7208194878122659
2.036170570439151 12.226863448679701 26.895965648794153 224.55186655385276 0.7413438255844099
2.0439289593984147 12.168307133619262 24.965957761549408 237.1469236170753 0.7629715359086572
2.050601848710645 12.10763967516185 23.208955903771724 250.60360038774778 0.7857830179442484
2.0561838744123926 12.044911121715511 21.613464130876615 264.99534659982703 0.8098678538184019
2.060652602785369 11.980124172896767 20.1603292676966 280.40392413380135 0.8353261276108958
2.06338687241016 11.915501820191647 18.912202007372734 297.3349370120308 1.1833308679913872
