M[M_sun], R[km], Lambda[1], P_c[MeV/fm^3], rho_c[fm^-3]
0.24162668629717493 15.618656898711224 2160425.4255784233 3.5677272577965504 0.1711233750220791
0.253641136738161 15.277383063577908 1723172.6395753466 3.784784457651734 0.17388773494588253
0.2660365917728137 14.981312836439438 1383118.699133936 4.011327597841628 0.1766657682456708
0.27880824168044566 14.723651331581143 1116478.4026890483 4.247613862991838 0.17945618791212886
0.2919609738887137 14.498539435279719 888846.6138905582 4.494267881967815 0.18226555008541773
0.3054936194191311 14.301381746958738 738789.4985636951 4.751442335503733 0.1850895037759532
0.31940729764749554 14.12831536235935 605228.170612886 5.0198242806004085 0.18793477269176176
0.3337023428382344 13.976120573245181 497808.6457432989 5.2996311902613344 0.19079785124682933
0.3483815461256259 13.842185246519 411108.9028706639 5.591599235455182 0.19368518924939135
0.36344084335525095 13.724148483091529 340744.2360653745 5.8958861306104 0.1965916732327729
0.3788915015315682 13.62015391193975 283386.0968528584 6.213359835118035 0.19952506583795984
0.39471929353526397 13.528608745445007 236462.68741665297 6.54428468453338 0.2024816688813464
0.4109413735498084 13.448044024772285 197938.2653746764 6.889349174143684 0.20546495908805373
0.42754606752005425 13.377195369775526 166149.5677084645 7.2492643531104335 0.20847812088233283
0.4445380213951854 13.31505172925569 139855.3419243487 7.624299138755456 0.21151686077999668
0.46191468337588143 13.260725946158576 118034.13743400252 8.015382553080695 0.2145870329831725
0.47967536909483327 13.21327830496501 99855.8288540934 8.423228391224926 0.21769043148355463
0.49782816743347275 13.172096186573814 84679.65453144742 8.848291031474469 0.22082472101349976
0.516362425639733 13.136498548331376 71973.23190693343 9.291416614482193 0.22399292733032103
0.5352764002243573 13.105933606935457 61307.91496855438 9.75350211254304 0.22719815310454727
0.554579455815964 13.079896460093293 52329.041480346095 10.235356550432728 0.23044174836865258
0.574256680667398 13.05792975519437 44352.5245820056 10.737470019910393 0.23372065305325873
0.5943082890338367 13.039588048890542 38349.99262098796 11.261049154658608 0.23704057968015213
0.6147407472410985 13.024552669756655 32921.038336248625 11.80704879508105 0.24040337266385453
0.6355385889617299 13.012466955395457 28309.514239515174 12.376447223313495 0.24381066365694293
0.6567032272877519 13.003077576957468 24385.963027578713 12.969959347570878 0.2472606986896565
0.6782319307027795 12.99601413691939 21041.594766193324 13.5888597373714 0.2507576825425173
0.7001147446145647 12.991076055855174 18184.41872580633 14.234369895477496 0.25430453285988847
0.7223427411453548 12.988014945838867 15739.618759015983 14.907678565924904 0.25790323245858826
0.7449251538635725 12.98665351310184 13643.377975767557 15.609848559770981 0.26155401472170897
0.7678401370799754 12.986749337985149 11843.629353842565 16.342079059453955 0.2652581102687223
0.7910794679506593 12.988124556473167 10296.41090597139 17.10601672312836 0.2690205312380686
0.8146471129680938 12.990657432007824 8963.017031295283 17.903115352155407 0.2728437077572024
0.8385243210306632 12.994113941756241 7812.9160581854585 18.73478021313763 0.27672908437976373
0.8627007130955348 12.998370556519543 6819.740826386844 19.602274619284003 0.2806764227010503
0.8871704976353231 13.00332398440072 5960.271698091199 20.507721370350115 0.28469243083074763
0.9119245350960552 13.00881710346109 5215.27704389431 21.452912931370534 0.28878011881386484
0.9369386938944118 13.014705248074323 4568.97229340991 22.43938412389918 0.2929398223694587
0.9622115909876036 13.020898944955045 4008.0173179279113 23.46905693462969 0.297174518863471
0.9877306570006061 13.027288771044136 3519.5595003535886 24.54440075902476 0.3014907056212857
1.01346742115016 13.03374982972907 3094.588341880857 25.667417509937696 0.3058904643993182
1.0394252499230354 13.040206600684137 2723.88002877806 26.839946332926086 0.31037415904823645
1.0655741883891654 13.046538905062926 2400.32635343805 28.065139405066205 0.3149509567924373
1.0918954140848227 13.052664789313276 2117.617801930461 29.345120826545923 0.31962178704309663
1.11838922063788 13.058496585762734 1870.311240832681 30.68250406039108 0.32439036922761955
1.1450147009403584 13.063954152615663 1653.5713783372983 32.08083307111691 0.3292657423117972
1.1717726748932877 13.068966967368146 1463.5093780698685 33.54188970708269 0.334244577015165
1.19862287433191 13.073435325169008 1296.6634802499755 35.070288017914514 0.33934093337288074
1.2255635432408183 13.077301845768966 1150.0889618652188 36.66814135759884 0.344552131639605
1.2525543310915142 13.080473894282523 1021.1947154881238 38.34032422874014 0.3498915433944816
1.2795919975184409 13.082917962823103 907.6287200871818 40.08923702117048 0.3553567227838094
1.3066302735205197 13.08451558362131 807.5833595096489 41.9202814748328 0.360961826297567
1.3336628327621591 13.085237344473136 719.2924087018494 43.836808429147105 0.3667080710626169
1.3606668575025567 13.085040525740919 641.2786316253987 45.84373170252121 0.3726044787537897
1.3875941429041576 13.08379043967124 572.3836699567362 47.94626522207787 0.3786603621745831
1.4144460382708821 13.08151217347249 511.3557739521842 50.149022871621696 0.384880665117917
1.441174493285179 13.078087953521157 457.35455202103105 52.45748451854333 0.39127372799041543
1.4677582676685927 13.073485656763193 409.4512110817183 54.8779273552183 0.39785054317701535
1.4941650315130683 13.067631488522933 366.9227688333618 57.41653260961186 0.40462015721165934
1.5203746834283243 13.060502489459504 329.1893382880217 60.07991884532401 0.4115923255259537
1.546355875603833 13.052033439060724 295.6149749534385 62.875181323648576 0.41877757079802685
1.5720705126282446 13.042168839528356 265.75618226811616 65.80993513309998 0.4261872460621666
1.597493350465856 13.030860019601503 239.17785468501964 68.89236246870078 0.43383360313647484
1.6225803981684566 13.018059251082025 215.47787198048692 72.1312644908355 0.44172986699399863
1.6473326479066117 13.00373696496741 194.3158576605947 75.53611824735746 0.449890316778392
1.6716806442433931 12.987828001683948 175.43129948235926 79.11704087893347 0.45832996360331046
1.6956200304193467 12.970301236958951 158.54393395454179 82.88382580570097 0.4670604445025315
1.719083925095534 12.951074145152239 143.44297629476236 86.84937812876393 0.47610407302868335
1.7420886672492122 12.930198601821973 129.93065387187175 91.02548206035662 0.48547605784478454
1.7645737453742252 12.90758173188479 117.80445199656648 95.42576168035585 0.49519651349338234
1.7865003747700285 12.883163216337348 106.94382859077616 100.0643234203799 0.50528474140261
1.8078420814984524 12.856932408255307 97.19617523085398 104.95743986959138 0.515765504440545
1.8285666222055887 12.828849722083692 88.43571683800089 110.12147065178934 0.5266607280442172
1.8486421201228707 12.79888944783225 80.55774927946052 115.57421325809548 0.5379944892930796
1.8680335150953764 12.767015033582073 73.46799317446282 121.33590200416451 0.549796278967117
1.886709801418681 12.733198896196912 67.0830049526777 127.42781967012667 0.562095460146088
1.9046394067826524 12.697413353298451 61.32221922562008 133.8726569990957 0.5749222994790205
1.921787627488982 12.659635873399782 56.13740858326071 140.69547110245077 0.5883109684937369
1.9381176839766117 12.619808388981742 51.45127162042257 147.92418009887044 0.6023007018661335
1.9536134196152146 12.577967704849971 47.21721083478248 155.58756644264946 0.6169283444529141
1.9682442398436226 12.53408256510072 43.38788229298902 163.71872326199974 0.6322397134510355
1.9819719600157688 12.48812738677618 39.924508791658745 172.35152822822008 0.6482768702447989
1.9947721336905317 12.440085424278896 36.786772779816815 181.52536771014152 0.6650934532424888
2.006614614886866 12.389951591117457 33.943785297852514 191.28199480040644 0.6827432061468103
2.0174808188352333 12.337732313734826 31.363190926208343 201.6673512929119 0.701285241578944
2.0273303343691675 12.28339329911762 29.023194409935137 212.7316747479031 0.720783382159881
2.0361554160886834 12.226965708658042 26.899422419768147 224.52956606538376 0.7413052786591919
2.043915758051897 12.16841760134168 24.969288109788195 237.12285245162406 0.7629304923603479
2.0505912769968995 12.107755599360809 23.21266196295522 250.57753250665957 0.785739073389089
2.056174936266243 12.045031868235457 21.614989704581923 264.96714011328777 0.8098209165860383
2.060645277308946 11.980249953360376 20.163867720634165 280.3733646635852 0.8352759136254365
2.0638467471878768 11.914110663986067 18.860424832498836 297.00099266390083 1.032263400532604
