M[M_sun], R[km], Lambda[1], P_c[MeV/fm^3], rho_c[fm^-3]
0.24162668629717493 15.618656898711224 2160425.4255784233 3.5677272577965504 0.1711233750220791
0.25364614380720285 15.277221174639946 1723101.2735839698 3.7848596055573824 0.1738886716282739
0.26604395157583083 14.981181593141493 1382927.732350254 4.011485574055937 0.17666767729498953
0.27882238946999216 14.723360630752625 1116351.9411568057 4.247860012424016 0.17945904287460282
0.29197920563550805 14.498279970139434 905767.9607112758 4.494608664105012 0.18226934477360682
0.30551675008182677 14.301083228165828 738525.8289419687 4.751889321864299 0.18509433208173362
0.31943642443404074 14.127963340865993 604974.1430269276 5.020380764144965 0.18794054642331948
0.33373844244583933 13.97573095650793 497550.32085611235 5.300311822111034 0.19080470408018332
0.34842142832167194 13.841855198303252 410899.8362247609 5.592405715332656 0.19369299216406088
0.3634872569655661 13.723844525143544 340583.12269219855 5.896836577700779 0.1966006000329818
0.3789431227199441 13.619876691106521 283205.9147997095 6.214465751643836 0.19953515046506495
0.39477904367772926 13.528296157068866 236327.86816596528 6.545544922621951 0.20249271946688488
0.4110084069907309 13.447711674138326 197796.10750564167 6.89078806322277 0.2054772132712576
0.4276202729226537 13.376904493436209 166015.44480559023 7.250895396063995 0.20849161408268715
0.4446180493292685 13.31480186623026 139746.28717945612 7.626117827875313 0.21153133871480403
0.4620023534060053 13.260428706255265 117924.01028371572 8.017420611414721 0.2146027990120856
0.4797731223586629 13.213038420410877 99766.32787666342 8.425501711852377 0.2177075236766291
0.4979339260186381 13.171879957898845 84602.36490024785 8.850791232579121 0.22084282353775117
0.5164775189584997 13.136297660929829 71905.44651827026 9.294184158092518 0.22401241100987393
0.5354003988427167 13.105747355550376 61250.038746087965 9.756555764040037 0.22721906001908762
0.5547110853976468 13.079746559675355 52276.29220409633 10.238706311246395 0.23046399508041035
0.5743990627234986 13.057763507723893 44705.84319086593 10.741121100932553 0.23374409412438435
0.59445972679743 13.039453727336205 38305.48120495374 11.265046559998503 0.23706555554105405
0.6149023389932313 13.024467936145017 32882.46610072588 11.811416140406743 0.24042993341018953
0.6357109320004811 13.01239235714682 28274.534978457043 12.381209597653179 0.2438388620287905
0.6568863325489134 13.002982574914304 24355.72742187664 12.975094881288399 0.24729005129446113
0.6784239994901068 12.99594607852771 21014.19783071485 13.59444135811208 0.2507887595113957
0.7003166671555954 12.99103694888413 18159.937094462683 14.240427532153763 0.25433739583450027
0.7225573230558466 12.988000714909212 15719.368016083181 14.914244070487202 0.2579379467560948
0.7451498102489299 12.986650337650822 13624.257797418608 15.616891769780155 0.26159001493933004
0.7680756198603772 12.986768249264335 11827.457780372668 16.34969535728533 0.2652960756031783
0.7913270859603704 12.98815201760492 10282.429875231757 17.114244334934 0.26906053932817636
0.8149053182844428 12.990690435396665 8949.166393481906 17.91199503849795 0.2728858412339698
0.8387949726958485 12.994156882558382 7801.701397563163 18.744272588547613 0.27677269693328566
0.8629798817201533 12.99843312611889 6808.873213691342 19.612503111138444 0.28072231149322896
0.8874678459546643 13.00339384019678 5950.674296840274 20.51873521010177 0.28474069518426226
0.9122282644159935 13.008880507874142 5206.854377013177 21.464764721807992 0.28883086474839376
0.9372547898652829 13.014781425638466 4561.868903822938 22.452024493964405 0.2929923232703743
0.9625436906446361 13.020991365207301 4001.1430242271404 23.482644516439557 0.29722970207046484
0.9880702521043916 13.027377013970964 3513.548710105185 24.558999510555388 0.30154869953076413
1.0138187918969253 13.033837375913059 3089.55925162807 25.682970920327616 0.3059504880054307
1.0397883490028794 13.040295136212801 2719.0392063252343 26.856644551147365 0.3104372419098359
1.0659453296891952 13.046617905374308 2396.1864723293334 28.08306059784986 0.3150172550772759
1.0922821578566855 13.052745386274703 2113.7545413673565 29.364201476713866 0.3196904656681223
1.1187863592819676 13.058577846210698 1866.699402259717 30.7029719779478 0.32446257113308885
1.1454238294472692 13.064045150373426 1650.4124339189561 32.10262145161713 0.32934060504112683
1.1721910901192758 13.069039027651181 1460.7674531975495 33.565254132694974 0.3343233175384515
1.1990527987286346 13.073491457876234 1294.2617099153274 35.095338767384696 0.3394237694101051
1.226004434797601 13.077363583994849 1147.883589384617 36.694805733967456 0.34463814679021343
1.2530035052846789 13.080514775161362 1019.2189368574082 38.36879972178154 0.3499814526211633
1.2800515395255112 13.082950140249334 905.8198797791176 40.1196677269083 0.35545086522112024
1.3071058575784826 13.084556715915102 805.9462515719126 41.95268387842549 0.36105978367257036
1.33414068906281 13.085240693010219 717.8422858058397 43.87154582533237 0.3668113285689379
1.3611532274089135 13.085027817089582 639.9717271855493 45.88073130314941 0.3727120685664007
1.3880939592676833 13.083774008383198 571.1848934339362 47.985685067546704 0.3787725637797904
1.4149411898296342 13.081443588302815 510.2929747015498 50.19129522537979 0.38499911691165684
1.4416742521611225 13.077996703366722 456.359832874137 52.50254227272114 0.3913974397017061
1.4682709205609503 13.0733839904714 408.5704378070765 54.925970026057655 0.39797986540662894
1.494684145918541 13.06750427123052 366.1308619427819 57.467775874703975 0.4047554676640592
1.5208970457851216 13.060348336495354 328.4906708162972 60.13459599060749 0.411734031235143
1.5468831883617702 13.051847513184269 294.97542906102456 62.933544834793125 0.4189261105739946
1.5726012329589802 13.041948157483173 265.17410505444735 65.87225844735681 0.4263430931816027
1.5980144457324246 13.030599592367158 238.6398527914911 68.9589419052533 0.4339972683042012
1.623124278998949 13.017775873550278 214.98852959664347 72.2024213799057 0.44190190160472875
1.6341970892023199 13.002003247736441 203.83404804698634 76.77104122318778 2.0029884221103145
