M[M_sun], R[km], Lambda[1], P_c[MeV/fm^3], rho_c[fm^-3]
0.24162668629717493 15.618656898711224 2160425.4255784233 3.5677272577965504 0.1711233750220791
0.25364364967233227 15.277303917258376 1723281.5985815134 3.784813366371465 0.17388809527912794
0.26603837631606064 14.981302184949369 1382916.7426732013 4.0113883693359575 0.17666650263331488
0.278814443123346 14.723516816169589 1116423.4888114522 4.247708552839006 0.17945728617166143
0.2919672392580001 14.498465746069591 905913.0197906322 4.494398974470963 0.18226700983086525
0.30550367908486353 14.301227185235811 738703.0711989255 4.751614281359159 0.18509136111935542
0.3194191005689495 14.128158381657295 605115.3796910514 5.020038345947856 0.18793699370236316
0.333715550284137 13.976011656157732 497671.4533125152 5.299893010255237 0.19080048733972998
0.34839655608323766 13.842064177113073 411028.26298299414 5.591909463324716 0.19368819078936983
0.363458137706629 13.724032068164334 340671.1934763257 5.896251735333259 0.1965951070697002
0.37891158897763255 13.620029099767553 283323.9686073199 6.213785240325686 0.1995289450212324
0.3947433143444681 13.528505657782647 236414.2981281164 6.544769448078157 0.2024859196027506
0.41096725298899583 13.447904591261212 197893.53341413997 6.889902653384776 0.20546967274952943
0.4275746380736083 13.377084192381025 166095.6401830285 7.24989174096609 0.20848331110127696
0.444568650442877 13.314964027841835 139819.1724088282 7.624998700760186 0.21152242974337124
0.4619494536906753 13.260592335917261 117992.77900072344 8.016166489965608 0.21459309736876306
0.4797129794999192 13.213178861029233 99830.28561432638 8.424102814964096 0.21769700592765123
0.49786913251502335 13.17203963273784 84654.26192634008 8.849252717579354 0.22083168403179598
0.5164061857041301 13.13642801284664 71944.59788358463 9.292481124304029 0.2240004215458312
0.5353241803757299 13.105867879441831 61283.07992675394 9.754676662469784 0.22720619469507125
0.5546292982373802 13.079828478697484 52306.31985119226 10.236648795294 0.23045035421532228
0.5743111122370234 13.057869398754589 44736.60368133483 10.738874344729938 0.2337296692536056
0.5943655190587244 13.039550365202857 38331.77183034098 11.262586675946952 0.23705018614098516
0.614802903685504 13.02451350187017 32906.559512349835 11.808728594143666 0.2404135886448381
0.6356038322444455 13.012437814169084 28297.727142271324 12.378278947945645 0.24382150943440928
0.6567746485889889 13.00303000843637 24374.02329991606 12.97193458631114 0.24727198834431105
0.6783059512958242 12.995979805934411 21030.903897411048 13.591006535471896 0.2507696353391792
0.7001930528620853 12.991059620073779 18174.706243229437 14.236699761598791 0.2543171724973056
0.7224255307885783 12.988004027343479 15732.637667158137 14.910203748092107 0.25791658404858087
0.745012319787126 12.986653633729022 13636.50423693495 15.612557457739864 0.2615678608112429
0.7679315859580578 12.986760918051493 11838.419001615586 16.345008352287742 0.26527271205880676
0.7911744485297141 12.988143835533947 10290.64565309664 17.109181109567793 0.2690359185777724
0.81474869891715 12.990657278116467 8957.708316876955 17.906530505334075 0.27285991241484003
0.8386289874990135 12.994120376805828 7809.096641349836 18.738430986603493 0.2767458577948784
0.8628091017258085 12.998399298925971 6815.776082806184 19.606208474821425 0.2806940714298939
0.8872826670750011 13.003344563015894 5956.464589579451 20.5119572378235 0.28471099305879766
0.9120408424022772 13.008838188547063 5212.024721478203 21.457471036761046 0.288799635301179
0.9370624439630441 13.014718310511267 4566.159035372062 22.44424548165088 0.29296001368192187
0.9623377850350985 13.020929696117308 4005.080916083936 23.474282541339623 0.2971957416049991
0.9878614398672843 13.027326270089274 3517.181487741886 24.55001520614686 0.3015130091543986
1.0136026405435252 13.033777219747085 3092.4849948856972 25.67339906718043 0.30591354838070084
1.0395652084394342 13.04023546092742 2721.988825155946 26.846368113289238 0.3103984193780814
1.0657153126015806 13.04656163503511 2398.8304697893905 28.072031462364087 0.31497645350927833
1.0920445238163627 13.052689772630213 2116.31985923151 29.352458737282973 0.31964819901624986
1.1185423278831503 13.058528092544487 1868.9641039345788 30.690375415501332 0.32441813594282204
1.1451704254774904 13.063986412885903 1652.4501184003918 32.089212183754896 0.329294532117512
1.1719331770619394 13.068997195615083 1462.3777657799892 33.55087484415688 0.33427485785351146
1.1987886407306971 13.073452983415836 1295.7128606528468 35.079921577746575 0.33937278894358136
1.225732504893856 13.077324306111464 1149.3237056246744 36.67839538871022 0.3445852095566804
1.2527271783690936 13.080493031987272 1020.405813714712 38.351316684829136 0.34992636508558556
1.279768294602486 13.08293486780269 906.9035523228719 40.10093925184351 0.35539292557604907
1.306811340440473 13.084518192312066 806.9483048696497 41.93274184225106 0.3609994958760098
1.333847397924906 13.085238571968503 718.7845868451176 43.85016660411208 0.36674777846695217
1.3608545324427237 13.085037191653022 640.7555013839915 45.85795970032721 0.37264585183868215
1.3877841171139036 13.08377647686811 571.9394031048524 47.961423801400734 0.37870350838463185
1.4146399512019388 13.081491684792901 510.9504766262143 50.1652782126421 0.38492621437483177
1.441361959435307 13.078043991661476 456.9974658154669 52.47481082148213 0.39132129952668065
1.467955532954107 13.073445715545803 409.1152809665787 54.896401321457326 0.39790027177166043
1.4943645519377722 13.067583977977076 366.6320448483462 57.436237152582045 0.40467218806134925
1.5205756424123684 13.06044249128684 328.91407575458186 60.10094364660087 0.41164681510034634
1.5465585741638932 13.05196203750182 295.35803691430544 62.89762344452703 0.41883468777989025
1.5722747927384433 13.042083730381451 265.530279410924 65.83389968782672 0.4262471723813501
1.5976983661651234 13.030761718630592 238.98323256487367 68.91796336629152 0.43389653510789256
1.6227862695264983 13.01794459477129 215.28803617542098 72.15862525325815 0.44179601657099904
1.6475382693746004 13.003609382563663 194.1437388831302 75.56537291282667 0.4499599129342569
1.6718862752896595 12.987681936836331 175.27687071891734 79.14818228742297 0.4584026161530356
1.6958249239386196 12.97013901052711 158.39283503913884 82.91715770825974 0.46713704111753324
1.7192890544312194 12.950900340979556 143.32238285187537 86.88507206222512 0.47618490222622356
1.742290267927868 12.930000990429324 129.81122938091866 91.06355288381722 0.485560751413618
1.7647703152222696 12.907358375788373 117.70827944913023 95.46657603880912 0.4952860693092322
1.7866772441205612 12.8829315045264 106.85982287743876 100.24184131310325 0.538535539059565
1.803505109821138 12.856637823919291 98.6740443920688 105.40746004654524 0.8651608192487833
1.812221105351424 12.823438654418494 93.27413613902526 111.68066281928648 1.188605864785716
1.8147437800017898 12.781752236403968 89.53273970654189 118.96168271298647 1.4997573967471771
