M[M_sun], R[km], Lambda[1], P_c[MeV/fm^3], rho_c[fm^-3]
0.23841724892012095 16.20908015294055 2780876.1263280716 3.453507347168396 0.169602847481901
0.24841406906567165 15.866236429363838 2282275.7444049665 3.63553679649878 0.17197831642261824
0.25869365425357527 15.562934244348252 1881732.6880946003 3.82474201966586 0.17437461539873247
0.2692560420695959 15.293699847397855 1558245.0275288816 4.020226577141727 0.17676599805631216
0.28010834648349503 15.053998129157462 1295645.5906640608 4.22232281343425 0.17914452275681234
0.29123532095169036 14.840021849949736 1081355.0920653495 4.432396666099835 0.18154685690609457
0.3026548955103449 14.648685261998216 905744.6928873563 4.65079564657464 0.18397686481204756
0.314354901370042 14.477201080306852 761193.5691609109 4.877886917117166 0.18643619946309167
0.3263384423308742 14.323423361706881 641728.0198887702 5.110977462448641 0.18886502850599907
0.3386081237418261 14.185118830088461 542617.8439028305 5.353274190444855 0.19131579106715463
0.35115682180620905 14.060835743185761 460136.40366161766 5.605267053941653 0.19379651785471005
0.363990139078032 13.949002156750867 391222.19716888503 5.867368419493114 0.19631282725237703
0.37711249789796175 13.848352673675882 333480.2519917451 6.136469192758746 0.1988047471851499
0.390513572429283 13.757715126321656 284957.62916046823 6.41599816967405 0.20132684682363086
0.40419858119996116 13.676139161292577 244055.48075017432 6.706763718412892 0.20388358272969795
0.4181675382046953 13.602698421857829 209500.1850418015 7.00886014440839 0.20646636207440486
0.4324261480226908 13.536733856160875 180194.55790144415 7.318915701569421 0.2090257640834909
0.4469604511795754 13.477368633841037 155311.9133342354 7.641512407629123 0.2116296306668783
0.46178347903062317 13.424120153438686 134118.43970487724 7.977184059027306 0.2142780052959007
0.47688680609880035 13.376339196346294 116035.14585902818 8.32400076545944 0.21693332224628176
0.4922727023103807 13.333707287534276 100566.49119946176 8.68191160849199 0.21958602928876392
0.5079375621376263 13.295559828857362 87306.4538411328 9.054421525411351 0.22228684293023915
0.523887063527157 13.261696421148343 75920.11753078448 9.442135263602141 0.22503863099018317
0.5401173360897512 13.231666372560724 66125.11751032394 9.83964667480261 0.22776449594675852
0.5566193425638202 13.20518492130325 57687.48138444658 10.253106243966691 0.23053694539627492
0.5733960283155987 13.181866405622522 50399.42839817494 10.683488496388337 0.23336002593214192
0.5904608300544659 13.161466729156585 44091.14519239999 11.127813866268982 0.23618701489359223
0.6077912087426294 13.143813472129905 38629.31077834629 11.586898097515894 0.2390316912918356
0.6253854593166405 13.128491546182927 33885.67301099189 12.064824466764803 0.24193571000667308
0.6432535794676537 13.115442737245107 29764.6206315544 12.561268558822235 0.24488759014221045
0.661379577417184 13.104402398651315 26176.58898852974 13.071210059992133 0.24781877120808962
0.6797801460043725 13.095293728289835 23049.6626046194 13.602106898681766 0.2508085889690093
0.6984230995825265 13.08778415513631 20320.37974196115 14.154864764576962 0.25385876911060307
0.7173397484745544 13.081936443071235 17935.972644351754 14.723447575947864 0.25690490447376063
0.7365043251735229 13.077551155918899 15849.75029856702 15.313506207919298 0.25999966975183875
0.7559040953149492 13.074177383215252 14020.153343047268 15.927817217590942 0.263160388429023
0.7755462006934492 13.072056962883932 12415.885066093526 16.563420695439955 0.2663457364846868
0.7954300269375075 13.070959122935905 11006.601063035969 17.219531825812684 0.2695451231501842
0.8155454479001429 13.070718905558092 9767.060027516874 17.902687464400312 0.27281639972695965
0.8358887512738452 13.071294123690551 8675.546418571224 18.61353427606094 0.276157854450042
0.8564418072616653 13.072654331469353 7714.219994998775 19.343628117360456 0.27948936587621787
0.8772208337058348 13.074472574654838 6865.285129512269 20.10375093163848 0.28289174155723573
0.8981889733603428 13.076793665115744 6116.032767908433 20.89515362122771 0.28636669258116254
0.9193722373875667 13.079710933610018 5453.553261970174 21.712433865800673 0.2898637087082452
0.9407434527216343 13.082922334114244 4867.331350068758 22.558880923088918 0.29340810903996384
0.9622821442760303 13.086259073597848 4347.968632666714 23.440134057618444 0.29703590159316395
0.9840158486768309 13.090033745061907 3887.515463824838 24.356632616376306 0.3007411385333266
1.005903512432344 13.09380595252948 3478.8135459731593 25.299968554210068 0.30444143794683454
1.0279403926545891 13.09761814077937 3115.7034967803147 26.282140173452216 0.30822819191101314
1.0501395751240565 13.101478693234172 2792.72630158416 27.304646280880856 0.3121032943168958
1.072475025889776 13.105398193456361 2505.6430328508395 28.363783252917163 0.31603378298771256
1.0949149276684493 13.108990670592998 2249.7547609754006 29.459632229304784 0.3200132073937313
1.1174806600291676 13.112543009674608 2021.6587235953084 30.600483862293743 0.3240817652386072
1.1401467035069124 13.115861348756605 1818.202816260877 31.78818947107474 0.32824016097289677
1.1629020785242814 13.118825058071824 1636.4687502340842 33.0171006245841 0.3324494267892539
1.1857393997976335 13.121537595300047 1474.097592813766 34.29176607839927 0.3367326012270354
1.2086341899986621 13.1238485283945 1328.8721214395914 35.61890490565901 0.3411214382850105
1.231588764701504 13.125766655653283 1198.925221225933 37.000536840333616 0.3456149284127176
1.2545871903308454 13.127235042509522 1082.5404949168035 38.43291098497607 0.3501693236855212
1.2776000994085277 13.128179330043876 978.1910540557801 39.91829301984401 0.35480269972708156
1.3006069867617305 13.12848308055142 884.663326600509 41.46510349985863 0.3595532181780635
1.3236399839202702 13.128337809153297 800.5678650838958 43.07580064933077 0.36442304427753636
1.346637078572795 13.127471229625383 725.1037332576847 44.752973460851095 0.3694141171607416
1.3696082073324014 13.125992544037064 657.2177043254165 46.48880023513631 0.37445872691768695
1.3925046705047477 13.123691010340341 596.1597547374446 48.29636838926219 0.37963199697626837
1.4153370965891272 13.12068732815827 541.2115405876398 50.179359014626684 0.3849405937083494
1.4380959992774984 13.116899044795518 491.67225152818514 52.140964279298004 0.39038734165216493
1.4607425626370154 13.112281939059253 447.00309390719013 54.184568467433216 0.3959738376618547
1.483279968058106 13.106822493509693 406.69851990175545 56.30852428857171 0.40166880964288326
1.5056575013955875 13.100417234495472 370.35047971558856 58.517848149333744 0.40749804859699085
1.5279004124432791 13.093145182079656 337.47009308394314 60.82102173984327 0.41348797565802425
1.5499526862008945 13.084924477687393 307.78276224904266 63.22229739392221 0.41964170225044245
1.5718165153875165 13.075659255949393 280.8864856383419 65.7261919863893 0.42596006202432984
1.5934719734370717 13.065424132623086 256.5585848305318 68.33757020148632 0.43244854185153103
1.6148863115612566 13.054128622690163 234.53174924715415 71.06148794632824 0.43912210935703055
1.6360811659981835 13.041830422371131 214.54067411951047 73.90338539146443 0.4459879179954557
1.6569657021592823 13.028315971181263 196.42285007299586 76.86596534313964 0.45303571545188204
1.6775684163595197 13.013624947063878 179.971616109156 79.95705246599374 0.4602756555572473
1.697865283548052 12.997830673407213 165.0182741121782 83.1854548769948 0.46773690271979085
1.7178415862747063 12.9809726472506 151.45025247966333 86.55824091212344 0.4754299798577178
1.7374630810227638 12.962804512659847 139.09683151967704 90.08293479369692 0.48335969801190576
1.7566924508190256 12.943267489723155 127.85593599615223 93.76759298940391 0.4915336997404719
1.7755501566829948 12.922618114977913 117.62891757469063 97.6208762246703 0.4999710760817447
1.7939918280050824 12.900740469561288 108.30912286610628 101.65202659740594 0.5086878229495624
1.8120105305071612 12.877448354829342 99.80666554171577 105.8709289440507 0.5176911914934071
1.8295556469329128 12.852709993345268 92.0438658345396 110.28819943940589 0.5269938830981822
1.8466548092308543 12.826898337576973 84.96812462875435 114.91525161394193 0.5366195457913326
1.8632465503492204 12.799554027009538 78.50057804413912 119.7643338991431 0.5465879083452253
1.8793216725724962 12.770858356386338 72.59376824173772 124.84670091856007 0.5569003364905432
1.8948860878726943 12.740770192858587 67.18714526174725 130.17272498564728 0.5675669618302199
1.9099240790342498 12.709430897103253 62.24038624819046 135.76190087670903 0.5786328797152691
1.9243316511578223 12.676295665984222 57.704375625825655 141.63055264759717 0.5901165801490296
1.9381865079605718 12.64209425275117 53.561727587266 147.79627528590834 0.6020363593901175
1.9514316945334906 12.606275690873174 49.75508410265091 154.2780158445244 0.6144276333529118
1.964019583769984 12.568787415665748 46.25950178291269 161.09625512170356 0.6273224034250664
1.975983573667314 12.530034460797287 43.059740239135046 168.2577244208788 0.6406844816592364
1.9873008119093307 12.489792233680685 40.11866943280077 175.79951353404212 0.6546047795137504
1.997923670896601 12.44801376171425 37.41587375843818 183.74774150477123 0.6691241029202935
2.0078502924234316 12.4047283521726 34.931400617492514 192.12516895736138 0.6842493536792738
2.0170603003222585 12.359916182029368 32.645193839531444 200.95009809290582 0.6999939256018756
2.0255683979783203 12.313767701710704 30.5456917007098 210.27008290829528 0.716457188612764
2.0332955033339086 12.26588333941039 28.60730872320471 220.1104164063529 0.7336374000943592
2.0402944119056583 12.216536633511042 26.82299295344417 230.5024804962418 0.7515786876521199
2.0465084888919844 12.165784466071296 25.181760047837706 241.50178333746695 0.7703851146936144
2.051949247430926 12.113422455991259 23.66437676416651 253.12501053834077 0.7900060511902834
2.0565882821353605 12.059723520027672 22.269806354652683 265.44820287194364 0.8106154324149407
2.0604142134413843 12.004421864435557 20.981844372616628 278.49159704912717 0.8321676887683739
2.0634272334093047 11.947668861147209 19.792068319863052 292.3374131600746 0.8548136637608794
2.0656006420027238 11.889462466622426 18.69475443181718 307.024257058686 0.8785684299405488
2.066965407343082 11.829863180904853 17.679233340021206 322.6291370855676 0.9035297670941409
2.067467162739539 11.768770033883763 16.744199153610364 339.22646005444784 0.9298081962009274
