M[M_sun], R[km], Lambda[1], P_c[MeV/fm^3], rho_c[fm^-3]
0.23841724892012095 16.20908015294055 2780876.1263280716 3.453507347168396 0.169602847481901
0.24840861343197226 15.86644678164048 2282345.451772648 3.635453395940814 0.1719772555359786
0.2586830105707174 15.56332014016079 1882160.6973506992 3.8245704692356584 0.1743725168047106
0.269240732539472 15.29405288170976 1558587.528815816 4.019950202827613 0.1767626171409585
0.28008827303557327 15.054418864299615 1296012.8603718872 4.221944357693656 0.17914009730408684
0.29120931838984043 14.840450673508224 1081833.7670441954 4.431910916474746 0.18154139124168397
0.30262386177627837 14.649151312035277 906162.2936444465 4.65019711586784 0.1839703824110926
0.31431888364572774 14.477676900948117 761568.5922278037 4.877158018587697 0.18642848782792973
0.3262946982221881 14.323931642152663 642093.2418128855 5.1101001322718185 0.18885588662934913
0.3385563227425561 14.18563370123664 542998.1825155873 5.352261811413925 0.19130568943578277
0.3510984508269017 14.061351011262309 460440.3951737309 5.604113289032404 0.1937854289690698
0.36392894516670754 13.949616572211271 391559.4819108052 5.866066468839198 0.19630077096303006
0.37703967553155354 13.84889395333447 333766.28913211566 6.134951359134126 0.19879069178197167
0.39043324102441135 13.758207051729135 285209.4700450314 6.414312595247025 0.20131182342886217
0.4041097881353962 13.676632062651828 244299.8867342902 6.704902858322423 0.20386767326969948
0.41807212378713837 13.603109868491183 209698.91141678896 7.006731137682246 0.2064481600894628
0.4323179639135665 13.537102388435878 180388.14641926484 7.316589369261026 0.20900658739052264
0.4468455789210338 13.47771896488945 155480.7100848537 7.638979649440932 0.21160949394684891
0.4616581223129639 13.424469376978973 134275.0749153351 7.97443541936086 0.2142569610112355
0.4767541924003309 13.37674040316749 116178.71594138946 8.32090728813564 0.2169096377967695
0.4921358485778317 13.33415383717976 100700.95035924502 8.678576146419688 0.2195614896487845
0.5077852800419084 13.295950761229404 86541.44770451181 9.050833266203147 0.2222613603672126
0.5237273000848354 13.262041074721056 76026.62350733993 9.438282397937238 0.2250122106379557
0.5399451189134487 13.232037417670387 66229.47878595073 9.835357599489447 0.22773508436318418
0.5564378483447009 13.205401876691402 57773.08891163037 10.248520854330598 0.2305066441901924
0.5732065467991949 13.182204038325496 50476.66619279159 10.678593612330006 0.23332888257608236
0.5902543215824738 13.161674578593809 44158.70606029609 11.122395882622625 0.2361525433531405
0.6075756716343177 13.143948437051735 38688.796448532135 11.581134122951825 0.23899624565386157
0.6251603222355568 13.12866713271739 33941.95570572938 12.058698068112026 0.24189928214948866
0.643016016544467 13.115603045244882 29814.737630531232 12.554518264706546 0.24484745257298982
0.6611340686023791 13.104604636529823 26223.880126541742 13.064054708695323 0.24777773025432406
0.6795207574454756 13.095413301864246 23091.25601192558 13.594528056380708 0.2507666454120129
0.6981498455730827 13.087908609393741 20359.555687291893 14.14684235275063 0.2538157897030774
0.7170547507050263 13.082096626940851 17970.759959092877 14.71465456728393 0.2568577966574424
0.7362015482611827 13.077514255923756 15879.534759317617 15.304216790078229 0.25995147154017173
0.7555898517320784 13.074243663950813 14047.50889232398 15.918007559725686 0.26311122700103085
0.7752232896695188 13.07209324674243 12440.327669153863 16.552699414503593 0.26629200642722956
0.7950963776488491 13.07097782937482 10955.017756357676 17.208229561763822 0.2694903400095988
0.8152016111783894 13.070732702462486 9786.351506286166 17.890775486766028 0.2727604054771798
0.8355251779436772 13.071292165796772 8693.21699160302 18.60054634820761 0.27609680251570584
0.8560701382348859 13.072581892261294 7730.324493278805 19.329957094468746 0.2794270131961734
0.876827464589774 13.07446158367833 6880.237983287989 20.089362824452273 0.2828282525207073
0.8977890957345206 13.076741102662528 6129.447192802804 20.880012857464546 0.28630190758800045
0.918954733940542 13.07966871874494 5466.074084844626 21.69597522225615 0.2897932847107397
0.9403051456434206 13.08279577137306 4878.49770484151 22.541578491671228 0.29333616490175807
0.9618380763137757 13.08618708019237 4357.924743879312 23.421943034393124 0.29696235859564396
0.983558484950651 13.089946847734069 3896.512995353636 24.336889145248474 0.30066131927136397
1.005437349852686 13.093706658605884 3486.8505081517155 25.27922862366413 0.30436016011816464
1.0274676324695302 13.09753999467913 3123.116699417017 26.26035206133608 0.30814516956271903
1.0496392039261744 13.101372311349396 2799.5591071811664 27.28175320504566 0.312018337434466
1.0719518682065456 13.105213946469561 2511.674956274936 28.33898795577942 0.3159417669056925
1.094387828093342 13.108896157971042 2244.086050696945 29.433593274204426 0.31991904407388594
1.1169399643424505 13.11234681435536 2026.6459403728074 30.573134218867807 0.32398568667246386
1.1396041643664885 13.115765818464094 1822.7744707315642 31.75939008981353 0.3281398179211252
1.1623415675912732 13.118764989742344 1640.693364234516 32.985312821014105 0.332322883308906
1.1841605719825024 13.120797831985133 1484.1455758906318 34.29723800546344 0.4114401409732197
1.2024152467181817 13.118260046559456 1361.8870861419512 35.72414036925356 0.5190718107144264
1.2175921685571096 13.110066571545968 1263.4531944311188 37.29006566070437 0.623838129464381
1.2302529434129266 13.096084121609156 1181.4499466576237 39.007369261652364 0.723055826027
1.240825374997498 13.076473141503383 1111.1784866732537 40.86938672842839 0.8183264229114376
1.249699124508372 13.05159034106447 1049.4697254702908 42.877172520602976 0.9111136904611943
1.2571927694484284 13.021634948665147 993.995106539949 45.03630028405374 1.0014592420313124
1.2635461691131091 12.987057301137803 943.3206247676651 47.35160945309556 1.0893432034168093
1.2689662459988067 12.948067274176905 896.2715610681414 49.819938211649976 1.1726593597226966
1.2736317612274477 12.904865284103382 851.8683533184029 52.44843301085915 1.2542200750436059
1.2776751938117117 12.857752203272232 809.785084511322 55.24283816849033 1.3339579767506147
1.2812542625796655 12.807120461190271 769.5329335813936 58.20881691527191 1.4123336620289326
1.28445500857451 12.75296782377964 730.6439949609899 61.35230865289044 1.4903279737641326
1.2873803714995085 12.695818204206665 693.1359617806527 64.67410680975591 1.5680926522942162
1.290073353556041 12.635608831118741 656.8243171938501 68.1788639783674 1.6457960486519474
1.2926101352783719 12.572812470715808 621.65758544434 71.8822055485547 1.7242787839682832
1.295051146922335 12.507488751080396 587.5482681279385 75.79292230316076 1.8036878391246884
1.2974050097584182 12.439887008932821 554.6058301275384 79.92023493898522 1.8841289459411774
1.299712559768123 12.370089703259907 522.7559841907391 84.27386432435883 1.965651752115793
1.3020348992423199 12.298372844278502 491.99597105124906 88.864265631541 2.0483944228035678
1.3043619401260764 12.224890583983587 462.3770010071711 93.70237638176687 2.132779248589498
1.3067343253320034 12.14975108986115 433.9037937669085 98.80023201239584 2.219015283204472
1.3091641940886225 12.073296215885108 406.61992143003135 104.16657393170149 2.307225018059013
1.311618417168606 11.995372741709962 380.5293643912296 109.81578380312084 2.3980657972953066
1.3141528257419024 11.916631365209719 355.71320574686723 115.77345384200157 2.5056306945154874
1.316699210568582 11.83666603264792 332.13407207004207 122.05065723054987 2.5888437796246007
1.319397709901617 11.755430828667082 309.5481328537312 128.6426107989234 2.643568062167219
1.3222915551470737 11.672844888427683 287.88833671491125 135.55274744312763 2.6944952968186957
1.3254219211602913 11.589375682942594 267.2481634250881 142.79756625882024 2.7474764405621355
1.3287913589846658 11.505297542104941 247.61645883090196 150.3972001705649 2.8026650805014985
1.3324037577974364 11.421092066071747 229.0936685647226 158.37391546127583 2.860210515007745
1.3361882978822568 11.336497923361641 211.6800897551836 166.75140530930477 2.9202409920608825
1.3401423003349309 11.252057194684827 195.39819044421228 175.5530872140867 2.98284748137009
1.344221841706105 11.16784501412207 180.22932195681466 184.79522259191162 3.0481159788208885
1.3484113931969006 11.083931144333848 166.12961349412842 194.51884989157662 3.1162493933798268
1.3526422882888753 11.000306710486228 153.0746787760367 204.75605938394088 3.1874699553999464
1.3568616366678072 10.917141312322848 141.0491135885651 215.54231094834608 3.2619256722430925
1.3610596736793625 10.834331261151881 129.9356227383227 226.91522060479227 3.3398279789209266
1.365165108943535 10.75206030884085 119.7494893581134 238.91630791525617 3.4213999207683883
1.3691705896235378 10.670170229906983 110.37875035297698 251.58039805981326 3.5067524305430053
1.373008510173117 10.588815724259085 101.80732523871266 264.93741966217624 3.595981892611889
1.3766480085873471 10.50786729102651 93.95734754740577 279.0645173613234 3.6895710711949645
1.3800634026587268 10.427351206381088 86.7812782822899 294.01882118372953 3.7878286536668373
1.3831888344423717 10.34730596632219 80.22967239042866 309.84135011441913 3.890820767550621
1.3860163370790244 10.267685265857288 74.24995653230212 326.5899334385075 3.9988244310990533
1.388508268923404 10.188375751745697 68.77531245042842 344.3642746902264 4.112433960677066
1.3906360046235045 10.109420314925787 63.811089886053324 363.2134940440361 4.231736433845545
1.3923720622637774 10.030833626545306 59.27338166899704 383.2242196203429 4.357157765617138
1.3936796846235064 9.952421967318955 55.11587435554316 404.5095014283876 4.489307194403927
1.3945403476868437 9.874346488113515 51.3438012083006 427.121277138099 4.6281763808145895
1.3949375637294836 9.796508702706072 47.90720432372648 451.2233746456688 4.774792603666247
