M[M_sun], R[km], Lambda[1], P_c[MeV/fm^3], rho_c[fm^-3]
0.23841724892012095 16.20908015294055 2780876.1263280716 3.453507347168396 0.169602847481901
0.24841040609103113 15.866411339713913 2282439.0651357137 3.6354866856471992 0.1719776789936341
0.25868844308300126 15.563129378254606 1881925.7296237173 3.8246389437057773 0.1743733544599323
0.2692495667597078 15.293794934538145 1558461.9490266272 4.020060516704579 0.17676396662193886
0.28009584344525296 15.054283441002516 1295829.8195401772 4.222095415634891 0.17914186369234852
0.2912206881991419 14.840232466550813 1081572.841340894 4.432104798279241 0.1815435728035915
0.3026360279805617 14.648970791631752 905945.6584831176 4.65043601096763 0.18397296977011265
0.31433290391790875 14.477503895495076 761418.9371365954 4.877456081587531 0.18643171010962775
0.3263125490473343 14.323715908924889 641965.9960591823 5.110450299666662 0.18885953541200254
0.3385775048163514 14.185407621857253 542814.4096662747 5.352665877331203 0.19130972125076667
0.35112204443041306 14.061162255984271 460325.57187853847 5.604573781935412 0.19378985478675473
0.36395273793891664 13.94939746457431 391435.7461762989 5.866586101885409 0.19630558285535527
0.37706737079758745 13.84870195204843 333649.81672130123 6.135557148723383 0.19879630149886032
0.39046493818406736 13.758038690801596 285115.30436347803 6.414985327551746 0.20131781943996999
0.4041464434031409 13.676351651958678 244193.451198263 6.705645543686892 0.20387402287285233
0.4181112576944286 13.602981147635152 209616.11219414006 7.00758083346742 0.20645542458031532
0.4323608782472491 13.536910095109757 180307.38101929345 7.3175178118681545 0.20901424083657216
0.44689273250976946 13.477603466240986 155418.44442685685 7.639990469805352 0.21161753048455442
0.46170854696375 13.424283538256391 134208.94844273626 7.975532390171474 0.2142653596988808
0.47680693678442837 13.376585776741427 116123.88765194647 8.322141868553643 0.21691909005858312
0.49218761907905245 13.333891055647712 100640.21760558242 8.679907291939006 0.21957128314398733
0.507844777843768 13.295819050949522 87384.48733922184 9.052265290787462 0.2222715301054082
0.5237907022667092 13.261932268721502 75992.02978646065 9.439820013329744 0.2250227545664997
0.5400116584064469 13.231874338418411 66188.2696673552 9.837069279610274 0.22774682191014956
0.5565113863571738 13.205367218168142 57739.536679820754 10.250350775665947 0.2305187366900447
0.5732854722166038 13.181948050865458 50444.199696547956 10.68054703342874 0.23334131108063674
0.5903350052748277 13.161576701909027 44131.009733991705 11.124558034140794 0.23616629989032967
0.6076613489777658 13.14387850736247 38663.351023273906 11.583434334766945 0.23901039083690429
0.625249972239857 13.128615049689616 33919.07587361289 12.06114289660078 0.24191381921572877
0.6431138358504206 13.115587153530074 29797.324354044533 12.557212035838047 0.24486346986399998
0.661234721162082 13.104527902767193 25998.60767123412 13.066910104844448 0.24779410795214454
0.6796253296807607 13.095367621236074 23074.845089602517 13.59755243196195 0.25078338320184035
0.6982598430228144 13.087880581156321 20344.327079901956 14.150043718345927 0.2538329407543494
0.7171664111291026 13.082076807560306 17957.46377238469 14.718163399201115 0.25687659493409193
0.7363222461711366 13.077452425186813 15866.94223635177 15.307923691634848 0.25997070482571355
0.755716465468882 13.074260624837613 14036.800761743765 15.921922038336303 0.26313084454131475
0.7753508668060604 13.072086094720362 12430.322271721529 16.556977617209984 0.2663134467829662
0.7952295648606363 13.070961958421641 11019.986219074173 17.212739573425896 0.2695122004617929
0.8153401701831948 13.070760734242093 9778.883334576001 17.89552876927603 0.2727827490792508
0.8356687042102475 13.071322319393683 8686.75581511776 18.605728905525485 0.2761211639960464
0.8562184785068254 13.072547191596389 7723.9053397730995 19.335412195565283 0.2794518935709615
0.8769832785574033 13.074468471085249 6874.173536012785 20.095104028839202 0.28285358618901557
0.8979504641111581 13.076805280200524 6124.218884200957 20.886054356099624 0.28632775822895123
0.9191212840983959 13.07969362245887 5461.013443699806 21.702542498608725 0.28982138507345917
0.9404782393239407 13.082768352724626 4874.059176971559 22.54848241464524 0.29336487166421327
0.9620146653544084 13.086226613882213 4354.070357539507 23.429201477266744 0.29699170315969853
0.9837315204433548 13.089894304688553 3892.840411371601 24.344766928942377 0.3006931677176821
1.0056213058966619 13.093726469204652 3483.7427826432354 25.287503954454102 0.3043925903578245
1.0276524720442823 13.097531036860039 3120.066624450423 26.26904557172856 0.3081782956841496
1.0498537188653603 13.101566055729212 2796.9400426665993 27.29088754585055 0.3120522352437172
1.0721582393146794 13.105266909530634 2509.332401668596 28.348881147597172 0.3159784808335267
1.0945959327021617 13.108916466742913 2253.0946356141453 29.44398261799133 0.3199566145177927
1.1171525842347152 13.112473737643583 2024.7583709893206 30.584046452649545 0.32402402105799283
1.1398211158957678 13.115806256282019 1821.0092718042938 31.770921536570796 0.3281810148530011
1.1625701820057113 13.11879541411635 1638.9943419913834 32.99842828063512 0.3323854702868889
1.1853904910397426 13.121454754868951 1476.3953156594207 34.27215716614361 0.336667038710503
1.2082814698916213 13.123835626127502 1331.0517263862787 35.59830583954695 0.3410541696481002
1.2312334292342753 13.125730006500937 1200.842119182174 36.97889221646261 0.34554610688797255
1.2542136425261092 13.12721493907982 1084.3567737972107 38.40953522979063 0.3500949978333596
1.277243371306749 13.128300198972399 979.8148075440846 39.893737000122975 0.35472636451290324
1.3002369881512288 13.128492468456677 886.0482083287128 41.439297992800775 0.3594747316098621
1.3232428302129746 13.128281657598622 801.9349877109297 43.04867190425884 0.36434228369902866
1.346253743256738 13.12753089185812 726.3115589797326 44.72435150979375 0.3693306771531956
1.3691963446338375 13.12593846423443 658.3334611116851 46.458030372994365 0.37436930443090394
1.3921007131631584 13.123718844377697 597.1872634773844 48.26401258997794 0.37953984058561413
1.414944682277556 13.120821421172096 542.089748325996 50.14532118154697 0.38484552921073456
1.4376783803946867 13.116928186599075 492.5167740688546 52.10514217082062 0.39028922882041295
1.4603141845612277 13.112326743751973 447.8062397748198 54.14685471196338 0.3958727156052834
1.482860300485291 13.106941822996655 407.4314246667586 56.26788004196779 0.40155983004768847
1.5052453217314339 13.100584647694722 370.9821703146814 58.475053004341184 0.40738535046833435
1.5274781020665482 13.093335656762319 338.0832063461563 60.77594127003526 0.41337132160687495
1.549511699518796 13.085003784399511 308.32527678332855 63.17478842653749 0.41952092143333436
1.571381429018146 13.0758406608437 281.4032434322412 65.67610310937548 0.4258350810687003
1.5930353576381804 13.065609180897813 257.0348102392728 68.28473875102196 0.4323188185542026
1.6144600510973794 13.054352726742795 234.94575316969141 71.00573798447087 0.4389873420210185
1.6356363730005166 13.042015222902565 214.93087209030267 73.84452922481704 0.4458479027559149
1.656533435744253 13.02855857304156 196.76796132933308 76.80258126365777 0.4528849285831943
1.6771231364936383 13.013969968141211 180.31236090076044 79.8901143708123 0.46011900892511975
1.6974257942477093 12.998223592206708 165.33925613994066 83.11473038849765 0.46757374875014424
1.7174028674545696 12.98137572126321 151.74320430955115 86.48347889012113 0.4752598980313273
1.7370255909373065 12.96309108666008 139.34944750497183 90.00386662543501 0.48318240954786496
1.7562807572475143 12.943771096388431 128.0991034901853 93.68393149243337 0.4913488045068564
1.7751300402084298 12.923080326044694 117.85018013063015 97.53231152100864 0.4997778328293243
1.793575984196538 12.901143832246177 108.50997788444998 101.55822385847313 0.5084856844185582
1.811589609051048 12.877845871401574 99.98314644644196 105.77152908574526 0.5174797935063163
1.8291837277710588 12.853548103332484 92.22547757895553 110.1828169182953 0.5267726043517693
1.8462749303315453 12.827559477707467 85.12359298838808 114.77541937597627 0.536285071793986
1.8628705502177831 12.800235525406597 78.65015246368522 119.64152420124114 0.5463267132335999
1.8763166178426771 12.772740197875498 73.464715076487 125.00903046667308 0.8788551690005025
1.8833836296348845 12.741972906224126 69.98301769560995 131.34449427008283 1.2112632148572204
1.8852138351257968 12.705999629757915 67.60771521537059 138.64797076232048 1.5330602905919777
