M[M_sun], R[km], Lambda[1], P_c[MeV/fm^3], rho_c[fm^-3]
0.23841724892012095 16.20908015294055 2780876.1263280716 3.453507347168396 0.169602847481901
0.24840830868388272 15.86645502739214 2282438.8918027333 3.6354534172476014 0.171977255807009
0.2586834642550117 15.563270038440338 1881988.8031560834 3.82457051306187 0.17437251734084117
0.2692416422856204 15.2940151059736 1558603.3297544532 4.019950273432112 0.17676261800467058
0.2800884748912227 15.054403895923501 1296036.0029120918 4.2219444543751035 0.17914009843462636
0.29121027317021875 14.84040049579424 1081784.5016219395 4.431911040563965 0.1815413926379383
0.30262440687107917 14.649148599169619 906173.6608973088 4.650197268765807 0.18397038406705765
0.3143162928350074 14.477774405135278 761578.905807757 4.877158209754854 0.18642848989837013
0.3262947045077266 14.32393564190281 642092.2589079324 5.110100356383659 0.18885588896461908
0.3385565471566401 14.18562985971326 542950.1965668083 5.352262070020126 0.19130569201618441
0.3510991786814273 14.061346651887542 460441.2930951567 5.604113583750878 0.1937854318016221
0.36392891582228576 13.94967581387259 391558.83376818395 5.866066801406034 0.19630077404265678
0.37703831224810785 13.8488824827325 333772.0026188021 6.134951746838696 0.19879069537218336
0.39043272992405675 13.758207692957132 285216.62041945173 6.41431302579269 0.20131182726628244
0.4041099870498986 13.676624520973686 244300.59959227088 6.704903333635394 0.20386767733339708
0.418071408084647 13.603148377298597 209699.98918450277 7.0067316814771745 0.20644816473864822
0.432317110482619 13.53714177194212 180396.57328463343 7.316589963450127 0.20900659228861132
0.4468459626032169 13.477700025983156 155476.53680953095 7.638980296347532 0.2116094990900865
0.4616578440913328 13.424486544699716 134279.71484995517 7.974436121398937 0.21425696638621763
0.47675396226207734 13.37676015149538 116177.58741015448 8.320908078235163 0.21690964384597247
0.49213649181333585 13.334146453200452 100700.0863036689 8.678576998314556 0.21956149591633992
0.5077861872233981 13.295939369799246 87427.15374450752 9.050834182653716 0.2222613668755243
0.5237273823411819 13.262072521444704 76031.25267823786 9.438283381958358 0.22501221738570837
0.5399454328483356 13.232031125047069 66227.53850178092 9.835358694897794 0.2277350918747553
0.5564379448997834 13.205480679497864 57775.96322196588 10.248522025403762 0.23050665192888684
0.573206014432057 13.182184470772178 50474.96382345891 10.678594862432666 0.23332889052977274
0.5902545580629993 13.161683604829353 44159.402111488685 11.122397266292856 0.23615255215664518
0.6075457316450833 13.14423238743346 38715.59881008187 11.58113559496784 0.23899625470604355
0.6251596391464901 13.128684392708482 33941.3072472215 12.058699632668898 0.2418992914524181
0.6430163771062903 13.115595393029734 29813.022000863846 12.55451998855956 0.24484746282310166
0.6611370580920782 13.104596895932671 26222.41039774124 13.064056535971513 0.24777774073503345
0.6795213471592598 13.095399159735036 23091.084869392493 13.594529991785679 0.250766656123117
0.6981509008451722 13.087913260647557 20359.34285568635 14.146844401409835 0.25381580067859955
0.7170558666603677 13.082089706547961 17970.671096033704 14.714656812682884 0.2568578086869815
0.7362039317927033 13.077490880583623 15765.386575407048 15.304219162218374 0.259951483848038
0.7555897109390715 13.074255262363517 14047.666216386584 15.918010064690106 0.2631112395547437
0.7752226816577685 13.072094091534366 12440.462501747621 16.552702152200887 0.266292020147291
0.7950962881546573 13.07099029622874 11028.605054069565 17.20823244778887 0.26949035399843463
0.815199618420457 13.070749888727093 9786.843982682916 17.890778528452362 0.2727604197751368
0.8355267176852557 13.071284093831311 8693.557779988527 18.6005496645644 0.2760968181047974
0.8560707926587079 13.07260174366831 7730.625693034837 19.329960585215257 0.2794270291172498
0.8768277917702567 13.074467818407607 6880.522962833832 20.089366498263978 0.2828282687317879
0.897790343450635 13.076736451450987 6129.322029532135 20.880016723420876 0.2863019241298314
0.9189562253998643 13.079670463810084 5466.0427794752695 21.695979424621502 0.2897933026920129
0.9403060701135638 13.082772813141442 4878.35697300541 22.54158290943837 0.2933361832709943
0.9618379913505257 13.08619583775323 4358.076464267524 23.42194767899739 0.296962377372934
0.9835527237834272 13.08998589913641 3896.7915037869875 24.336894186118073 0.3006613396506827
1.0054372026336407 13.093713656144635 3486.956315162496 25.27923391889776 0.304360180869685
1.0274672156301083 13.09754678905974 3106.5547003521206 26.260357624134045 0.3081451907594408
1.0496403950374602 13.101361269435493 2799.5902790082005 27.281759049899513 0.31201835912489173
1.0719516927616672 13.105217608752424 2511.749497457895 28.33899428614695 0.31594179039787385
1.094389610241078 13.108866367871881 2255.3497857087737 29.433599922019383 0.31991906811403364
1.1169158622068684 13.112443374348844 2027.5284621580686 30.573141201236197 0.3239857112013373
1.139608935102434 13.115798873896127 1822.7640485243774 31.759465394877626 0.32814177528268823
1.1623489220003655 13.118821220630979 1640.6509335087046 32.98604069629537 0.3323430403397283
1.1851648391135559 13.12147224373177 1477.9379052456684 34.25914837669774 0.3366235437444391
1.2080538184172576 13.12382332988626 1332.418958327517 35.58464031095959 0.34100954328126737
1.2309918180696697 13.125727239390798 1202.1669744170113 36.96453320945265 0.3455004508044046
1.2539752252597665 13.127213712559518 1085.4557248536144 38.39402816925663 0.35004569138402497
1.2769784467979441 13.128129662748668 980.8300404774207 39.87744714702349 0.3546757256292645
1.2999870773607516 13.128523042865835 887.0425281442681 41.42217944723715 0.35942266613829915
1.3229913563338251 13.128341615370122 802.8523024713697 43.03067576490754 0.36428871031695503
1.345989700295286 13.127511662824746 727.126074651336 44.70493406281019 0.36927287262713376
1.3689412632368934 13.12600181984547 659.0899054545491 46.437619605641544 0.37430998724691983
1.3918404797290689 13.123734675162757 597.8411521456069 48.242550062305156 0.3794787106142212
1.4146622699178466 13.120776598295999 542.7346660034161 50.12274318099963 0.3847824709580499
1.4374127956165121 13.117031651667357 493.08414390047324 52.081380912075446 0.39022414933512933
1.4600526944101673 13.11243352426818 448.329883985518 54.12183900992124 0.39580564089459597
1.482586446964261 13.107061437327044 407.92447760021787 56.240921243139624 0.40148754530313746
1.5049627237553553 13.10067992035266 371.443288308973 58.446667906501084 0.40731060022718274
1.5271926942689917 13.09343545402771 338.4852179763298 60.74604075811696 0.4132939485035873
1.549234772597034 13.085160621803835 308.6939347591377 63.14327758938065 0.41944081224828844
1.571106535370567 13.075999720192469 281.7348146723495 65.64288157604967 0.4257521872361756
1.5927611103956278 13.065794850948189 257.3252129238259 68.24969869427936 0.4322327805662376
1.6141848371350764 13.054616427825431 235.22955008651633 70.96950774236434 0.43889996541229687
1.635193144656507 13.042129114288695 215.31003569125656 73.83429774376965 0.4886449076907924
1.6529462665879326 13.027608937834916 199.28158052274662 76.93926013417358 0.6602825453752391
1.6664874190445123 13.008255668906683 186.7570083313118 80.42304757930839 0.825433761142072
1.6765336398788286 12.983497396285019 176.62032606623367 84.27336761231369 0.9822786791872091
1.6836094734815392 12.95266743372076 168.13898867476513 88.49250859164168 1.1335344964941987
1.6882936955952756 12.916610287566478 160.84354389866613 93.08897368668637 1.2803690464303297
1.6909133582402054 12.87532714673997 154.44045277130473 98.0714227096665 1.4220366125225077
1.6918010049231866 12.828831250753778 148.65511442498754 103.44812481340485 1.5590836225783795
