M[M_sun], R[km], Lambda[1], P_c[MeV/fm^3], rho_c[fm^-3]
0.23841724892012095 16.20908015294055 2780876.1263280716 3.453507347168396 0.169602847481901
0.24841835413681349 15.866156191080682 2282071.19211207 3.6356299097771285 0.17197950085873454
0.2587034846746637 15.562734590323622 1881198.1309947928 3.8249335550668433 0.1743769584709533
0.26927268411748095 15.293293772153621 1557794.4758269493 4.02053515901735 0.1767697729700718
0.28013066858244373 15.053524681990725 1295062.0870286697 4.222745386629287 0.17914946409472088
0.2912659509228862 14.839558491841842 1080921.3973191811 4.432939057765009 0.18155295990786305
0.3026921350370594 14.648044748907761 905154.1126200545 4.651463990895018 0.1839841033309931
0.3143966974741646 14.476658714993334 760734.9571270774 4.878687598213299 0.18644454264791555
0.32638847143330707 14.32279645268474 641278.6885429097 5.111957190774637 0.18887523738259232
0.33866425150248775 14.184631454614538 542200.0569992259 5.354404762573752 0.19132707204249735
0.35122091679971845 14.060216018204171 459750.37649625976 5.606555554641008 0.1938089016919961
0.3640608602451279 13.94850137639179 390925.03453363886 5.868822450780623 0.19632629183482414
0.37719235099693393 13.84781795303258 333168.58151836245 6.138164387547262 0.1988204449835329
0.39060518878812683 13.757140814872182 284658.0018017201 6.41788075621588 0.2013436261721726
0.40429978099462804 13.675682438919326 243798.05444947773 6.708842132268775 0.20390135216989916
0.41827857793749607 13.602183128305837 209246.94750198818 7.0112381449202426 0.2064866928366225
0.43254005572924975 13.536158938263087 179967.8045273666 7.32151417125079 0.20904718409089365
0.44708674630392764 13.476799014592496 155105.94619843812 7.644341521268578 0.21165212356397148
0.4619195410084525 13.423597051365759 133941.6913003739 7.980254388746836 0.21430151252146487
0.4770328079289887 13.375915017571673 115873.70358806974 8.327456426229306 0.21695977966441304
0.4924298285276123 13.333268839821816 100420.42818271721 8.685637673743797 0.21961344267192853
0.5081101053676466 13.295280880078986 87183.20684329834 9.058430084962785 0.22231531031943488
0.5240649945258278 13.261358713593642 75811.10058019371 9.446439521793542 0.2250681466876887
0.5403082204782225 13.231446448954372 66024.43734833544 9.844438438986915 0.22779735463131984
0.556820328065219 13.20490416335751 57593.52423704859 10.258229165793637 0.23057079872660066
0.5736157882638835 13.181526848241553 50310.244697766066 10.68895731403651 0.23339482090036018
0.5906893231834476 13.161206368333994 44011.09378108553 11.133867364778249 0.23622552985272782
0.6080289392177899 13.1436159807044 38558.200144165705 11.59333830973961 0.2390712954622601
0.625638321558385 13.128221145394054 33821.22410865155 12.071669769216376 0.24197641249996854
0.6435139096730605 13.115263354571312 29706.959108443563 12.568811282694622 0.2449324395363778
0.6616404097172313 13.104522145884593 26141.00718435534 13.079205559419822 0.24786463100011558
0.6800710401151334 13.095167968163123 23004.496764923275 13.610575789066703 0.250855458315599
0.6987291821114096 13.087695581099663 20279.851368512518 14.163829500725504 0.25390679694271007
0.7176600277343776 13.081859806211115 17898.395018920695 14.733273843355766 0.25695754788830016
0.7368339761090342 13.077448031633066 15702.843481090145 15.32388742838189 0.26005353278930554
0.7562507422737866 13.074173608150595 13989.468197694012 15.938780044358309 0.2632153290014789
0.7759092239651486 13.072087618002698 12388.389782853781 16.575402833655613 0.26640578537050646
0.7958116811273084 13.071042231752468 10981.614975935121 17.232163525321308 0.26960635018991896
0.8159348361056555 13.070726957919852 9744.322412497546 17.916000860816112 0.27287898158088947
0.8362920641032114 13.071345489665902 8655.857090788259 18.62794782032484 0.27622519281991725
0.8568575463111214 13.072606892458294 7695.8611798768225 19.358908494094607 0.2795590587184441
0.8776558895118881 13.074570508546719 6848.858336591983 20.11983312741518 0.2829627059378808
0.8986411682631962 13.076848462357908 6101.011672695155 20.91207742874387 0.28643910694356595
0.919836423795871 13.079772816365335 5439.936105179379 21.730831594985926 0.2899424297541652
0.9412108858414877 13.082972464221163 4855.293514926758 22.578222236150648 0.2934885309220915
0.9627752750005957 13.086364895187884 4336.881242647624 23.46046907902277 0.29711811238527736
0.9845209437094988 13.090032369006186 3877.2284114946865 24.378704094393022 0.3008303695036212
1.0064314533783063 13.093867329063443 3469.602613671007 25.32315445289875 0.30453230129360426
1.0284794501562733 13.097621618487741 3107.256842998167 26.30649836298636 0.3083210073915163
1.0506931919791764 13.101539888033415 2785.2144288091517 27.330240294691283 0.3121982744601432
1.0730205995618722 13.105339892228379 2486.0884495342416 28.391505251407775 0.3161366601451309
1.0954890804291277 13.109042009878067 2243.455937737456 29.488745282012243 0.32011848741296406
1.1180797449091338 13.112615223228273 2015.917869569496 30.63106297795853 0.3241891888543834
1.1407602375647226 13.115911517511302 1812.9803992355933 31.820314191793322 0.32835019454887543
1.1635317752789687 13.118956179035036 1631.7497172173837 33.05183946619272 0.33256841425068706
1.1863743052400926 13.121576642314484 1469.8438298007582 34.32824798836518 0.3368545787132971
1.209284697796346 13.123913133541203 1325.0915952859145 35.65722965221343 0.34124659218502834
1.2322471478674317 13.125790572725009 1195.4180742875637 37.040807579880074 0.3457429737746845
1.2552661106537364 13.127342924462278 1079.3798011151155 38.47640438039596 0.3503076158455965
1.2782834323866674 13.128151657418835 975.2331259640824 39.96398327754142 0.3549447331529713
1.3013088429421007 13.128481574368772 881.9257769981444 41.5131195197608 0.3596992572623708
1.3243420936961179 13.128280408924509 798.1263831698109 43.12627976705749 0.36457331745601773
1.34735494082833 13.127425454397804 722.839554667373 44.806058699399536 0.36956839195146285
1.3703271112271735 13.125898341361257 655.15571496988 46.54605806217981 0.3746251279648675
1.3932571701876342 13.123632034141275 594.2431229452847 48.356578596067585 0.3798034888096483
1.4160910025804687 13.120587473543756 539.4957072941369 50.24270057541454 0.38511750078819584
1.4388434236832857 13.116681807981973 490.09002399505243 52.20762761946793 0.39056992523967904
1.4615059816340326 13.112103888333227 445.5684498841007 54.2547535736142 0.3961620252923168
1.484050735526611 13.106639155459225 405.4078974862068 56.384166452746626 0.4018716293066791
1.5064376790402325 13.100219713464142 369.1550177235909 58.597495060753175 0.40770779336761387
1.528683573057395 13.092862585777173 336.3796967189668 60.90492380944083 0.4137050877768654
1.5507539745380234 13.084609238010446 306.746494327353 63.31072133552203 0.41986650014663457
1.5726105017555791 13.075312437646692 279.965773920909 65.81941987310705 0.4261926827391063
1.5942627179218878 13.064996547259412 255.707454759693 68.43590507986009 0.43268999508730094
1.6156860408328244 13.053705671415328 233.74788701250662 71.16525760671836 0.43937295725402864
1.636859419664056 13.041237923971158 213.8211094475438 74.01293954017574 0.44624854064977154
1.6577649758732935 13.027795698080777 195.76198430123816 76.98395345176449 0.45331640198369516
1.6783745386435411 13.013040268291608 179.35274862460977 80.08165959140881 0.46056725761856177
1.6986896539833136 12.997376800450546 164.47644954484787 83.31711404383547 0.46804062659488527
1.71861138727459 12.98014956243795 150.93388239794433 86.69742012958874 0.47574660927554396
1.7382427124276956 12.962049788088652 138.61801646791358 90.23013465430611 0.48368975292234684
1.7574792440651992 12.94248097913886 127.42270227236837 93.9233487167772 0.4918779260888217
1.776333601084243 12.921683416179533 117.21738710104599 97.78576536760494 0.5003308550111839
1.7947557680998802 12.899658070251611 107.92798762516385 101.82667323805256 0.5090641745975714
1.8127619545210314 12.876326627915144 99.45814701177277 106.05600240660095 0.518084795248121
1.8303089627525622 12.851633565516076 91.72791498596808 110.48441840295891 0.5274058972141842
1.8473768248753255 12.825611164458213 84.67118018525599 115.12339319682391 0.537051607158266
1.8639631679911834 12.798302206000994 78.22816347737181 119.98523854487426 0.54704136105944
1.8800367804315505 12.76960140884815 72.34460279009872 125.07796093232737 0.5573640918468178
1.8955743574768908 12.739332532077556 66.96002871457759 130.4185024072159 0.5680547514086721
1.9105719838371538 12.707860226130656 62.023013698795324 136.0232453415231 0.5791463459314673
1.924984317802184 12.674832392670833 57.511288019965406 141.90859621779103 0.5906568620876849
1.9388228106871932 12.640362176161414 53.37009994658126 148.09224189338184 0.6026056745868535
1.9520444680625808 12.604552046478785 49.58485427398558 154.59323425875124 0.6150283005669187
1.96461106151753 12.567063867843967 46.10587308058371 161.42864808656321 0.6279442329012825
1.976550487154568 12.528109396893747 42.91228770615362 168.6118259303716 0.6413402642182624
1.9878169880188095 12.48774906868101 39.983115028430085 176.17737682321044 0.6552985602046387
1.9984241782679488 12.445843768011036 37.28647301613684 184.15119690087337 0.669858638491679
2.0083250376954926 12.402599577839359 34.816003296592 192.55187094201074 0.6850125123175987
2.0175208268174765 12.357761243139365 32.53603708384619 201.4063263856308 0.7008034190843896
2.025973011612447 12.311319021189592 30.441023838954774 210.75818002662365 0.7173164797311518
2.0336728767140584 12.263360545668958 28.513820041507767 220.62825210772303 0.7345341065963679
2.040633957990428 12.214061496921094 26.738817431233887 231.05726727180596 0.7525322786387162
2.046817699116249 12.163068515527103 25.097583352545296 242.09169618381196 0.7713832853724253
2.052216293047998 12.110718448704164 23.590762523520564 253.75792184445802 0.7910694312443151
2.0568173988800202 12.05679058083419 22.198091803304724 266.1231365372435 0.8117343876883568
2.060588910033611 12.001346154721206 20.914009282749916 279.2162683158596 0.8333590279167218
2.0635683658353505 11.944558934120984 19.730232840857706 293.1112843724737 0.8560691028907484
2.065705929502357 11.886262416641916 18.637324651841126 307.8570153106675 0.8799102493575433
2.067013000041819 11.826470178286874 17.626339616548485 323.52030552989754 0.9049462916559774
2.0674592721683545 11.765364312910336 16.69571356151268 340.18134334278017 0.9313065699302555
