M[M_sun], R[km], Lambda[1], P_c[MeV/fm^3], rho_c[fm^-3]
0.23841724892012095 16.20908015294055 2780876.1263280716 3.453507347168396 0.169602847481901
0.2484170759965912 15.866120498709305 2282108.590231861 3.635583253210887 0.1719789073695663
0.258698906984082 15.562827930839628 1881561.0406865983 3.824837580966762 0.1743757844099355
0.26926497237447666 15.293499529645963 1558102.4582153754 4.020380534098278 0.17676788142756492
0.2801193561372741 15.053765934339562 1295297.678653191 4.2225336408658345 0.1791469880565334
0.2912498613255421 14.839778904239415 1081182.027512207 4.432667270318302 0.181549901750125
0.302673454412519 14.648328008374754 905452.840634071 4.65112908704003 0.18398047614688254
0.31437769943104005 14.476837754434023 760934.3011931638 4.878286377947598 0.18644036188874938
0.3263645171280945 14.32310445821029 641486.6332690773 5.1114662454578115 0.18887012167855424
0.3386364572232134 14.18476192270513 542392.546635243 5.353838224591504 0.19132141906304995
0.35118901467270724 14.06050884786965 459938.94359989016 5.605909872721145 0.19380269601446862
0.3640259735305009 13.948722804251924 391119.46650595503 5.868093814403975 0.1963195445353323
0.3771509059278867 13.848119311765037 333331.77650417894 6.137314892262242 0.19881257850954306
0.3905579106886283 13.757432865733293 284799.31876000133 6.41693734863727 0.20133521765324044
0.4042483631824085 13.675891487507856 243929.2532587347 6.7078005839753665 0.20389244743224838
0.4182226568477193 13.6024361289884 209372.55011415394 7.010046453819921 0.20647650445008653
0.4324815198320923 13.53639609535659 180085.1045575683 7.3202119874186655 0.20903644977772318
0.44702328490773735 13.47705441997558 155201.75271701982 7.642923744453581 0.21164085151481937
0.4618496784164345 13.423772412732767 134027.26206659898 7.9787157195183855 0.21428973207834445
0.47695961433619355 13.376135237535363 115948.33913949816 8.325724633874529 0.2169465206214982
0.4923512159494739 13.333478208287902 100494.58717205751 8.683770357488303 0.2195997044648543
0.5080225128730996 13.295399840258296 87244.96392170255 9.0564211845169 0.22230104381045213
0.5239748106338049 13.26157090156156 75870.63533665334 9.444282418213803 0.22505335472728194
0.5402133889117197 13.231533469323207 66077.32116691703 9.842036993793482 0.2277808871410454
0.5567210147099289 13.205001714006173 57640.9397022519 10.255661742193277 0.23055383265876572
0.5735073401393056 13.18170445239433 50354.79470942544 10.686216524068927 0.2333773828166737
0.5905773268556451 13.16138807027118 44050.58407279993 11.130833519589556 0.23620622722577791
0.6079027952104926 13.143585277267102 38591.04910374556 11.590110636052838 0.23905144684014565
0.6255106193204355 13.128371484354945 33854.40511371114 12.068239055152468 0.24195601331130265
0.6433849411140548 13.115297327691227 29734.84822359891 12.565030994932219 0.24490996176590782
0.6615239141522928 13.104440694580774 26153.281675733288 13.075198325926394 0.24784164670798098
0.6799257553048093 13.095236457344095 23027.33162518381 13.606331275423804 0.25083196792051876
0.69857755505973 13.087762575567043 20301.32619845853 14.159336450420518 0.25388272579748944
0.7174958444135202 13.08194797274014 17918.2632766677 14.728348945570326 0.2569311631559373
0.7366680231590728 13.077442815092855 15832.0044845778 15.318684361807241 0.26002653664074454
0.7560758399246648 13.0741712422999 14005.053677131225 15.9332854475492 0.26318779264607417
0.7757251784404245 13.072035794831525 12402.154783684082 16.569397286352174 0.2663756883696358
0.7956181940890448 13.07091567718128 10993.325450403072 17.22583237916483 0.26957566252694654
0.8157429606960646 13.070731609799155 9755.408587682949 17.909328005693563 0.272847614705636
0.8360901666774687 13.071355364574892 8665.486155707687 18.62077486278876 0.2761918900429752
0.8566468699262988 13.072568311985309 7704.932416876091 19.351249631505873 0.27952412712537444
0.8774384695115014 13.074496249214205 6857.145710687354 20.111772333248204 0.28292713683565685
0.8984133265111949 13.07684123926901 6108.702975763395 20.90359475368594 0.2864028108851755
0.919604963085713 13.079744561791596 5446.9045696095345 21.721610038954708 0.2899029721380389
0.9409783217818604 13.082943656122215 4861.358981972214 22.568527673647658 0.2934482205791274
0.9625294383310252 13.086305624659985 4342.31355659767 23.450276380460096 0.29707690515928287
0.9842635849909787 13.089959784356031 3882.3594353588387 24.3676408799009 0.30078564294009147
1.0061682475203195 13.093843018967323 3474.197937692305 25.311532579322087 0.30448675626888516
1.0282052899094405 13.097572236488702 3111.5162910618833 26.294288816691445 0.30827448361746895
1.0504183717904247 13.101565600409707 2788.9940144972393 27.31741122249202 0.31215066539326364
1.0727500983814056 13.105329237289677 2502.027219413558 28.37760934430477 0.316085092022328
1.0952084865840737 13.109138098070257 2246.6703246841325 29.474152016797582 0.32006571454651456
1.1177682955413872 13.11250101194157 2018.7705595364457 30.615734747037987 0.3241353411889706
1.1404573747783782 13.115931675273288 1815.6292667750647 31.80421111435832 0.3282950382967805
1.1632074433149944 13.118841153889914 1634.1401261589256 33.03442578712605 0.3325087689265942
1.1860527020835216 13.121542243153343 1471.9742137891249 34.3099604510322 0.33679343422179764
1.2089588288513635 13.123897315454279 1326.987347622507 35.63801823314187 0.34118385507029575
1.231925708002284 13.125834703533627 1197.1665039512106 37.02062055634435 0.34567878685473274
1.2549216078522543 13.127271789526286 1080.9567363056333 38.45460160068285 0.3502382914464995
1.2779445641930143 13.12817948378509 976.7311197340465 39.94107909765595 0.3548735328730807
1.300958953072629 13.128473672156062 883.2844215114359 41.48904930684892 0.3596260485320368
1.323994158111352 13.12833173005127 799.3549694081078 43.10097465774714 0.3644979857271933
1.3469922287997385 13.127454473454963 723.9890310044274 44.77944697785349 0.3694910537330709
1.369960560452443 13.125912396047095 656.2272459406389 46.5173542113927 0.3745417096607558
1.392883283038065 13.12367037633285 595.2315842970492 48.32639449592587 0.3797175178929737
1.415707846470725 13.120575323642163 540.3229932061945 50.2109464795972 0.38502881455605475
1.4384702217674192 13.116835852219122 490.88433739437033 52.17420803840994 0.3904783926673952
1.4611200840759662 13.112173901880045 446.2968786015152 54.21956822216184 0.39606768265643444
1.4836659826390057 13.106733449808235 406.05812842343096 56.346244799613615 0.4017699498131993
1.5060528816102032 13.10034904738518 369.75246408438744 58.557565424162846 0.40760264136211305
1.52829529448141 13.093039372541092 336.9264558963237 60.862860613154915 0.4135962414788579
1.5503398378715183 13.08472707698841 307.2711564648879 63.266390826071884 0.41975379984079864
1.5722250672051694 13.075567074240526 280.4343105809027 65.77268059283931 0.4260760596430907
1.5938727324258881 13.065304727488359 256.1456451525619 68.38660505116019 0.43256894290673187
1.615284446400739 13.053861297912555 234.13267961352253 71.11323244071691 0.43924719406435087
1.63646013334072 13.041499522941496 214.18573663693954 73.95801385469366 0.4461178757857856
1.6573623401473732 13.027980690613624 196.08216874943923 76.92479840953487 0.45317567573732837
1.6779640058616825 13.01331589681656 179.6629646001072 80.01918547428133 0.46042105746128753
1.6982503412283763 12.997475633396638 164.7453605642849 83.25110367407807 0.4678883476022391
1.7182254522711033 12.980496053817637 151.1840575654169 86.62763877994962 0.4755878583606175
1.7378083716395767 12.962238986130668 138.87050630913183 90.15633125189896 0.4835242692373017
1.757092336283836 12.94282484141107 127.63063454179913 93.8452548155015 0.4917053354629881
1.7759300872249044 12.922101237031907 117.42409388607147 97.70309128834732 0.500150464773244
1.7944017167518511 12.90037407965919 108.12264665664802 101.73910595716067 0.5088754730551123
1.8123805898748002 12.876822358542702 99.62925837556622 105.96320620288569 0.517887441539479
1.8299541422952335 12.852364606966288 91.89280014213479 110.38603279393605 0.5271993103532873
1.847037894254949 12.826386658709355 84.8262853528446 115.01902838098287 0.5368349661374394
1.8636152283656764 12.798968527509713 78.3723504378632 119.87447294969346 0.5468139916457724
1.8796903649353602 12.770256113870072 72.46620577502337 124.96200242431755 0.5571315554116636
1.8952343524323534 12.74012226450834 67.06957161559347 130.2952631410736 0.5678101608791734
1.9102529895276796 12.708673381496249 62.132402310830564 135.892198788035 0.5788888773908069
1.9246590931210308 12.675509409544059 57.6055416861189 141.76917448976408 0.590385943966987
1.9385141295064354 12.64127710382934 53.46609998758845 147.9438310068239 0.6023201944990836
1.9517099050396294 12.60522110899038 49.66766311324497 154.43516762533986 0.6147270953072211
1.9643196242438736 12.567871850425618 46.17900800840675 161.26215328012657 0.6276330667651783
1.9762609457574594 12.529094066070757 42.986505864507386 168.4342576451481 0.6410114144919438
1.9875581281138315 12.488788252485358 40.052500501033656 175.98789028662182 0.6549506510426828
1.9981789454465602 12.447005056409365 37.352808974896575 183.94887384603808 0.669490286792523
2.0080836090022385 12.403634580391405 34.87294061297406 192.33788836056826 0.6846298033981333
2.017291966572434 12.358887645763915 32.5940919670465 201.1775335106278 0.7003974680635654
2.02576704358752 12.312523951091537 30.492421012778337 210.51340155885697 0.7168855491736331
2.033489479869903 12.264658023156237 28.559597489598815 220.3685571441749 0.7340844076634122
2.0404726171866985 12.215331757699008 26.78039172427871 230.7790368064086 0.7520540443409905
2.046662878870949 12.16448107330274 25.140859141329496 241.79584624028405 0.7708826881388049
2.0520864106504924 12.112108451355164 23.627844779324622 253.4405021217976 0.7905361214447097
2.05668402421534 12.058174534996395 22.233842949771102 265.7848811625975 0.8111739875251707
2.060506518837321 12.002886151362874 20.945853820456424 278.8528176634995 0.8327615252827322
2.0634938345273905 11.946096809228706 19.758524519785045 292.72315263851186 0.8554394428665062
2.06566263564649 11.887883807417419 18.664791679337405 307.43934113237316 0.879237252937419
2.066989078162615 11.828124512274085 17.652413564960614 323.07332866055555 0.9042358157431192
2.0674588503369797 11.767069646258323 16.721057164500444 339.70240190480547 0.9305550296348951
