M[M_sun], R[km], Lambda[1], P_c[MeV/fm^3], rho_c[fm^-3]
0.23841724892012095 16.20908015294055 2780876.1263280716 3.453507347168396 0.169602847481901
0.2484151162394546 15.866268622349821 2282232.436689027 3.635573031022844 0.17197877733946834
0.2586971989503184 15.562907398955652 1881557.817300876 3.8248165538153405 0.1743755271826338
0.2692632959029184 15.293504164141833 1558042.967542537 4.0203466574147955 0.17676746701061855
0.2801156482638499 15.05388958371557 1295443.4384639137 4.222487250095529 0.17914644558844833
0.29124799098220155 14.839745305788988 1060400.9801109058 4.432607725792959 0.1815492317539455
0.30266868443795575 14.648417110069952 905522.9737521443 4.6510557153863985 0.18397968149345512
0.31437135309832215 14.47695946654769 760953.6339401607 4.878198478356008 0.18643944596536602
0.32635856596142165 14.32316334149587 641536.9397224116 5.111358690109602 0.18886900094003145
0.3386294024806123 14.18495042203293 542435.3892045527 5.353714109703326 0.19132018063079304
0.35118156231722625 14.060598442167203 459964.01225706126 5.605768420574224 0.19380133651162
0.3640165203096397 13.94880753047523 391116.5725764222 5.8679341904980005 0.1963180663902188
0.3771431736220316 13.848171749264273 333362.12248021475 6.1371287937793175 0.19881085520524547
0.3905484327119884 13.757476929953482 284832.21344537963 6.416730678613298 0.2013333756192684
0.4042369597276757 13.675889823764694 243954.66794551784 6.707572416413351 0.2038904967091825
0.41821257798055594 13.602578189053217 209397.41382576764 7.009785398327092 0.20647427255100834
0.4324703020715776 13.536526115018653 180105.26334846282 7.319926729377176 0.20903409830546849
0.44701077416245955 13.477152283670712 155238.5481263968 7.642613166947274 0.2116383822651606
0.461834101354087 13.423881314220118 134050.58842273298 7.978378662015144 0.2142871514803369
0.4769445285832777 13.376137212886093 115969.55496290905 8.325345276017517 0.21694361616121902
0.49233426679345876 13.333519503859616 100507.75713635374 8.683361315558338 0.21959669506421348
0.5080034869863037 13.295496122110007 87263.85634327834 9.05598113138469 0.22229791870687796
0.5239548130914354 13.261628715593767 75883.56250684202 9.443809904404816 0.22505011454650442
0.5401916436856723 13.23164859290794 66088.99412380629 9.841510963683705 0.22777727998159805
0.556698729443699 13.20502162334957 57649.683264609404 10.255099359016318 0.23055011631405026
0.5734834478204072 13.181761621930521 50365.69921109836 10.685616169984227 0.2333735631059719
0.590550044061635 13.161328465419137 44057.1147835705 11.130168982202516 0.23620199915332252
0.6078762002056193 13.14365132643883 38600.65304414486 11.589403647138239 0.2390470992024453
0.6254834193216876 13.128427787716188 33862.29757252728 12.067487597486751 0.24195154510835368
0.6433592150730325 13.1154027577749 29742.16518073263 12.564202978387401 0.24490503834022978
0.6614928655459594 13.104448039841252 26157.856858180934 13.074320606193236 0.2478366123702534
0.679894089980668 13.095246357687687 23032.55882171877 13.605401589522586 0.2508268227635096
0.6985450147577633 13.087780522197805 20305.78929745457 14.158352333458 0.2538774534722959
0.7174592744673686 13.081918853460548 17921.88047320882 14.727270255480303 0.2569253841630388
0.7366319332703724 13.077515189094921 15836.724959858646 15.317544752463528 0.26002062376942087
0.7560385133779608 13.0741673942352 14008.18821781658 15.93208199320322 0.2631817614944291
0.7756857723127999 13.071998911277436 12404.371701667858 16.568081939555668 0.2663690964652382
0.7955760349275832 13.070930573100181 10996.395756845846 17.224445728008245 0.2695689412979144
0.8156998319054859 13.07074966624417 9757.870057172826 17.90786652264085 0.27284074475930004
0.8360447708469352 13.071368621958982 8668.07669626885 18.619181304156726 0.2761843992532155
0.8565979556171499 13.072534623641848 7706.930925570098 19.349572228868574 0.27951647659689693
0.877384893059763 13.074543296760806 6859.22223774874 20.110006913039406 0.2829193467332706
0.898361111219297 13.076855122489315 6110.371019951861 20.901736947877673 0.28639486162062927
0.9195537319985407 13.079746582353913 5448.505371538888 21.719590439318683 0.28989433058265524
0.940917703050057 13.082881865198976 4862.591831553566 22.56640449515951 0.29343939232586636
0.9624733220830541 13.086344511484084 4343.8456038686345 23.44804412100937 0.2970678805404247
0.9842140230394023 13.090051221182 3883.608448761699 24.365218009159793 0.30077584771446303
1.0061039493838166 13.093827715541797 3475.1750605297693 25.308987377381143 0.304476781862904
1.0281558732820604 13.097656120432664 3096.0811966905103 26.29161493124061 0.3082642949307202
1.050364322543081 13.101642201890012 2789.979445053477 27.314601679586893 0.3121402390963348
1.0726823513452997 13.105331685523538 2502.88757764767 28.3745662139023 0.31607379887527853
1.0951469559484985 13.109127408252025 2247.3508832214493 29.470956189938402 0.3200541576439602
1.1177015000473298 13.112502044757125 2019.5046222440692 30.612377990210668 0.3241235489919815
1.140391257133104 13.115896093431644 1816.177034484968 31.800684696451604 0.3282829596120793
1.1631405085817714 13.118885191336059 1634.6858116497028 33.030612421294535 0.33249570738801676
1.185985517876099 13.121531791236777 1472.413965309426 34.30595574950826 0.33678004447807053
1.2088882226040103 13.123905946747456 1327.3864982364742 35.63381124473182 0.3411701166622387
1.2318503775224576 13.12579969543792 1197.4929677753637 37.01619995796865 0.3456647310632201
1.2548514059502711 13.127236228164405 1081.2555196788553 38.44982725955129 0.3502231108899657
1.2778661573516574 13.128139501549182 977.0271559394641 39.936063610080744 0.354857941652573
1.300897866527453 13.128548656441438 883.5633816629714 41.47402518190146 0.35955649711328036
1.3239278201393414 13.128313607068998 799.5309838502208 43.079724267636536 0.3643962211941438
1.3464030132129998 13.127305146992766 725.7372346282541 44.78907599702238 0.4735567054763775
1.3588748318404196 13.118386453744481 683.9325417572089 46.927378628937696 0.8968059962925007
1.3609886507528142 13.096818414443181 667.4389495839216 49.60592280398899 1.288544665770305
1.3569082395381704 13.06424385316112 663.4020338582146 52.8377323777038 1.6485904327790217
1.348690074984776 13.021996832254807 666.4598058368356 56.61681408697819 1.9813911609283485
1.337512483556428 12.9711998793966 674.0619138979556 60.93402579730053 2.299125885987826
1.3242079479271796 12.913494914313551 684.8674146435213 65.82548058048823 2.666619998839403
1.3091689897356344 12.8496695661088 698.3746264574597 71.30723096746631 3.0412739024433306
1.2924415289111393 12.778435063187116 714.0484162406372 77.30478190989845 3.268145022019246
1.2740283686303973 12.695849758343597 730.199770582321 83.6917579867797 3.3532592901122196
1.25467509353702 12.601215918615361 744.0775005484782 90.34703221410534 3.3751695396562003
1.2352548725809804 12.496018252378372 753.5181157193257 97.23011890367242 3.3966340679197002
1.2163944479352762 12.381934734513731 757.1620627497288 104.34721783410863 3.4186081751487194
1.198471681297038 12.260193515300822 754.0533699347701 111.6912493862511 3.4412008474493874
1.181778196519205 12.131816714073528 743.711136754588 119.26282525220769 3.4644060333423683
1.1665172962675063 11.997972528056351 726.2440111754904 127.10287223037986 3.4883490317369197
1.1528379288708859 11.859774785484763 702.0670395930771 135.22066146320674 3.5130385955261607
1.140836287563066 11.718206158196892 671.726718204115 143.6270666424797 3.5385077897715407
1.1305882737545372 11.574237278887464 636.1146360226755 152.33370550974243 3.564787991840944
1.1221029347730125 11.428948328603097 596.6605066176327 161.353088031979 3.5919009240186193
1.1153692739442762 11.28318058421749 554.4488173830651 170.6989532638084 3.6198777683183714
1.110373354362017 11.13792278098452 510.82381083103155 180.38612622736952 3.6487609522131628
1.1070527123368714 10.993945865108952 466.8681635595168 190.43030871296554 3.678577459351707
1.1053573912744354 10.851967108072216 423.354930811767 200.84870404725433 3.709372134305038
1.1051816214567192 10.712621403781416 381.9771903752056 211.6594196631047 3.741189995022226
1.1064517337322737 10.576476803126573 342.50101686561754 222.88193947125592 3.7740683129131405
1.1090538090730149 10.443898538922454 305.660945537749 234.53742106117963 3.808070206077706
1.1128899569702957 10.315334765207973 271.7365393134267 246.6189282912348 3.8431307549763614
1.1178455254195399 10.190910599256938 240.82177452142233 259.16664551792275 3.87938181472458
1.1238171935924564 10.070794588687146 212.93261586027043 272.21432348146993 3.9168903336186496
1.1307251456627463 9.955108914462322 187.9118391550024 285.7889536780391 3.955731117650038
1.138425577689262 9.843993217786966 165.69697726704166 299.9200687212893 3.9959682839001194
1.1468319089816248 9.737186848532883 146.00963036006698 314.63877854366507 4.037671581339492
1.1558485203146835 9.634717137665106 128.64696224515072 329.9264448198423 4.080750948218627
1.165388093326876 9.536446634671524 113.40171920453432 345.85069449886777 4.125389718694823
1.1753623083254894 9.44225083261248 100.02882755609275 362.4651317018386 4.17173034121413
1.185683051647296 9.351921815983435 88.32504098831475 379.8018602112582 4.219830349754025
1.1962820637716969 9.265259857756517 78.09618767729619 397.835229912333 4.2695659075878885
1.2070699724382463 9.182139553013283 69.00426317269198 416.6850769067001 4.321282159637642
1.2179974123720223 9.102293336306316 61.33461745172656 436.37377035606704 4.374999404081055
1.2289904848098496 9.02555427563703 54.4000119970761 456.909559942204 4.43069213937084
1.2399945573550422 8.951659171101063 48.53394307031353 478.41826381966854 4.4887092807935565
1.2509491439493359 8.880509400557463 43.309580931154294 500.8571737845867 4.548848440070178
1.2618098783729448 8.811837398143279 38.723208114267806 524.385332275039 4.611562364837503
1.2725202397587894 8.745462582900577 34.70156648172811 548.9705610347154 4.676659023540082
1.2830498295230697 8.681153809341076 31.153862945347356 574.7691712075882 4.744587150919557
1.2933323974615056 8.618840333931088 28.04835484753023 601.7717475734802 4.815209222789986
1.3033647232053494 8.558320294667004 25.302073517217966 630.112465352405 4.888871692661135
1.313084787157844 8.49933936055191 22.879092242556833 659.8749623130941 4.965751963124189
1.322459467318943 8.441882375932265 20.729244234751693 691.0914076821508 5.045828446272136
1.3314669321833121 8.385738323836186 18.827104969830987 723.9144824936784 5.129485467681723
1.3400744515825518 8.330781109489212 17.138192230440055 758.4427518159016 5.216905054880154
1.3482550284927015 8.276937324334883 15.634470179127689 794.7845719429803 5.308292987730523
1.355973160281064 8.224023463398451 14.297268133125167 833.0520918149118 5.403853932613918
1.3632421208300298 8.171976889835602 13.102177733021522 873.3773699055166 5.503841023466387
1.3700047379243316 8.120547838955352 12.03275360644101 915.9180879876727 5.608579511698393
1.3762568723567554 8.06988751414199 11.076754476936426 960.8310972764122 5.718369700910405
1.381970321171159 8.01974533868627 10.217799602939813 1008.288157917417 5.83353878403588
1.3871293377506244 7.97007594920287 9.448146106702588 1058.4728305339868 5.954425081302058
1.391749463140985 7.9208211631001255 8.752617574810555 1111.5770072345433 6.081373261440227
1.395766798297234 7.871897731193944 8.129340453275036 1167.8396427933596 6.214862621156606
1.3991955451222664 7.823335535358753 7.565986777155808 1227.509296010898 6.35536045248948
1.4020254293381897 7.774830844935772 7.051393546759708 1290.8586071034792 6.503382047782753
