M[M_sun], R[km], Lambda[1], P_c[MeV/fm^3], rho_c[fm^-3]
0.23841724892012095 16.20908015294055 2780876.1263280716 3.453507347168396 0.169602847481901
0.24841477368220244 15.866181661494666 2282156.804709036 3.635552819972019 0.17197852024725796
0.25869617008401063 15.562921880190078 1881741.5575179474 3.824774979705736 0.17437501860228355
0.2692597999155326 15.293622068696086 1558098.3902959705 4.020279678095442 0.17676664764572964
0.2801122672525649 15.0539305315543 1295536.5983901012 4.222395529050491 0.17914537305312858
0.2912401843252069 14.839932067014406 1081320.7165045284 4.432489998572984 0.1815479070849326
0.30266218637728676 14.64852231466604 905618.2138460394 4.650910650912821 0.1839781103692482
0.3143653888687317 14.477018664886135 761054.6601278312 4.87802469131526 0.18643763508534406
0.3263488591517701 14.32324712361452 641617.5709320541 5.111146042840773 0.1888667851321715
0.33861761803733853 14.185005067213538 542535.3186770631 5.353468723852466 0.19131773214328635
0.3511682765740538 14.060712013231852 460038.54828460864 5.605488758820279 0.19379864867011729
0.36400220583373033 13.948953786996954 391195.4281181905 5.867618603271652 0.19631514399765065
0.37712546757771437 13.848313440774794 333435.88111341785 6.13676086689699 0.19880744813836584
0.3905285341548365 13.757602881261693 284894.87046551745 6.416322082546821 0.20132973383406497
0.4042151546256137 13.675985069888972 244005.5447298809 6.70712132075555 0.2038866400579705
0.4181564180786511 13.603265411842273 209633.42610224217 7.009269285423022 0.20646986003356865
0.4324440193234623 13.536564978915463 180158.79480378784 7.319362769921078 0.20902944940930815
0.4469823464424654 13.477284896190756 155279.46362196526 7.64199915315051 0.21163350054215316
0.46180536772613784 13.42403105095929 134087.59125836438 7.977712299877318 0.21428204964225686
0.4769113557847408 13.376264083204422 116005.12434287718 8.324595291198484 0.21693787408661427
0.4923003686771311 13.333641608460336 100540.665358717 8.682552649072038 0.21959074554837218
0.5079667556969657 13.295532098030545 87277.3246328472 9.055111159947302 0.22229174047372974
0.5239186626486974 13.261654597649525 75903.43373404814 9.442875762890468 0.22504370883450045
0.5401501793928674 13.231618554518255 66112.50584234997 9.840471029663659 0.22777014881599494
0.5566545659013126 13.205176644253324 57675.29994470537 10.253987561173448 0.23054276932323103
0.5734372422727537 13.181812348745993 50382.89391330966 10.684429310431769 0.23336601179542105
0.5905026481571687 13.16151675255197 44078.23997940057 11.128855245829135 0.23619364059790893
0.6078247826065382 13.143678910050177 38614.19746586798 11.588005992748434 0.2390385043082515
0.625428331910924 13.128417572269406 33873.38317006976 12.066002037784013 0.24194271189984778
0.6432973821188732 13.11539082323254 29752.785569773536 12.56256608090596 0.24489530527010833
0.661428902968533 13.10441210229796 26168.67005819202 13.072585457269254 0.247826660075277
0.6798312048891281 13.095261003076594 23041.454993215677 13.603563716153062 0.2508166514281836
0.6984768107964617 13.087742901598023 20313.706515026133 14.156406863540393 0.25386703077819495
0.7173932269354489 13.081926708434864 17929.88708656903 14.725137842595167 0.25691395993745836
0.7365596645419318 13.077482434018506 15843.826290812949 15.315291919010102 0.26000893492675103
0.7559642164361877 13.074175375669379 14014.69236741429 15.929702956229157 0.263169838871184
0.7756076147926108 13.072015647187692 12410.824848199109 16.56548172865499 0.2663560654214736
0.7954935086032279 13.070975441708487 11002.129425761257 17.221704570296136 0.26955565464776543
0.8156160427628555 13.07077509625806 9763.010301770233 17.904977445780467 0.27282716416871133
0.835956007248689 13.071362160882865 8672.32830950584 18.61603116302208 0.2761695914861972
0.8565168423339001 13.072624521643194 7710.868014563789 19.346256356576355 0.2795013531108387
0.8772924109767444 13.074505508627997 6862.676824241416 20.10651706047309 0.2829039473917037
0.898267786221768 13.076813362600436 6113.3343611481305 20.898064481593817 0.2863791477037616
0.919451323162093 13.079734446806247 5451.365760327557 21.71559817437408 0.28987724829663697
0.9408174390152144 13.082857960823944 4865.109034332256 22.562207494014366 0.2934219410426827
0.9623665011638355 13.086325523124186 4346.260070762666 23.44363150887786 0.2970500411523362
0.9841035084211034 13.09000056730941 3885.5294414948758 24.360428645532387 0.30075648518861664
1.0059917418346724 13.09382201562846 3458.559694033264 25.30395621531918 0.30445706521403787
1.0280423238880516 13.097684097340487 3114.315883891747 26.28632941578207 0.3082441547780088
1.0502353977348657 13.101529622260223 2791.5660568824323 27.309048027213667 0.31211962932789983
1.072556839335831 13.105264506855896 2504.2855304733007 28.36855087679293 0.31605147578111437
1.0950113057760125 13.108984955158855 2248.592222982962 29.464639041197668 0.3200313132673294
1.1175728531954272 13.112509061346625 2020.6960588260458 30.60574275719528 0.32410023959579604
1.1402506631236147 13.115855884034024 1817.2670151108339 31.79371412315071 0.3282590840081904
1.1630177173248883 13.11889009637536 1635.5957198146564 33.02307471055532 0.33246988922528176
1.185845699542783 13.121534549218193 1473.3823043849363 34.29803986332968 0.33675357766483355
1.2087455494634027 13.123928981907293 1328.3240517073416 35.625495539850036 0.34114296076452455
1.2317115378287535 13.125859018893218 1198.355166544218 37.00746205627103 0.34563694791847765
1.2547051287162951 13.12726100332096 1081.981133319702 38.44039022173905 0.35019310476303156
1.2777136882666529 13.128172246689811 977.6969361357527 39.92614995707613 0.3548271239209539
1.3007290988434235 13.128486913951766 884.1451978596372 41.473360294022946 0.3595783309354626
1.323766742022689 13.128316999313213 800.1385811298136 43.084480906491386 0.36444888486057947
1.3467588708848062 13.127437447594408 724.7159511238698 44.762101764266795 0.3694406455731139
1.3697335656304723 13.125937626062843 656.8769753963095 46.498645808655645 0.37448733983976773
1.3926345995269007 13.12365683189934 595.8259975142576 48.306721517778804 0.3796614849498983
1.415466106806194 13.120656607644234 540.9191965899947 50.19025045881453 0.38497101249757115
1.4382227437174342 13.11689605919208 491.4071392328515 52.152426767360495 0.39041873615155476
1.460868322758758 13.11224566537208 446.75944944042914 54.196636370240455 0.39600619538213916
1.4834166585156527 13.10678932140115 406.49336193076397 56.3215301818778 0.40170368240117194
1.5057956038611475 13.100377957321856 370.1252893191241 58.526843634314574 0.40751786578464716
1.526212333232743 13.09270675640573 339.6179357713322 60.98881863732642 0.6595410834822019
1.5340286047436598 13.076637971117806 325.50430759119683 64.10049280882617 1.1607269449726556
1.5324758310613857 13.049400507173829 320.99440164959856 68.0270963170901 1.6261546756933827
1.5249213614039387 13.012171877848134 321.71713262793367 72.79099982524517 2.0445404755426577
1.5132209136767445 12.965489034147886 325.5523976788482 78.34431429920828 2.416452703812305
1.4986161760289705 12.910617664955385 331.35121959871077 84.65395382632309 2.765817989715908
1.4818916198733534 12.848691141963695 338.5182877548506 91.73316546858594 3.1459904349478025
1.463741982985584 12.78230627921725 346.9439347640845 99.72790346068334 3.694846330142168
1.4435642984175234 12.708474998001789 356.77695403605935 108.50515614459391 3.847766146284674
1.4211040042859426 12.621311896489933 367.10884901546456 117.7422207470294 3.9013554772775976
1.39771182533776 12.52265407130779 376.453401971333 127.36833985996012 3.9532375809768374
1.3741365005249624 12.414356066488331 384.08788467544656 137.39935827054126 4.007044864621422
1.3509256415209487 12.297724132829405 389.3228234604588 147.85649644186338 4.062937434941417
1.3284106242092828 12.17378785054631 391.8491311536949 158.76287744669744 4.121031864015637
1.3068408349437535 12.043461443579664 391.27837190989464 170.14295224234843 4.181418252183114
1.2864626669848895 11.907812637485753 387.5078186280845 182.02413991561818 4.2442275583609685
1.267357489352745 11.767592565468343 380.5954239623513 194.43526704118668 4.309590922155072
1.2496485652926572 11.623728238869958 370.64301027446106 207.40760881866663 4.377630516505232
1.233371506116281 11.477132955437598 357.96908140608167 220.97558326618972 4.448523762600299
1.2185777464909637 11.328483138384021 342.8779602782683 235.12868897725627 4.522119024276765
1.2052600110234652 11.178681527838233 325.8788145370231 249.9441912018193 4.598848087488803
1.1933790586257573 11.028336584318883 307.43164131788797 265.4676840630468 4.678876335712339
1.1829144473115047 10.878232636348775 287.9787914530065 281.7442830695554 4.762419272436111
1.1737897083489717 10.729044101115953 268.10840286896723 298.82413194311215 4.849685858692072
1.1659357265458918 10.581187704115472 248.12496548687216 316.76026922303794 4.940895889801569
1.1592700135559086 10.4353229502318 228.47519388934222 335.53678871627784 5.035874371396888
1.1536985004546016 10.29167695730948 209.44022434147334 355.2693666356368 5.135186105249642
1.1491336949104909 10.150731321230046 191.26660717683185 376.039531751009 5.239206241201298
1.1454631700742375 10.01272506629405 174.13961626942051 397.90371273923733 5.348125340484709
1.1425999284651098 9.87787462473161 158.12990384939852 420.8607794316104 5.461810684693568
1.1404298602531884 9.746302369921663 143.3276418638414 445.0853253065193 5.581134760496062
1.1388594660449243 9.618064630163966 129.73336644937297 470.62983271094635 5.706235343421698
1.1377972421616156 9.493282152969362 117.32848262465895 497.5439625983521 5.837224704756579
1.1371503094794457 9.371980925787842 106.08374527122955 526.020025682401 5.975028110872209
1.1368319646886287 9.25391425765041 95.9060698246727 556.0377775687383 6.119293508410853
1.136750859096665 9.13926067080059 86.7625274425956 587.8517756714406 6.271291601553531
1.1368480672969605 9.027844338603732 78.54969937805187 621.4615961144948 6.430694551576467
1.1370365848413928 8.919535393955488 71.18588981569982 657.124887780046 6.598786295255349
1.137248162556553 8.814243092759728 64.61816485186795 694.8916275784185 6.775453160340569
1.1374262321032513 8.711874377356635 58.75182457074478 734.9951288793043 6.961715150271116
1.1375103734562786 8.612240166583764 53.5164068666537 777.6220560137023 7.158285435692736
