M[M_sun], R[km], Lambda[1], P_c[MeV/fm^3], rho_c[fm^-3]
0.23841724892012095 16.20908015294055 2780876.1263280716 3.453507347168396 0.169602847481901
0.24841729305708285 15.866171787500287 2282070.5060444837 3.635589604396809 0.17197898815905327
0.2586996830325231 15.562758314028484 1881326.4333687844 3.8248506454661317 0.17437594422929736
0.26926619763084186 15.293425997292628 1558039.8867925305 4.020401582284201 0.17676813891218388
0.2801213037238562 15.053716951576316 1295339.0584963586 4.222562464364373 0.17914732510263015
0.2912530222122065 14.839614529564555 1081101.212067778 4.432704266613198 0.18155031803316857
0.3026745182808041 14.648348091424085 905408.3263060618 4.651174674558266 0.18398096988357537
0.3143815055298503 14.476783459660306 760908.0559894188 4.878340992164835 0.18644093097488196
0.32636612287954375 14.323097766687251 641465.9937470631 5.111533072517779 0.1888708180238473
0.3386398250716678 14.184767374829157 542353.9693742078 5.353915340752595 0.19132218853674346
0.3511933280843881 14.06049883076409 459896.1583465848 5.605997761253089 0.19380354071504152
0.3640300359827815 13.948668435772442 391021.4935801287 5.8681929938589725 0.19632046295432393
0.37715787037759263 13.84805909148007 333294.8112268332 6.1374305216267535 0.19881364925755596
0.39056420585256413 13.757378065814912 284783.27536807227 6.417065760126588 0.20133636217493342
0.40425475155721313 13.67587126905322 243912.10288657967 6.707942353001234 0.20389365948932756
0.41822860225444813 13.60240139188553 209367.2025336242 7.010208657927503 0.20647789121729937
0.4324884624513243 13.536378072953216 180068.63434264963 7.320389229948619 0.20903791084395415
0.4470317547387204 13.477003300060701 155192.03204370564 7.643116719455395 0.2116423857645564
0.4618590455368161 13.423769408427512 134015.60741215028 7.978925148144854 0.21429133551719687
0.4769695295126237 13.37608675773827 115946.28924544995 8.325960346432453 0.21694832529681762
0.49236240712306456 13.333445749921255 100485.71342322956 8.68402451469685 0.21960157434862473
0.5080334999756343 13.295464935641224 87242.23590261192 9.056694611056633 0.222302985590192
0.5239868185044986 13.26155852278494 75864.04768742275 9.444576014789593 0.22505536801443488
0.5402266691129847 13.231504127087558 66071.69593919998 9.842363843960243 0.22778312845888063
0.556735930269426 13.205022210043426 57632.91221091921 10.256011181166512 0.23055614182400172
0.5735248063131101 13.181737428231822 49894.77059078513 10.686589557183556 0.23337975621366785
0.5905905132274589 13.16138343420502 44046.987487660605 11.131246434912736 0.23620885437052314
0.607921340934052 13.143616760609824 38587.40227226 11.590549929843538 0.23905414828313368
0.6255288295072411 13.128365703487958 33849.935645814316 12.068705980928849 0.24195878967413204
0.6434023814808674 13.115375598994136 29734.906606451364 12.5655454933543 0.24491302099794665
0.6615408403478976 13.104427907598975 26149.648904859776 13.07574370912116 0.24784477486277764
0.6799459618810012 13.0952309266839 23023.612316325027 13.606908949634784 0.2508351649406217
0.6985976471990383 13.087768825785272 20298.93775073383 14.15994794736303 0.25388600184175913
0.7175185050682226 13.081889988693982 17914.6625315509 14.729019209734359 0.25693475404073346
0.7366910441095031 13.077412686464427 15829.947564297723 15.319392480636806 0.2600302107204142
0.7561003285737059 13.07416933276138 14003.210589820455 15.934033239153976 0.2631915402286745
0.7757483407465662 13.07205256625675 12400.54385171925 16.570214608028746 0.266379784404513
0.7956420568196905 13.070962360172922 10992.525445407522 17.22669400910179 0.2695798389285741
0.8157678761983702 13.070741939655168 9754.686218251076 17.91023613597724 0.2728518835244248
0.8361158967906761 13.07137389280353 8664.306656858398 18.621765065805562 0.27619654465841836
0.8566730714848294 13.072613722616545 7704.165582799776 19.352291935329948 0.27952888100790146
0.8774663963165735 13.07452237644928 6856.280421254954 20.11286933144501 0.28293197745559995
0.8984464451492318 13.076821902847353 6107.114997558381 20.90474916066947 0.2864077504146275
0.9196355712762039 13.079756047598583 5445.909944008422 21.722864987098305 0.28990834186760955
0.941006682757943 13.082940349069377 4860.5425486936865 22.569846986560357 0.2934537063301318
0.9625625721876611 13.086302390458352 4341.491203959101 23.451663477337338 0.29708251293961163
0.984298896212058 13.08998287321624 3881.615528254229 24.369146426787363 0.30079172959225864
1.0062022891578999 13.093849584483939 3473.497228862642 25.31311414453965 0.30449295427357465
1.0282436626757399 13.097603573369858 3110.831501359204 26.295950347816063 0.30828081478627306
1.050455556716683 13.101525982703885 2788.429230289173 27.319157053419286 0.3121571442235396
1.0727802323199764 13.105356610858143 2501.742634529455 28.379500333493503 0.31609210953921124
1.0952419207488067 13.109048122082438 2246.2254902763752 29.476137894814915 0.32007289597396427
1.1178061458186852 13.112521895478372 2018.4246467670212 30.617820630581207 0.32414266884209036
1.1404973455958203 13.115894106115993 1815.183137335935 31.806402429371577 0.32830254398777514
1.1632503463631338 13.11885785386548 1633.800937959027 33.03679542255889 0.3325168854005933
1.1860984920993682 13.121563884024424 1471.6687048163421 34.312448987981426 0.336801754660114
1.209003482293567 13.123889780268447 1326.6079490981347 35.64063247730252 0.3411923921874777
1.2319701848742048 13.125803310354767 1196.9168216305072 37.0233675445436 0.3456875212137799
1.2549731627977474 13.12725011341321 1080.7119872537337 38.45756842121075 0.35024772478724925
1.2779897289474655 13.128194381000831 976.5317959045799 39.94419577547444 0.3548832214248697
1.301004492343545 13.128469234757091 883.1012195626959 41.492324634924074 0.35963601033049225
1.3240324635157774 13.128229676668845 799.1722825921865 43.10441800450209 0.36450823635527047
1.3470397800874623 13.12743927474017 723.8136103866915 44.7830680996911 0.36950157733301975
1.3700119516575862 13.125897578384476 656.0425816363833 46.52125996669194 0.37455306045426967
1.3929332485830772 13.12366492798473 595.097898446338 48.33050164680855 0.3797292159566777
1.415760898477178 13.12056898130942 540.1994008143776 50.215267234963974 0.3850408820233726
1.4385186468547049 13.11679442848729 490.75996449135727 52.17875538833386 0.39049084736079454
1.4611823245461597 13.112210757740842 446.19324275603407 54.22435580896468 0.39608051963375174
1.4837170198206024 13.106720129731794 405.9789614401552 56.35140464259919 0.40178378492263844
1.5061080636296056 13.100328951495674 369.65866146009415 58.56299845147227 0.4076169488731828
1.5283503341991491 13.093025826672115 336.8512936430872 60.868583906958435 0.4136110515598296
1.5503995153648569 13.084736031032376 307.2019470112115 63.27242258069601 0.41976913421433276
1.5722808727767656 13.075565915885779 280.37030255584716 65.77056262047509 0.42605669143833924
1.5939404593682005 13.065298863042303 256.0784836131201 68.37904350689485 0.43253025227219005
1.613103567207395 13.053777389646994 236.06258417234918 71.29606541686853 0.763924003909169
1.6177687843976003 13.034860929328747 228.67797417801864 75.12424956965488 1.4790490449544038
1.6114300206259815 13.005032746283897 229.08551048455087 80.42571584903514 2.125728047443914
1.5986938178108325 12.965569549642114 233.50757737842625 86.99284630620998 2.717913107244646
1.5817400094102687 12.917916999472805 240.50341973178797 94.8394708187555 3.3473401626730426
1.5617668262976645 12.8636297811873 249.52487090207967 104.03993618067814 4.00918320281244
1.5387480022076185 12.800901072119583 260.5274621619053 114.38995657002629 4.336000163942875
1.5122950405877364 12.724056122533678 273.1566406205723 125.45059474417374 4.423065796897192
1.4838330541253442 12.63331660426352 286.1970350448945 136.97981676132318 4.469211373753108
1.4544854087476702 12.530589012363773 298.75842386329174 148.96127405398127 4.516817303471843
1.4250490545081564 12.417384581013858 310.13274883796885 161.41738299924447 4.566155468548725
1.3960318833680043 12.29451707184089 319.653963988329 174.3735835797566 4.6173168440904595
1.3678439543556489 12.163352026072628 326.8824367623235 187.8564532773781 4.670395255969063
1.3407777222583044 12.024645762575142 331.3892204526863 201.8948448451208 4.725478702322063
1.315046788868424 11.879326297451149 332.80501605464593 216.52047560118413 4.782690447264663
1.2907896221585737 11.728230364306905 331.07738809225896 231.72668880751482 4.841952139269331
1.2682229476705666 11.572320641443254 326.00061409073163 247.5547241350621 4.903434141770463
1.2474237109907813 11.412957304552245 317.84645701137794 264.0710012377461 4.967356849849274
1.2284189700079213 11.250673692110277 306.82866322024194 281.31627609603817 5.033872990745756
1.2112494933521025 11.086517205277598 293.27055265098994 299.3358384435436 5.10312737852494
1.1959277049683545 10.921755235173631 277.7222687025323 318.1772627111918 5.175276630502233
1.1823295674121659 10.756528513383529 260.66596398724954 337.813914900928 5.250169855029551
1.1705040480479298 10.592370358232131 242.62356232580092 358.3376824420277 5.328137603171832
1.1603245101416413 10.429884663440697 224.15459776130436 379.8429583508313 5.40952693218289
1.1516940872880546 10.269551765660403 205.68559086290531 402.38661731798135 5.494509797612061
1.1445279975771883 10.112014856494389 187.5941560364688 425.9106414005772 5.58278393922879
1.1386746248381203 9.957764666658164 170.21681194530873 450.61565241020764 5.675120091157328
1.134070963233531 9.80742441306635 153.8056214189596 476.54336151451184 5.771613827357415
1.1305394964501143 9.660879003364629 138.44710036812606 503.6954279997466 5.872191105517694
1.1280022865150723 9.518785804401425 124.30157079084721 532.2801054822521 5.9776291540384445
1.126317135129618 9.380889649928767 111.36792170261573 562.2384454134739 6.087580173593723
1.125364984854645 9.247594416207225 99.6744606586677 593.8147745570348 6.202962862173305
1.1250377311527033 9.118509068100263 89.10784125476569 626.9751099620582 6.323491801844622
1.1252393881529268 8.993971918574923 79.65320034215564 661.9659963399507 6.45009939442982
1.1258455356796302 8.873730631500612 71.23837334667276 698.7797538849801 6.582570884586573
1.126782319326051 8.757670336884717 63.76363082424925 737.6442868437391 6.721709163757592
1.127946272600381 8.645603944380717 57.148327608621145 778.6961675478393 6.86791866772791
1.1292628984849116 8.537375511238187 51.28029678140059 822.0105167765664 7.0212866068303015
1.1306603682234293 8.4329643585122 46.10172683406778 867.8392394170943 7.182667942256224
1.132057380043251 8.331828699972307 41.522798126764606 916.3583361375723 7.352545516960244
1.133395409273955 8.23423564274369 37.49803351785495 967.7629477967434 7.531461151554664
1.1346134665788012 8.139698770479423 33.9448525773603 1022.2569954497917 7.719959911305812
1.135664194417747 8.048156731957501 30.800383620307727 1080.085725750225 7.918727064357064
1.136486591778641 7.959324675124442 28.026868995886247 1141.5328055220739 8.12858059661571
1.137049816470954 7.873183105937961 25.571970304834316 1206.8899130103925 8.350319228105652
1.137303684910758 7.789431547371878 23.41036493479967 1276.4792735657268 8.584817725891849
