M[M_sun], R[km], Lambda[1], P_c[MeV/fm^3], rho_c[fm^-3]
0.23841724892012095 16.20908015294055 2780876.1263280716 3.453507347168396 0.169602847481901
0.24841174374761185 15.866322168762895 2282316.016918408 3.635493732931125 0.1719777686377509
0.25868806445671105 15.563165396787705 1881967.3496689769 3.824653439560135 0.17437353178920662
0.2692485801238296 15.293869273405512 1558415.876124969 4.020083870035072 0.17676425230562795
0.28009552964686724 15.054312095790001 1295859.98780957 4.222127394677917 0.17914223763764234
0.2912218443614295 14.840246862000154 1081602.449265407 4.432145843451468 0.18154403464468305
0.3026401126001626 14.64889165909628 905889.3370735957 4.650486585899733 0.18397351752310917
0.31433570567769115 14.477480064446105 761387.5797556431 4.8775166688014915 0.18643234143504117
0.32631705345604994 14.323645887694179 641889.2643752969 5.11052443245685 0.18886030788380564
0.3385814490388628 14.185367386538843 542768.9350863933 5.3527514213649985 0.19131057481871805
0.351125770064635 14.061154358681907 460318.7089294681 5.604671272645712 0.19379079177428904
0.3639572597919911 13.949373194937914 391407.8985111969 5.866696113812824 0.19630660158492427
0.37707423566566867 13.848565676259188 333617.4655102262 6.1356854020152705 0.19879748914663486
0.390470463690947 13.75806139212652 285095.49653657683 6.415127754327803 0.2013190888788319
0.40415529761691144 13.67640932707774 244180.57749528962 6.7058027814317045 0.20387536718004887
0.4181187480114255 13.60295544955748 209604.14880001356 7.007760728511104 0.20645696259653484
0.43236794786721733 13.53694067342353 180303.14141391 7.317714380089499 0.20901586121058943
0.4469044862097693 13.477560583010725 155399.05528620587 7.640204480111078 0.2116192319756916
0.46171909600565064 13.424201812823497 134195.52739082152 7.975764641488186 0.21426713787405685
0.47681851653898494 13.376546618005797 116109.3608528516 8.322403256990901 0.21692109131496784
0.4922007902376462 13.33384620548145 100628.0967190784 8.680189126904454 0.21957335665837177
0.5078584883588797 13.295773060726527 87371.57019109256 9.052568485843171 0.22227368329074632
0.5238060577537947 13.261952124892638 75984.92237571665 9.440145566271722 0.22502498698884293
0.5400283450247269 13.231900120203123 66178.82598125063 9.837431689858255 0.2277493070750204
0.5565259131036354 13.20534631859938 57733.67878449625 10.250738222845715 0.23052129702139534
0.5732973085557824 13.181966914368017 50438.08472920124 10.680960631151722 0.23334394256710275
0.5903492963857584 13.161597228667613 44126.82141096924 11.125015830608604 0.23616921258820564
0.6076809209204755 13.14383909494758 38657.857606055884 11.5839213654063 0.2390133858382758
0.6252682218085046 13.128589678248419 33915.46839581035 12.061660549878267 0.2419168972066876
0.6431337952995576 13.115570477565832 29790.372475316653 12.557782404171386 0.24486686130118304
0.6612566991059746 13.10454462519459 26201.2331346365 13.067514697914193 0.24779757571706526
0.6796471747205715 13.095346837211993 23071.379359371538 13.598192807266337 0.25078692722835677
0.6982826010981292 13.087879187208262 20340.922811026547 14.150721572345603 0.25383657230106205
0.7171963835618721 13.081994183325005 17953.47874673086 14.718906363054229 0.25688057530145664
0.7363486587052583 13.077524772126303 15864.275503147646 15.308708598615876 0.25997477732126256
0.7557414032828657 13.074232865230833 14034.703147030865 15.922750901936364 0.2631349984189269
0.7753787186970069 13.072072895402805 12428.348460525782 16.557883505889027 0.26631798667433404
0.7952604962065318 13.071024990955378 11017.925607947505 17.21369455089106 0.2695168293277001
0.8153694031928143 13.07076877920603 9776.772784824358 17.896535262982265 0.2727874802718134
0.8356999368920652 13.071318718717723 8684.636637558213 18.60682630812627 0.27612632252112296
0.8562475695788715 13.072523861125555 7674.137662503542 19.33656731435621 0.2794571619954938
0.8770165727973276 13.074498746128949 6831.392883444962 20.096319735578575 0.28285895062289035
0.8979828414122089 13.07680459420947 6122.897577590845 20.887333656292526 0.28633323215718537
0.919157351602351 13.079690883904426 5460.067474293543 21.703933147899175 0.28982733544730965
0.9405168368233848 13.082832802069612 4872.953305006943 22.54994435695969 0.29337095047344997
0.9620513950822952 13.086235485335237 4353.230678027988 23.430738498073048 0.29699791705519774
0.9837703751845762 13.08991576096263 3892.1650985482484 24.346435116952485 0.3006999118983239
1.0056610320346824 13.093761291974591 3483.1591844970812 25.28925633450274 0.30439945776970145
1.0276939353431749 13.097569893883074 3119.5964031933504 26.270886513776297 0.3081853104879592
1.0498945940289277 13.101544037643533 2796.361004109332 27.292821847365296 0.3120594134939251
1.0722020664438692 13.10525135181308 2508.8056380703833 28.350976167624655 0.3159862555148952
1.0946345765703422 13.108893688949932 2252.6680866070665 29.446182715436315 0.31996457061582373
1.1171921595208754 13.112432904586091 2024.3461409407441 30.586357290805417 0.32403213897065253
1.1398706088827357 13.115779966763345 1820.4347653500045 31.773349120827376 0.32818932981327986
1.1626183681638542 13.118839645801376 1638.6169845079164 33.00105326964858 0.33239446139783385
1.1854369241821618 13.12146395817305 1476.0378277531377 34.274913805036995 0.33667625554928865
1.2083347433169362 13.123819262631354 1330.7125733534167 35.60120165975474 0.34106362628448633
1.2312818132734797 13.125776930446744 1200.623858750154 36.981935004927635 0.3455557817773533
1.254265508726747 13.127195807003487 1084.0546759165798 38.41282133850632 0.35010544638694224
1.2772758661894121 13.12817085293726 979.5613121461355 39.89718900860956 0.3547370954786771
1.3002841748006526 13.128485544474366 885.864743858122 41.44292562990744 0.3594857649442021
1.3233014661823208 13.1282875593735 801.698791717509 43.052485535102484 0.3643536366396948
1.346307036613414 13.127537866561555 726.1251523077138 44.72845509367596 0.3693428625885064
1.3692536636072472 13.125952461298722 658.1877918459774 46.4623557732697 0.3743818747845561
1.3921662667159782 13.123804883664876 597.0549296560736 48.26856090229526 0.3795527951735398
1.4149867100306521 13.12070978547778 541.9916822730985 50.15010591097835 0.38485889251440175
1.4377397622400416 13.116987842681704 492.4197696265696 52.1101776858772 0.390303020544645
1.4603861052020828 13.112361833391901 447.6917017872231 54.1521561019497 0.3958869302453113
1.4829200080814242 13.106967291162807 407.34201427032235 56.27359329071157 0.401575149006394
1.505297874100088 13.100549128732258 370.88107587541765 58.481068559055366 0.4074011920260446
1.5275418230614506 13.093344176314524 337.99663025237214 60.78227802138806 0.4133877191226856
1.5495667169442984 13.084983043830034 308.2491628561529 63.1814664940716 0.41953789891143745
1.5714596621058807 13.075858433809396 281.32439855498137 65.68314377023371 0.425852648811776
1.5931102223076055 13.065687200231597 256.96589174081186 68.29216486322848 0.43233705276419104
1.614519713544768 13.05432299496946 234.89066997901605 71.01357427105712 0.43900628509169104
1.6356984246730655 13.041949275520373 214.86257042189698 73.85280206038131 0.44586758332838833
1.6565983670417317 13.028599207154068 196.73474006738095 76.81149041294525 0.45290612290730076
1.677186828783719 13.013873297806185 180.25094598057038 79.89952299127201 0.4601410267119119
1.6975036901432057 12.998222158863893 165.2983426189807 83.12467113229341 0.4675966810024091
1.7174517310986972 12.981151776873277 151.68730703884458 86.49398704532382 0.4752838038351164
1.7370860070113436 12.963126526411903 139.32321192986961 90.01497993470018 0.48320732806530814
1.7563354045258732 12.943648972956533 128.06152973487306 93.695690307087 0.4913747919546209
1.775180054614339 12.923064588622536 117.82807491880821 97.5447593806517 0.4998049933660127
1.7936344048377864 12.901083814006395 108.4791632615087 101.57140780771374 0.5085140949336738
1.811648386199677 12.877855923748742 99.96667652311568 105.78549957644105 0.5175095051544224
1.8292191669383673 12.853278493491446 92.19376334667163 110.19762811907962 0.5268037044232792
1.8463182417652821 12.827425156690694 85.10634299049651 114.81918003790382 0.5364201199202897
1.8629270862578187 12.800237787075389 78.63211209943255 119.66237458665402 0.5463786156577193
1.8790119230949547 12.771515812323928 72.71046206208453 124.73996351691714 0.5566862915247907
1.8945826964629848 12.74149849713481 67.29672367364172 130.05929098298836 0.5673418316128631
1.9095756228952578 12.709941325859862 62.339856687306565 135.64128641192045 0.5783959072088959
1.9240155251897642 12.677023144201534 57.801417203133596 141.50223589009408 0.5898672407147194
1.937885517245098 12.642771055927751 53.643596831563876 147.65969208764696 0.6017736307970075
1.9511313034261468 12.606964879976875 49.83366833100199 154.1325537687941 0.614150446818658
1.9637587587633039 12.569659621255843 46.336241573892664 160.94124977855404 0.6270297387714545
1.975738093585681 12.531003813401778 43.12877332661151 168.09432911197635 0.6403818797472638
1.9870503399523174 12.490717850487686 40.183735304103735 175.62516078261896 0.6542846569302444
1.9976867729083734 12.448966696151356 37.47251677084626 183.5615878866347 0.6687851894850427
2.0076394007511276 12.40584393666342 34.98743076531839 191.9282946085501 0.6838972429196217
2.0168560664753326 12.36103595405944 32.69858558736332 200.73960998924284 0.699620453042679
2.0253641821933144 12.314772102956862 30.589418433746822 210.04490179113228 0.7160607590360653
2.0331194898412757 12.267004439955546 28.651736418983642 219.8715229195156 0.7332237218903116
2.0401280535681994 12.217741122951544 26.865204628578805 230.24655252258665 0.7511387878209691
2.0463667525784612 12.167046479151105 25.219603897046117 241.22831179523502 0.7699200402469746
2.0518242958151123 12.114764346708647 23.701579898901887 252.83306763384422 0.7895155460301494
2.0564829119723465 12.061030801344936 22.30237957678752 265.13478447435097 0.810092502424378
2.06034081933265 12.005884282026328 21.012501963944086 278.1506149692337 0.8316025131748347
2.061793750482826 11.954838577961526 20.023477940007393 293.0666648449044 1.557650252824895
