M[M_sun], R[km], Lambda[1], P_c[MeV/fm^3], rho_c[fm^-3]
0.23841724892012095 16.20908015294055 2780876.1263280716 3.453507347168396 0.169602847481901
0.24841757492163916 15.866157486643067 2282173.754857493 3.6356022448480934 0.17197914895037425
0.25870200586219944 15.562679650702147 1881322.759647747 3.824876647187135 0.17437626231101938
0.2692679322256129 15.293408952045294 1557998.4913535179 4.020443473759974 0.17676865137490705
0.28012385511785126 15.053693549599343 1295301.137908465 4.2226198309762335 0.1791479959161536
0.29125783307844344 14.839677630982244 1081052.0551853403 4.432777899565194 0.18155114655260407
0.3026785431915493 14.648329945416528 905416.9914992257 4.651265406741211 0.1839819525606255
0.31438632512936604 14.476772357314832 760821.1651364107 4.878449690405228 0.18644206362246663
0.32637438111328604 14.322980989192663 641391.7000181196 5.11166607840374 0.18887220395976437
0.3386477464217582 14.184698312401819 542309.3703329298 5.3540688255114866 0.1913237200248602
0.35120169038513666 14.060474179730209 459858.528482 5.606172686855135 0.19380522193274982
0.3640395755447926 13.948640923088726 390999.5957552064 5.868390392502713 0.19632229090007475
0.37716792561898116 13.848007585946707 333254.3932818239 6.137660661744048 0.1988157803950427
0.39057586432162456 13.757327976704145 284746.34939139546 6.417321341570834 0.20133864015261918
0.40426788141308206 13.675782392495108 243864.7538845416 6.7082245211619265 0.20389607189157552
0.418244852937747 13.60237508481633 206729.44666998877 7.010531500118775 0.20648065136297294
0.43250522263952035 13.536277845753474 180045.67990663846 7.320742004754688 0.20904081887825282
0.44704873333420997 13.476978554049387 155171.9503552231 7.6435008084231315 0.21164543946784548
0.46187766075448455 13.423715641920989 133988.11312036004 7.979341986773268 0.2142945269397987
0.47699008408676674 13.376013750017886 115916.84908689932 8.32642950155162 0.21695191726778437
0.49238340056004604 13.33341450727665 100465.41559246593 8.684530382777643 0.219605296117996
0.5080562876759037 13.295343767874815 87218.31894395548 9.05723883368654 0.22230685046913812
0.5240111768601822 13.261480708399837 75846.5495451151 9.445160384885213 0.22505937523012842
0.540250075278759 13.231436949443355 66056.50091115704 9.843014404281837 0.2277875895624686
0.5567635568569803 13.205013910272447 57623.46250477662 10.256706703768 0.23056073798165796
0.573552952265797 13.181663498372782 50337.16859852235 10.687332043271542 0.2333844802292588
0.5906176219861338 13.161312955345238 44036.18947449948 11.132068306260969 0.23621408346925726
0.6079510066097279 13.143527127072241 38577.75049261674 11.591424307223926 0.23905952527842286
0.6255643679810088 13.128318086827159 33838.90904843192 12.069635359588776 0.24196431580375777
0.643438590921527 13.115309042346283 29724.071478396705 12.566569566185079 0.244919110183607
0.6615774094191131 13.104334180303608 26142.38279818143 13.076829258368162 0.24785100124840267
0.6799866546863153 13.095199923223042 23017.821474967903 13.608058774583741 0.2508415284122928
0.6986391696037467 13.08770473385224 20292.351133841214 14.1611650970665 0.2538925226205795
0.7175623016457484 13.081860103110106 17909.415588726242 14.730353338354316 0.2569419015244192
0.7367334233334514 13.077422093857697 15825.028828739189 15.320801960237032 0.26003752381551604
0.7561472352783704 13.074212118360297 13999.087897899979 15.93552168891692 0.2631989996443694
0.7757978194571876 13.072011680751716 12396.029606217291 16.571841462306182 0.2663879374390543
0.795690138920302 13.070923609344705 10989.27569817794 17.22840906133463 0.26958815194861835
0.8158228781068413 13.070742173100534 9751.088680531164 17.912043749832723 0.27286038051668227
0.8361708925423851 13.071340561976461 8661.318442356865 18.623736053158503 0.2762058096152158
0.8567332468500013 13.072594318990271 7701.368017115728 19.354366633165277 0.2795383435749193
0.8775264673414458 13.074597342785783 6854.137221622189 20.115052902682663 0.2829416126933887
0.8985051882303522 13.076849758868047 6105.754528644388 20.907047008809943 0.2864175825524507
0.9196965263763457 13.079776046871542 5444.248924653843 21.72536297481989 0.2899190303718352
0.941075695317833 13.08289605588705 4858.409522719753 22.572473098664634 0.29346462579963367
0.962630243272282 13.086323903631767 4340.174474436481 23.454424520382407 0.29709367533434344
0.9843778028628771 13.090129020957262 3880.437510546311 24.37214326200861 0.3008038452518625
1.0062709674452766 13.093820021906735 3472.2299059097813 25.31626230328798 0.30450529161032736
1.0283232935044222 13.097687061640498 3109.7378369174344 26.299257688578123 0.3082934172180584
1.050526766804042 13.10158498683642 2787.4281799235773 27.322632203759138 0.3121700406093714
1.072855922507818 13.105357031732884 2500.874251499305 28.383264447052657 0.3161060782761079
1.0953189779502348 13.109008170334176 2245.3869343762326 29.48009089837748 0.3200871910152736
1.1178954562851093 13.112612409975812 2017.706230502007 30.62197271017471 0.32415725498669357
1.1405712308785763 13.115811785265585 1814.4717246009473 31.810764386687232 0.32831748456160653
1.1633410510407525 13.118914959848691 1633.0669100050338 33.04151236369649 0.3325330418648191
1.1861870667478327 13.121602266116689 1471.1288733508045 34.31740262316214 0.3368183171692526
1.2090904881776428 13.123884906002148 1326.1751134271574 35.64583635514171 0.3412093860534611
1.2320524062600757 13.125806443020412 1196.4593968778152 37.028835673837044 0.34570490774808604
1.2550635969476394 13.127276870977948 1080.2102105016957 38.46347417934918 0.3502665028118656
1.2780834650165351 13.128188352158185 976.171415215683 39.95039985490081 0.3549025075199768
1.3011035369422035 13.1285056064854 882.7257145324824 41.498844540780325 0.35965584040143433
1.324136592666577 13.128358221689561 798.8713928529011 43.11127238763505 0.36452864142545205
1.3471540814961909 13.127493326836138 723.4988221079674 44.790276383420206 0.36952252583950057
1.3701105028257714 13.12592041600456 655.8093644179214 46.52903489266618 0.3745756557201166
1.393022595114631 13.123600959388796 594.8497564794138 48.33867749916681 0.3797525025717676
1.4158726900799226 13.12061334322228 539.9970225707735 50.225197093582565 0.38506668804443844
1.437007661918407 13.11624652251701 493.6084561748201 52.36071782549843 0.6233185226118106
1.4451573782592053 13.102652062024609 472.8004246488608 54.83636592787175 1.1744036007949057
1.4424176826570234 13.075981104542462 468.9545546680187 58.40704695100566 1.6804467167147632
1.433397959783043 13.038909719188991 473.5933560090695 62.76750182230084 2.175728677148059
1.4202109221093961 12.993336787033709 483.6726734467484 68.00385736563567 2.768318929654662
1.4038573484075112 12.941693188129745 498.5026434390937 74.16649489365052 3.3276291999428596
1.3842668730967982 12.880298682879422 517.4305299568172 81.14810562549407 3.646046600409385
1.3616948310720076 12.8044716784543 538.6960089277379 88.63406728545233 3.699807656249507
1.3375528630506661 12.715183990246343 559.9184639623646 96.39411889292306 3.722116908735023
1.3129446122022053 12.613803318816013 578.9030770759346 104.3651504909161 3.7435208772265263
1.2886379177671954 12.502113797867889 594.2188001022704 112.59920934528193 3.765441022883391
1.265060600998289 12.381182493602195 604.8676047840493 121.11870683670836 3.7880082330482514
1.2426272487746497 12.252074670506335 609.6916104252448 129.9323726602905 3.811229871451524
1.2215802397594455 12.115934992695692 608.3774003079195 139.05084918234093 3.835132528972315
1.2021440682895697 11.973709018985708 600.5205203400093 148.48563737684626 3.859742357088811
1.184457398455839 11.826400060835065 586.218494151912 158.24923450156246 3.885072993511894
1.1686297563853514 11.67508606510014 565.8285155929391 168.35544295920755 3.9111471117782104
1.154738427268986 11.520907797992665 540.1870732285824 178.81919871618965 3.9380007881966783
1.1428174088760423 11.364811577532313 510.0547763862363 189.65633391856912 3.9656516368394144
1.1328719753187315 11.207996718835597 476.61615638721105 200.88419668931573 3.9941349119921106
1.1248694064946498 11.051337913354692 441.02121208562266 212.5210187391732 4.023487407234058
1.118763213576738 10.895737300139986 404.3592788378452 224.58642085402516 4.053734296064872
1.1144799940906551 10.742136930774263 367.62979778055205 237.1016886483298 4.0849295577206215
1.111945421444568 10.591299863653747 331.77022950216303 250.06628810333783 4.117023058085045
1.1110336568136303 10.4437587070562 297.47479154264494 263.4990030381068 4.150070390420792
1.111655414057895 10.300223205393062 265.1963905927928 277.44800063622665 4.184156494569309
1.1136832182813965 10.160848563442526 235.3459480389655 291.94018624944863 4.2193461854230945
1.1170054887335399 10.026245223253948 208.0482600825074 307.0049703241702 4.2556842006415385
1.1214855712272052 9.8963143091788 183.37403602842903 322.67324093859236 4.2932239272314785
1.1270360681766287 9.771431468051636 161.25181051907435 338.9255935139047 4.3318771781340075
1.13350761722268 9.651539669394621 141.6136727570663 355.8167158796237 4.371756781722553
1.140801010276153 9.53661445477255 124.26677820274004 373.41188102970233 4.413012234178197
1.148817220940647 9.42656715087215 109.00694471887695 391.7486208812406 4.455698242376046
1.157444074806045 9.321294889765714 95.65194684289973 410.772570747678 4.4996144186564395
1.1665941806552764 9.220682846923795 83.99451434652305 430.623264121292 4.5451075756019925
1.1761755592989203 9.124392884284724 73.80743446481979 451.323452013525 4.592183622486681
1.186089550367887 9.032439138934613 64.81873169908741 472.85870007706615 4.640744333741325
1.1962832391324203 8.944369129900664 57.26657984725279 495.3711771258664 4.691124986113871
1.2066601995119084 8.860170103685443 50.46821424768681 518.803956621625 4.7430972599599235
1.2171654252766797 8.779478952403124 44.75492130279928 543.3173525057848 4.797042662020034
1.2277417883835846 8.702061319887125 39.67710950160579 568.8695326575033 4.852749253817762
1.2383198556006922 8.62784358315198 35.261004541881135 595.6205377583158 4.910606133065808
1.2488506350309236 8.556495226300411 31.40897833908606 623.5373414871661 4.9704041306681095
1.2592885278917911 8.487802853458389 27.987642003975655 652.7649116399682 5.032458005856884
1.2695814076364165 8.421589253542528 25.086476506114344 683.3708027273656 5.0968584708892335
1.2796908563379865 8.357653268850521 22.462654291633502 715.3759776328895 5.163533586998068
1.2895880440385825 8.295828143920316 20.227276078726568 748.9278209581934 5.232781697661423
1.2992201452560126 8.235996674789401 18.227925497089466 784.1119253040579 5.304700285739492
1.3085595987157792 8.177877390957693 16.442221265939974 821.0221771989693 5.379403544063848
1.3175875852521015 8.12135976869419 14.887666338280313 859.7512069013392 5.456989609836283
1.3262648561002048 8.066315291242567 13.530515468074626 900.417775293168 5.537616271929065
1.3345740977244653 8.012608230582577 12.304945988600625 943.1591886164224 5.621481814325263
1.3424859567051772 7.9601416897028745 11.205959063683682 988.1093241609602 5.708754923500997
1.3499790437655896 7.908747230967275 10.252797540506377 1035.4139732933668 5.799618124870894
1.3570415913771354 7.858343349004246 9.389794096679507 1085.2273290384735 5.894253026593818
1.3636453948592653 7.808835356328715 8.61931338216447 1137.7029677827256 5.992823076160891
1.369787320353192 7.76007812290169 7.928631746619115 1193.0454611195935 6.095620039916152
1.375430018942327 7.7120282165625325 7.309664780007817 1251.46038616911 6.202898700848565
1.3805861545293416 7.664594872333521 6.753529778998466 1313.171429713058 6.314940465860066
