M[M_sun], R[km], Lambda[1], P_c[MeV/fm^3], rho_c[fm^-3]
0.23841724892012095 16.20908015294055 2780876.1263280716 3.453507347168396 0.169602847481901
0.2484036649501719 15.866673849536433 2282835.358366127 3.635378202632158 0.1719762990486542
0.2586756147521846 15.563429359067626 1882258.5061453588 3.8244158053387487 0.17437062478538387
0.2692279059439894 15.294335529265902 1559051.6886465112 4.0197010413517225 0.17675956912304816
0.2800708901701867 15.05476583978559 1296379.7401960485 4.221603176066784 0.17913610771429184
0.2911893293605981 14.840805249814924 1082150.9271460501 4.4314730207379185 0.18153646403017268
0.30259652940187315 14.64955884115352 906517.0884966494 4.649657564575922 0.1839645387880834
0.3142833678094238 14.47817041228386 761924.8549963648 4.876483432298946 0.1864211817051983
0.32625612620995 14.324326168914641 642421.2258243789 5.109309301573283 0.18884764608674845
0.33851188024576045 14.186125615972266 543291.1174750676 5.351349270532386 0.1912965840006489
0.3510451235629402 14.061886495249066 460780.3017632791 5.603073331617971 0.1937754338923025
0.3638690139102944 13.950136925827048 391844.4084185037 5.8648929716134734 0.19628990417475461
0.37697343202009037 13.849317340282633 334043.58703535376 6.13358332432256 0.1987780235418388
0.39036369395842174 13.75873127708275 285454.70491846686 6.412793410774974 0.2012982830549195
0.40403083586233396 13.677073254149489 244520.62906599935 6.703225730523916 0.2038533346325503
0.4179855505289609 13.603647449270728 209899.76588311564 7.004812404642303 0.2064317558435428
0.43222244375651836 13.537510076526283 180561.15964841985 7.314492847381413 0.20898930509760105
0.4467439481358052 13.478141128485413 155650.17423933535 7.636697144603034 0.21159134686865538
0.4615511832100863 13.4248170145037 134413.80729892646 7.971958417583335 0.2142379964553649
0.4766307764373697 13.377104868566962 116312.31693672467 8.318119625519188 0.21688829474246984
0.49200532651696405 13.334405114324602 100815.1663249633 8.675570485091905 0.219539376416709
0.5076535757482461 13.296321938226512 87533.34999672114 9.047599871009496 0.22223839792441483
0.5235806130359915 13.26231915168914 76123.92320216137 9.434783030970076 0.22498803743037793
0.5397898912978019 13.232243921871827 66310.66952836774 9.831492913697488 0.22770858295650342
0.5562738694174145 13.205672552374766 57851.93807436061 10.244389256566135 0.2304793417349494
0.5730337175939872 13.182288210828442 50544.15852298915 10.674183236281321 0.2333008218682078
0.5900718508205396 13.161926394013028 44223.34695451339 11.11751436358299 0.2361214850310738
0.607381619179801 13.14411869903563 38744.634736929074 11.575940972143822 0.2389643103041408
0.6249567978420749 13.12885648696049 33991.4197897887 12.053178490924305 0.24186646248153879
0.6428048961307732 13.115748736500914 29860.008624746653 12.548436817046463 0.24481129199654159
0.6609072114228449 13.104654775955469 26264.085949238903 13.057608460172812 0.24774075650186947
0.6792865691077765 13.095557480122087 23128.331392859236 13.587700412406624 0.25072885920894883
0.697905478920396 13.087983019119571 20392.754094049367 14.139615238182387 0.2537770710348031
0.7167950239285739 13.082124360148121 18000.274425737232 14.706733551919125 0.2568153604730691
0.735900944278691 13.077711049687881 15916.172074671838 15.295848746851249 0.259908053887355
0.7553122068923923 13.074305828971342 14072.580881928965 15.909171037032248 0.2630669424724508
0.7749305165011287 13.072063649045507 12462.230117788686 16.543042081961524 0.2662436083826816
0.7947912108405498 13.07097454745669 10974.81663932278 17.198049084058756 0.2694409942732993
0.8148825560010287 13.07077287360135 9805.278616450823 17.880046003611508 0.2727099697411326
0.835200572888157 13.071273814514036 8709.97587180516 18.588848193392316 0.27604181337596756
0.8557239832802455 13.07253450906481 7697.205427418819 19.317643899781217 0.279370853485612
0.8764762328037173 13.074390316439645 6893.9079303703575 20.076111124000956 0.28275214813572325
0.8974158335455548 13.076759648699467 6142.279010710318 20.868384326602303 0.2897864052452034
0.9173834159034918 13.0784920346312 5509.005186181045 21.70302944237661 0.34782208191954755
0.9355593761165514 13.077529706393461 4987.37554244986 22.598969698242755 0.4040595166900142
0.9522593722279934 13.073269860557645 4546.730930741089 23.557606463658097 0.4585219387572771
0.9677988915685836 13.065566873623403 4164.926764535078 24.581640822124697 0.5097727667835619
0.9823912640584304 13.054494579827256 3829.145148133072 25.669133310283215 0.5588906108172301
0.9961792025579964 13.040178203683169 3529.9496736471797 26.823193860640124 0.6074696983677519
1.009326960433244 13.022666518161824 3260.192776393558 28.047054193914352 0.6553393485360308
1.021937578939072 13.002198888689016 3015.1775147198405 29.338847388658515 0.7012062960132491
1.0341478578220653 12.97891727828682 2790.4894487460183 30.698595722925397 0.7444922636103461
1.0460708729450086 12.95302489855715 2583.106506938913 32.13255495891438 0.787047224580855
1.0577805552558959 12.92466562837465 2390.7491089018968 33.64348035006971 0.8291335468927349
1.0693622542230343 12.894163025542063 2210.5257750610185 35.22470855842801 0.8696840668110071
1.0808342857470252 12.861508138911844 2045.7232908871258 36.882092467397236 0.9093866956547646
1.0922702041872605 12.827052531284671 1890.6814505672946 38.62283509650288 0.9487221871999679
1.1037267630304102 12.790815547502756 1745.9696960637634 40.44991673414189 0.9876501188812626
1.1152458623750288 12.753125231620526 1610.8567621493403 42.35864228693895 1.0255723012035012
1.126812928906877 12.713849386297857 1484.831904828493 44.35010372466245 1.0625693298561165
1.1385011191162315 12.673436183411736 1367.319828612846 46.436076368522365 1.0996561362726285
1.1503018488296513 12.631781260388811 1257.8764748123588 48.62010336037301 1.136951351823272
1.162231167199124 12.589142145777453 1156.1457406905201 50.90587378702832 1.1745014047342983
1.1742881221800685 12.545634513921716 1061.6965563033718 53.2853184437672 1.2118935539293463
1.1864953079946512 12.501255816158798 974.1007151332877 55.76959434972783 1.2495484147964384
1.1988626199127397 12.456420061638282 893.0657680943368 58.3679038695575 1.2877129653943988
1.211339811442737 12.410762076685723 818.2427156379006 61.084892837401405 1.326440540018661
1.2239601278688543 12.36460915574224 749.1157981300171 63.92546589751045 1.3657921349684365
1.2366936493681802 12.31800661332202 685.4951457408413 66.89483284366558 1.4058363211222815
1.2495435243361235 12.270985745034578 626.9414305809235 69.98505403743685 1.4462992675064341
1.2624983461737287 12.22368047996428 573.1786261154584 73.21530208482856 1.4876560739323845
1.2755238473042854 12.175961279384838 523.8617637577439 76.59279430289463 1.5300171744865372
1.28860533823696 12.127977470630313 478.6982196878843 80.12430885601886 1.5734688934362873
1.3017362007406712 12.079776161710118 437.36411669207166 83.8170798606642 1.6181045958378837
1.3148892818319438 12.031266439813518 399.56726350871946 87.67895491328878 1.6640786420956355
1.3280516557429827 11.98253738500472 365.003130597852 91.7181913134402 1.7116281985180608
1.3411861316597866 11.933639651554689 333.52562835421617 95.94376154933482 1.7609953957132718
1.354292360592718 11.884566180646843 304.7725291484888 100.36531992809289 1.8125189852067007
1.3672847555704628 11.835091164029274 278.601132602256 104.9928964109125 1.8668067537786814
1.3802197576461703 11.785551691988829 254.75079042553745 109.83450151005097 1.924844045547834
1.3930004097431397 11.735771508836125 233.06365031086756 114.90805126975181 1.9882887921476555
1.4055946503061436 11.685624072110635 213.3425277434014 120.22788907744437 2.0616226912663884
1.4179893008552182 11.6352729113713 195.40889460023857 125.81172388658973 2.1550668636019843
1.430124151047327 11.584627534565884 179.15142398359208 131.67218330377563 2.2218658538830254
1.4420654874244045 11.533369361255037 164.2909595575102 137.81505921722578 2.264942087562054
1.4538283057521049 11.481672195912665 150.71792500116806 144.25199360975213 2.3074853467175624
1.4654174510665638 11.429599737931746 138.30618484543353 150.9971811910541 2.3517818989777206
1.4767869866595218 11.377151061207647 126.9837506457559 158.06800622761565 2.397911485588303
1.4878932247979695 11.32428885871119 116.65747355275315 165.4885330433635 2.446039950228122
1.4987371307259096 11.271122282000025 107.2449337914489 173.28147247293998 2.4962558370947043
1.509273888453252 11.21754265368109 98.66093838922323 181.4709357833741 2.548704211396638
1.5194837634586311 11.163670668349088 90.84607904616907 190.08344228336844 2.6035028858385605
1.5293006851528435 11.109279695560451 83.71787959577155 199.1471668081105 2.6607919273557012
1.5387275204195745 11.054412304508578 77.21707552533452 208.69306542642613 2.720737371801864
1.5477273113719434 10.999111638219793 71.3133221123765 218.73952907211012 2.7833473525602996
1.5562737439939567 10.943443212931045 65.93104505445085 229.32651716251056 2.848853002802377
1.5643259238356906 10.887162678820227 61.02248494471343 240.5015229943875 2.9175032381914536
1.571873792317348 10.830254222605395 56.53616848359973 252.30694040615776 2.9895177308194936
1.5789142509167933 10.773035459720386 52.454748037027784 264.7672966371808 3.064890728731959
1.5853392874394716 10.714934488264994 48.73374087031266 277.9402274610398 3.14395864921915
1.5912104652937025 10.65630098627268 45.33301498634504 291.8907619660098 3.2270530583525012
1.596480437507293 10.597071665581822 42.22798243691185 306.6505717561631 3.314201427087941
1.6011280188410897 10.537114434631354 39.3929311775227 322.29618937982804 3.405819605983757
1.6051510610402304 10.476589433259937 36.80268103461504 338.89785952022123 3.5022127013571778
1.6084952009359292 10.415308408472212 34.433542704029875 356.50791035309794 3.6035190141718374
1.61117160267665 10.353306571313151 32.26791312720515 375.2331603832922 3.7103188625943364
1.613177602261119 10.290619948730605 30.282611554268563 395.1293079933938 3.8226696135322857
1.6144805286010748 10.227227644081845 28.468521424710048 416.3180041406207 3.9412534708002274
1.6150793317663226 10.163105423882557 26.809694634659415 438.88556749001975 4.066295481787098
