M[M_sun], R[km], Lambda[1], P_c[MeV/fm^3], rho_c[fm^-3]
0.23841724892012095 16.20908015294055 2780876.1263280716 3.453507347168396 0.169602847481901
0.2484135338671053 15.866288558569831 2282224.185336243 3.6355340501877254 0.17197828148850297
0.2586927686195561 15.56297511091879 1881721.5744854396 3.8247363705661144 0.17437454629271543
0.26925761134756204 15.29362685644694 1558301.0957360666 4.0202174760773115 0.17676588672205695
0.2801069327424734 15.054081370245818 1295675.1723056848 4.222310350621924 0.17914437702355782
0.29123314712859416 14.840042228437103 1081393.5114785256 4.4323806697945045 0.1815466769153499
0.3026554227820238 14.648611487402082 905681.0758335243 4.650775935980261 0.18397665133598964
0.3143560559900575 14.477155897334791 761122.5530523601 4.8778633040710515 0.18643595341256178
0.32633848782686076 14.323391177025746 641717.3223831155 5.11094856965753 0.18886472743994734
0.33860554122119724 14.18514926462813 542592.4585175575 5.353240849699909 0.1913154583894669
0.35115511187143633 14.060882278926139 460132.03702660656 5.60522905643867 0.19379615265902606
0.3639869310880086 13.949042511674609 391235.07784462266 5.867325541180086 0.1963124301917457
0.37710904363845327 13.848357005593986 333495.8794811554 6.136419203724951 0.19880428427800836
0.39051055138626023 13.757735989898505 284974.9419005758 6.4159426555110946 0.20132635203018123
0.4041954376801685 13.67610597138544 244061.05451178778 6.706702430512624 0.20388305874758736
0.4181644108723973 13.602716955243592 209497.36029729905 7.008790023805786 0.20646576257693167
0.4324217443628606 13.536779774616695 180206.3521901258 7.318839080999153 0.20902513247589738
0.44695898038521875 13.47732054326327 155310.55191629304 7.641428987228201 0.21162896743212262
0.4617505371129571 13.42463725827427 134240.81806871248 7.977093527224106 0.21427731216138
0.4768804733638375 13.376384561103986 116033.33754422453 8.323898873938338 0.21693254213887037
0.49226876948137116 13.333732466405912 100569.01927545566 8.681801745401069 0.21958522100474215
0.5079340158961978 13.295548649330769 87311.08080906747 9.054303334462087 0.22228600357941777
0.5238821702534067 13.261734225935733 75926.95678127313 9.442008355657732 0.22503776074115728
0.5401114355194073 13.23168821025467 66133.08554563278 9.839505396155998 0.22776352715315645
0.556613050811092 13.205153634029765 57692.328164066595 10.252955203423596 0.23053594728902857
0.5733906376281456 13.181860269144414 50402.946365418706 10.683327259627347 0.23335900007457358
0.5904536713928491 13.161529337097686 44094.04883071793 11.127635395358585 0.23618587938495864
0.6077804864986444 13.143805015900304 38629.778688290615 11.586708227631224 0.23903052368446343
0.6253769658071969 13.128502620293371 33887.28315237255 12.064622656377127 0.24193451003252886
0.6432476648274366 13.115458954180866 29767.210764580686 12.561046192384515 0.24488626794081694
0.6613466804786206 13.10472651508432 26195.78906778777 13.070974348004174 0.24781741923466463
0.6797710873094327 13.09531479660215 23053.309443626873 13.601857233664404 0.2508072072488904
0.6984150705170419 13.087824064533034 20323.3874917604 14.154600484849816 0.25385735325383335
0.7173298849010731 13.081915792488177 17936.98386842033 14.723157905055443 0.256903352585924
0.736494358733431 13.07749482496426 15849.566061164698 15.313200180816066 0.2599980819279999
0.755892135851763 13.074207425331997 14021.288955168733 15.92749404891261 0.2631587688583991
0.7755352890287158 13.072058601973621 12416.575961289174 16.563067487272725 0.2663439663701611
0.7954171930381763 13.070985735071998 11007.540397432693 17.219159473994747 0.269543318325779
0.8155338926993394 13.070712451184905 9767.185431428934 17.902295022063534 0.2728145549859011
0.8358756017258582 13.071315119416527 8675.933522457737 18.613106377605376 0.27615584304154733
0.8564300926895356 13.072567776751692 7714.360628232574 19.34317770965722 0.2794873115948644
0.8772060503212137 13.074485686565774 6865.810084494356 20.10327689445976 0.2828896498183179
0.8981770779457041 13.076800579055675 6116.419699856408 20.89465478216126 0.2863645581257272
0.9193583302966283 13.07971987018461 5454.201388593767 21.711891595526804 0.2898613884173712
0.9407332157787596 13.082944711964648 4867.737982431283 22.55831084698212 0.2934057386428084
0.9622680220689391 13.086263670643225 4348.23272334528 23.43953469893907 0.29703347849506084
0.9840007471394445 13.089992733091824 3887.5167830516084 24.355982093613452 0.30073850858814194
1.005883891068484 13.09377437533081 3479.0660200397474 25.299285193078898 0.3044387599191133
1.027929426359189 13.097625292910989 3115.7345896997995 26.28142226910851 0.30822545637779447
1.0501228211824944 13.101512659312395 2793.023020486131 27.303891961670693 0.3121004950159669
1.0724502552602226 13.105349065731055 2505.902373299284 28.36296623813644 0.31603075102166445
1.0948967812329238 13.10900626994174 2249.9446614776034 29.458774227407524 0.3200101046460685
1.1174584481268537 13.112534521835974 2021.8268575038283 30.59958266370848 0.32407859935207134
1.1401326382866839 13.115857510412866 1818.31535725312 31.787242732724803 0.3282369182052141
1.1628871371370206 13.118858701953632 1636.5824133557546 33.016076873891826 0.33244592023893804
1.1857192094874176 13.121555642047744 1474.305319358969 34.29069097217765 0.3367290066028915
1.2086146671264277 13.123849039196648 1329.037788270441 35.61777550523333 0.3411177500970729
1.2315726529127042 13.125794606889391 1199.068134724494 36.99935010728327 0.345611155061031
1.2545640247610546 13.127244156476735 1082.641764533262 38.43162931967263 0.3501652484860204
1.2775799813287718 13.12817058958246 978.3060078237535 39.916946633849946 0.3547985143312238
1.30058696248594 13.128480244719523 884.6948674898482 41.46368859676955 0.35954891479865114
1.3236168623048985 13.128284025800804 800.649534924189 43.07431318437659 0.3644186161873357
1.3466199514000152 13.12748333168891 725.1641033702504 44.75140922184121 0.36940957121440154
1.3695869787162573 13.125973195781523 657.2688417993827 46.48711309328748 0.3744538237946576
1.39248294031677 13.123695273461369 596.2289019470455 48.29459427720668 0.3796269439172413
1.4153163106180513 13.120667574519839 541.2289538380967 50.17749266179464 0.38493538115871573
1.4380718055786355 13.116881423760624 491.72411582435006 52.139000078026584 0.390381961920009
1.4607130748728618 13.112272995537444 447.05754184849195 54.18250052862941 0.3959682928885459
1.4832555165323744 13.106832228825152 406.7572339907016 56.30629563027662 0.40166283393170343
1.5056362625656634 13.100399810608934 370.36293119059263 58.51550153308829 0.40749186894134104
1.527879098709863 13.093183007772154 337.5225521346868 60.81854979233723 0.4134815790367815
1.5499326190861524 13.084926293588637 307.80275001829176 63.219692262008785 0.41963507929106236
1.5718014114325691 13.075776943835828 280.93886564219497 65.72344536488772 0.42595320869879166
1.5934477934831213 13.065439699040954 256.59714610423663 68.33467316792338 0.4324414284230154
1.6148577891103877 13.054082446446538 234.54425912373353 71.05843084998104 0.4391147192760884
1.636061388883237 13.04189832803254 214.56562892017024 73.90015793664831 0.4459802400768122
1.656923027860915 13.028361756852396 196.49887744307622 76.86248953824594 0.453027446723514
1.6775519111537185 13.013669336589935 179.98363212287146 79.953381736809 0.46026706542090295
1.6978384362489451 12.997899069154084 165.04766317575482 83.18157647611928 0.4677279556561617
1.7178172608334674 12.98099933103307 151.4691573401557 86.5541410627018 0.47542065279754897
1.7374355313767753 12.962831455322048 139.1198073090055 90.07859876015797 0.483349975657853
1.7566772258066443 12.943313471571587 127.87087141083103 93.76300501724405 0.49152356013963955
1.7755363106419597 12.92277971618942 117.65311662379608 97.61601931406813 0.49996047857322634
1.7939728807458304 12.900717950590016 108.31790055003528 101.64688237946002 0.5086767375093015
1.8119874073635815 12.87746457855999 99.81619030245879 105.86547771887032 0.5176795981365356
1.8295515690104969 12.85290776215341 92.05938015493973 110.28242005515838 0.5269817477375185
1.8466355369722396 12.826921339573266 84.97771740296315 114.90912119962354 0.5366068202457996
1.8632165582486242 12.799513175984066 78.50754811741177 119.75782772092595 0.5465745530617184
1.8793067251012006 12.770887195059446 72.41497260135829 124.83988981554216 0.5568866779014285
1.894873724690699 12.740840192504535 67.19174396477553 130.16548648763705 0.5675525957266515
1.9098743258093736 12.709286614996591 62.241470542762514 135.75420409643962 0.5786177577701969
1.924310559700036 12.67645115584492 57.71802003986793 141.62236427349933 0.5901006688635109
1.9381549344875135 12.64189402290829 53.55778171943916 147.78755930446198 0.6020195935098912
1.9513845473840497 12.606174574803081 49.7583017187392 154.26873315896032 0.614409944650017
1.9640061078991984 12.568870044174865 46.26649370987912 161.08636331794517 0.6273037267700445
1.975975013864489 12.530116396263631 43.06540023640734 168.2472971357329 0.6406651707228146
1.9872839062852767 12.489903048469898 40.123279984647475 175.788386851247 0.6545843502264971
1.9979063095113057 12.448091630860674 37.42041303662993 183.7358615783085 0.6691024741884518
2.0078370239790706 12.40478483200656 34.93498723290802 192.11260475851628 0.6842268825466632
2.017047349847216 12.359988248234302 32.648189049749234 200.9366649114836 0.6999700908836345
2.025559190856775 12.313831010594606 30.546051980629166 210.25571183859608 0.7164318884581625
2.0332882365356792 12.265948209747126 28.609969096715528 220.09517007338093 0.7336109988905187
2.040283982520747 12.216589555334544 26.825649817166212 230.48614678174167 0.7515506125724478
2.0464996807053115 12.165840883740476 25.183502241661447 241.48441587893544 0.7703557278308277
2.051943578787498 12.11361083208067 23.66949697441998 253.1063778316641 0.7899747456211759
2.0565792351533942 12.0598149958852 22.271956081786563 265.42819922843256 0.8105820568850012
2.0604118450673554 12.004500794799625 20.981759373117786 278.47026431407943 0.8321326183529035
2.063429997522172 11.947771889606045 19.792781264343095 292.3146327420682 0.8547767074460536
2.065599774560361 11.889557889220967 18.695877266763492 306.9997441438476 0.8785289323972715
2.066965758268787 11.829915211197038 17.682403079259192 322.6029056389356 0.903488071847094
2.0674615313235685 11.768923202933387 16.746936271843417 339.19835408719456 0.9297640931744274
