M[M_sun], R[km], Lambda[1], P_c[MeV/fm^3], rho_c[fm^-3]
0.23841724892012095 16.20908015294055 2780876.1263280716 3.453507347168396 0.169602847481901
0.24842477882390473 15.865926126207766 2281689.4894402 3.6357235524293294 0.17198069202868643
0.2587158353910898 15.562332008732268 1880968.271404515 3.825126186240767 0.174379314947877
0.2692887582804036 15.292952135263667 1557350.8584260389 4.020845518002042 0.17677356962338905
0.2801522051290387 15.053135819657149 1294660.2391570047 4.223170408015471 0.1791544340604266
0.2912951172543415 14.838998902211387 1080388.5482973824 4.4334846099822425 0.18155909847222595
0.3027266993696029 14.647543244643725 904737.8364314525 4.652136251472319 0.1839913842650517
0.31444216708755124 14.475934287787393 760158.2554639478 4.879492996370453 0.18645293498503251
0.3264391672365222 14.322167009020065 640813.4849560644 5.112942729036353 0.18888550679935284
0.3387209949363122 14.184007027193013 541791.4371581983 5.355542073903223 0.19133842026233827
0.35128628705427556 14.059613162967763 459371.6526340425 5.607851774458546 0.1938213597180689
0.36413400873151586 13.947831427240407 390540.1828761486 5.870285235236962 0.19633983747313602
0.37727342640964384 13.847186463854971 332838.98133188364 6.139869854654871 0.19883623790537616
0.3906933882886341 13.75657328371497 284364.6080170834 6.419774804035088 0.20136050767419503
0.4043955795161173 13.674996048758688 243513.66020040412 6.710933257138408 0.2039192302831628
0.418384478108039 13.601683402101834 206414.06740494343 7.013630785427145 0.2065071487637662
0.4326575407797989 13.535700289973857 179761.26793678472 7.3241287082524575 0.2090687365462992
0.44721550988219744 13.476340113431789 154907.00730189434 7.64718820304197 0.2116747561366943
0.4620572148478437 13.423203682652149 133765.47070302573 7.9833438638596235 0.21432516632903129
0.4771845725774286 13.37559647577059 115716.77988582056 8.330933778863507 0.2169864031609771
0.4925876704890815 13.332836871137047 100276.2813551047 8.689387222201178 0.21964102882558129
0.5082783171017399 13.2948584858926 87048.17810502522 9.062464007224456 0.22234395782573604
0.5242468359765393 13.261037335626288 75691.61872744298 9.450771118285651 0.22509784985280842
0.5405010651400806 13.231097944579675 65920.61075580619 9.84926084133888 0.2278304234117557
0.557025931822109 13.204620057986178 57499.34819254467 10.263384965294915 0.2306048693194198
0.5738317093102364 13.181327634300434 50225.955736453245 10.694461357320293 0.23342983998921116
0.5909153520662217 13.160925984005253 43934.63162289937 11.13996011799972 0.23626429456721298
0.6082694467453267 13.14339775806712 38489.454584394014 11.599820432441845 0.23911115736172772
0.6258922601388823 13.128080071218587 33758.57308426742 12.078559773891945 0.24201738079480972
0.6437866133460666 13.115155025033866 29651.46219978241 12.57640359854583 0.24497758380680518
0.6619486841888752 13.104202099066775 26075.488354455912 13.087253806675841 0.2479107933378998
0.6803675632297026 13.09508265337917 22958.405525348273 13.619100737431033 0.2509026379036426
0.6990374676239397 13.087630997692557 20239.183533515457 14.172853773140417 0.2539551437354377
0.7179797872275901 13.081799388581553 17862.115221938126 14.743165815016265 0.25701054330793616
0.737169261203455 13.077351170446745 15782.059265114622 15.334338288972626 0.260107757155081
0.7565990843137547 13.074132642428413 13959.481504266432 15.949816648869804 0.2632706393135634
0.7762712125234974 13.072033930909942 12360.952517786907 16.587466166738146 0.26646624116711304
0.7961783865283003 13.070964912716189 10957.113824414511 17.244881090638387 0.2696679934293316
0.816333825311561 13.070804573556268 9721.557709216642 17.92940503983456 0.272941990173677
0.8366975120895402 13.071372063939865 8635.29021901103 18.642073692526285 0.27628962003920454
0.8572812783252008 13.072658366274746 7677.4422809121415 19.374294118149653 0.2796292315871159
0.8780870870269933 13.07458896033222 6832.466070490602 20.136026433831873 0.2830341606059132
0.8990938119572868 13.076960208475985 6086.050871834247 20.92911851932684 0.28651202314212504
0.9203030058199508 13.07982790880628 5426.478201831999 21.74935771963679 0.2900217001844816
0.9416940222123621 13.083013646296743 4842.808039146423 22.597698939833908 0.2935695157633404
0.963269758561215 13.086492276399447 4325.898017561635 23.480946880736102 0.297200900412205
0.9850297221649127 13.090069715911124 3867.141735402329 24.400416995044736 0.3009161803600925
1.0069546372349847 13.093965697514632 3460.444316336852 25.346504807015197 0.3046238091256606
1.029018937361654 13.09770879893521 3098.831816632058 26.331029847229072 0.3084144832015412
1.0512523101780469 13.101708184921389 2777.6776512818656 27.35601695144361 0.3122939323967572
1.0736080751235044 13.10546420808562 2491.881599537755 28.419426505325745 0.31624027674534133
1.0960723333585294 13.109126711515065 2237.220675038587 29.518068230132453 0.32022452646606775
1.1186784399760943 13.112722268805681 2010.2726763390058 30.66186323908424 0.32429738934825136
1.1413678168452568 13.115969128414621 1807.8548054810872 31.852671957363583 0.3284610263499537
1.1641626651309356 13.119077639262498 1627.0915613926197 33.08683215853706 0.3326882712015225
1.1870173573783624 13.12168670673167 1465.5803134718903 34.36499732208154 0.3369774503324832
1.2099443962635237 13.124004535605373 1321.1025530201086 35.69583622363486 0.3413726664168005
1.2329221171940892 13.125804197164817 1191.7670550043317 37.08137540515198 0.34587196375424906
1.255939956057378 13.127287311122641 1076.0944120353445 38.520221018091455 0.35044693579097314
1.2789707479306054 13.128162353015217 972.2734923463603 40.01001420681432 0.3550878255956713
1.3020256462956836 13.128564081993998 879.2587938205883 41.561494733442636 0.3598463888222888
1.325058014008086 13.128257430537 795.6692351972864 43.17713777088512 0.3647247185547407
1.3480789583744384 13.12735923890756 720.6097198931872 44.85954374042946 0.3697238286366363
1.371058803995797 13.125775070676264 653.1124229691632 46.60375037926258 0.3747927917144812
1.393995035976453 13.12352987314622 592.4249816085963 48.41724727749081 0.3799762864789811
1.4168422137611716 13.120433848429235 537.7627325191298 50.30652615554387 0.38529575968898305
1.4396195076503457 13.116611886277664 488.5224525286906 52.274802192328124 0.3907539090375397
1.4622824737606142 13.11193224642585 444.1268696077656 54.325478886925545 0.39635166138250705
1.4848296017649283 13.106408786020268 404.069190992314 56.46039533466865 0.4020760221393221
1.507233810524886 13.09996158188118 367.91969985844185 58.677762060250956 0.40791917109837855
1.5294749109836208 13.092615311827032 335.27756053351607 60.98948158588179 0.41392389665840607
1.5515297830021773 13.084214812160424 305.7345438113874 63.39983901087869 0.42009306170418614
1.5734339517077052 13.075077792049433 279.0250374402581 65.91338208110862 0.426427135720471
1.595069537686608 13.064609497344787 254.8517123492134 68.53501763376005 0.4329333578415986
1.616483494287738 13.05317481827426 232.9478205334243 71.26985130768406 0.4396257971479617
1.637670292890348 13.040742498960153 213.0849246913394 74.12336732548886 0.4465112416324095
1.6585635158446739 13.0271790741631 195.09910836423552 77.10143388107655 0.4535930179238381
1.679179411213972 13.012517555963054 178.75111894985113 80.207272722151 0.46086121390501467
1.6994765530270586 12.996617997252107 163.89544312693795 83.44984083956123 0.46834681337772793
1.7194189338485801 12.979516838325143 150.42061185718273 86.83773304224525 0.4760658178230342
1.739021501591239 12.961083314037099 138.14202855902184 90.37853905815125 0.4840225086873146
1.7582660914867634 12.941649366396904 126.98469198596462 94.0803849798663 0.4922249824720011
1.7770935382201458 12.920831540391905 116.82093237055544 97.95201662603856 0.500693606000804
1.795519100807761 12.898664876277445 107.55479942497651 102.00276965172006 0.5094436504079668
1.8135250793885935 12.875400271401933 99.11595504597923 106.24261986087166 0.5184816826769504
1.8310509684535703 12.850560524346625 91.41146708646339 110.68228266848496 0.5278213660810711
1.8481221188649228 12.824458008857412 84.36765424965378 115.33328911261744 0.5374873101784691
1.864714273520969 12.79716480504716 77.95833421528025 120.18028639952303 0.5473991785120396
1.8770731892707924 12.77199462209913 73.22863269253041 126.0175299514286 2.164899620691179
