M[M_sun], R[km], Lambda[1], P_c[MeV/fm^3], rho_c[fm^-3]
0.23841724892012095 16.20908015294055 2780876.1263280716 3.453507347168396 0.169602847481901
0.24842163212813717 15.866042004516459 2281770.8867945503 3.635687775929335 0.17198023693807574
0.2587105790504279 15.562500557895302 1881160.7941121894 3.8250525900226973 0.1743784146377869
0.2692836513313825 15.293075421842916 1557557.8850840635 4.020726941583822 0.1767721190658934
0.2801437346175533 15.053271033807594 1294862.572285378 4.2230080217049135 0.17915253520446128
0.29128142861705053 14.839205779534659 1080614.3605786506 4.433276170760492 0.18155675310997088
0.3027123835490952 14.647730488102768 904910.9211354194 4.6518793981901485 0.18398860240951329
0.31442334592949744 14.47623184554253 760417.9799211285 4.879185271679629 0.18644972846000923
0.32641847880126384 14.322468221396266 641007.9697049864 5.112566172320394 0.1888815830370796
0.3386993552058203 14.184151435469666 541935.847670716 5.355107523273296 0.19133408426747686
0.35126229830513017 14.059922695365941 459515.44869764306 5.607356502573965 0.1938165996380518
0.3641057698521497 13.94810457167771 390699.12241260073 5.869726315746243 0.19633466178150633
0.377242955765221 13.847481154780263 332977.0057625487 6.139218199881581 0.19883020346891153
0.3906590966346293 13.756751863992665 284482.8551697984 6.419051086711906 0.2013540572375529
0.4043582288817754 13.675239078141033 240489.26151387917 6.710134229691101 0.2039123989822629
0.4183414329553282 13.601823987359957 206502.98279982375 7.012716536150174 0.20649933237156398
0.4326136492340974 13.535819547031668 179827.9398999002 7.323129662055309 0.2090605010925273
0.4471649139660312 13.476540332255333 154986.5650818254 7.646100442681914 0.21166610788676202
0.46200742278267254 13.42341916413699 133830.25076425917 7.9821633190787 0.2143161277778043
0.47712858466692704 13.375751916925132 115773.11747847668 8.329605001994661 0.21697622970716796
0.49252678183414217 13.332965477402263 100330.04516895559 8.687954421887673 0.21963048743638433
0.5082142131246562 13.294930010957913 87093.08733616966 9.060922528524427 0.22233301078265796
0.5241820361008488 13.261239466756097 75736.8433224161 9.44911587723534 0.22508649932689495
0.5404230494176269 13.231145961486362 65961.59613001515 9.847418023634718 0.2278177866117555
0.556941961414568 13.204668556917975 57535.28076826965 10.261414729791325 0.23059184959443166
0.573747975160115 13.181418499387478 50259.88395803556 10.692358028887188 0.23341645770976968
0.5908266726662762 13.161038826865303 43964.68021687892 11.137631787378629 0.23624948072715204
0.6081722401797587 13.143340045715505 38512.64009828088 11.597343287700443 0.23909592412730987
0.6257973154550087 13.128186320096143 33782.71681627407 12.075926738535268 0.24200172464159955
0.6436823424297515 13.115117631982267 29670.057443561498 12.573502133218568 0.24496033155624863
0.6618377023500321 13.10415814292603 26093.59011590272 13.084178082260669 0.24789315190307956
0.680260143791222 13.095216862327938 22977.29928534092 13.61584281439457 0.25088460759305664
0.6989177330654271 13.087621800113025 20254.732907477646 14.169405003512804 0.25393666723753455
0.7178579193037203 13.081808678387304 17875.7828117842 14.739385387420619 0.25699028997991313
0.7370417202728433 13.077335632703791 15793.880240693317 15.330344243412055 0.26008703402079747
0.7564657338640531 13.074121311590467 13970.540482567225 15.945598719351656 0.2632495010189225
0.7761355863832341 13.072057786923862 12371.28356273373 16.5828557798146 0.2664431360590786
0.7960465702767415 13.07099587995514 10965.801832714258 17.24002063613879 0.26964443434762825
0.8161782767924627 13.070758536200394 9730.491175821968 17.924282138822406 0.27291790911781216
0.8365424728208212 13.071377344994621 8642.757479089 18.636674934576682 0.27626499664198434
0.8571226499943092 13.072665671901257 7684.334806619239 19.368413810297376 0.27960241187091905
0.8779133708800372 13.074491562879063 6838.44402910139 20.129837393521562 0.28300685081448257
0.898920131150586 13.076889694028067 6091.57100740241 20.922605415701895 0.28648415457615267
0.9201262412629333 13.07980797531712 5431.776601605407 21.742276929745337 0.2899914025765224
0.9415087929057647 13.082927083430805 4847.600782705776 22.590254784688536 0.2935385626958971
0.9630845843020772 13.086401784834539 4329.991678658874 23.47312004639182 0.29716925794483845
0.9848410561057903 13.090140397124413 3849.853070053218 24.39218763568312 0.3008839302781178
1.0067536355626403 13.093957627194406 3463.957852451147 25.337579856129036 0.3045888330862083
1.028822281406264 13.097794764351743 3102.1664364259896 26.315210146022235 0.3083355712247221
1.0510355575627455 13.10160055877431 2780.4970140225046 27.336551085256154 0.312195998005848
1.0702779004430092 13.103717663644884 2530.1979487119256 28.551324250993964 0.9026677531563947
1.0622792809713262 13.084768126807367 2598.2310693397353 30.967840228428305 2.5580900147385064
1.0448354785517961 13.053661872078429 2775.048116496207 34.53866237716233 4.275695928506605
1.0210936795116934 13.009905569741187 3037.1449680266664 40.008738461917 4.740269838925771
0.9927337232253807 12.95036551412164 3375.088840614677 45.97003774439225 4.935054299148698
0.9613626500950776 12.873582275356721 3778.1925290284908 52.3310229720259 4.972789755070298
0.9288877285223709 12.781368369968796 4227.524956877525 58.93976790502476 4.994397280384715
0.8963340523031635 12.67485364171848 4708.299837335425 65.56387011867533 5.014612464199806
0.8643015830738167 12.553992209257418 5202.825020751661 72.42826440487565 5.035502412543553
0.8332012087213058 12.419217322439764 5693.935736627708 79.55406902126511 5.05712804677084
0.803404774538703 12.270180293717901 6154.894211020361 86.93312152854205 5.079457876813159
0.7752739875944202 12.107227832571098 6557.054121691066 94.49760707172503 5.102272339825098
0.7489761636417578 11.930277025786681 6871.775740400302 102.21858726644366 5.12547326619089
0.7248030509392742 11.739838888460476 7068.492633464266 110.21911352047734 5.149440574932288
0.7030045321203097 11.53715635962545 7123.830990039833 118.49860915161469 5.174165142572788
0.6837394566084959 11.323583040536336 7025.293096812756 127.05880286398215 5.199644628215921
0.6670413849999478 11.100462084965907 6772.504211515427 135.88752626321934 5.2258324632886035
0.6529669030011367 10.87001528968891 6384.630912070923 144.9079168213942 5.252477790971695
0.6415081545500754 10.634589888971053 5886.751005103698 154.24136615794458 5.2799532842956225
0.632689499606636 10.397390823655657 5312.080558495777 163.89362520350727 5.308267304230115
0.626352908346942 10.160583709733784 4700.959881184468 173.87183979458243 5.337432004946818
0.6223719229815584 9.92673905121206 4086.0423260657058 184.18457558398046 5.367463382580362
0.6206747094351827 9.699083242641931 3498.4548763639195 194.84163673380442 5.398380112520312
0.6210331020635599 9.478825893315522 2957.0073475869362 205.8518922207634 5.430194131241171
0.623270337150891 9.26753087725321 2473.9243618421974 217.17274722548592 5.462746600850899
0.6272241801571905 9.06637246274016 2053.0539669211753 228.88392788637282 5.496288504152523
0.6327267523985077 8.87649005966473 1695.2968976706077 240.99883425128954 5.530847353752788
0.6396097329348261 8.697909496348743 1394.6723041286307 253.53213339870783 5.566453669257264
0.6476983892651961 8.530593959965985 1145.5223225810664 266.4995163949475 5.603123371357771
0.6568609287151864 8.374659261097559 941.1541792237788 279.91851309651906 5.640897994063702
0.6669558253097202 8.229301376853646 774.0440381151819 293.8076002186791 5.6798264687848805
0.6778672394807761 8.09431166658131 637.8603256095358 308.1865299273262 5.719940775492624
0.6894821874172282 7.969136413704451 527.3167537475672 323.0767079703099 5.761279283777523
0.7016868862671889 7.852930002811397 437.60135747718425 338.50103376024475 5.803901227987698
0.7143955461983517 7.745254885936055 364.5755664307372 354.48375071795635 5.847846907080424
0.7275313109740839 7.645435717586113 305.12194015598516 371.05116203072265 5.893169985509732
0.7410050702897665 7.552919743280829 256.56874496567895 388.2309715802712 5.939936424262795
0.7547684026436104 7.46669511223101 216.62085767377272 406.05292112906926 5.988194447331627
0.7687271102997325 7.386761192369861 183.88896256551533 424.5490760412675 6.038027429987463
0.7828572305411038 7.312406948719139 156.7719760935485 443.7530753798516 6.0894762749673
0.7971094468032189 7.2428292770803235 134.26556496752085 463.65985005637214 6.142519678305848
0.8113999302198293 7.177928071123788 115.49721741046557 484.32665968281816 6.197256079302062
0.8257186184764289 7.117193339710717 99.770494332378 505.8104114217704 6.2538514721404965
0.8400154670582571 7.06025817193433 86.57703839240381 528.1555087463614 6.312377979143783
0.8542624970214671 7.00655784766897 75.39892143620698 551.4087599746543 6.372935705261101
0.8683964051231623 6.956226684470747 65.8366871233055 575.5920045688491 6.435538607077082
0.8824220524687676 6.908472327985289 57.87328914814604 600.7154356549922 6.500151001745845
0.8962950397091223 6.8632156494090255 50.89820832504165 626.900957894882 6.567097926062756
0.9100045581002887 6.820175697799985 45.03547010767323 654.209855414911 6.636496382486034
0.923498558211513 6.779338493524324 39.94458639637867 682.6101622069557 6.708170348393396
0.9367718221351496 6.740147096193889 35.471331765708086 712.2367042493471 6.782465888382961
0.949789280967225 6.70271626869649 31.68990703627723 743.1814511295712 6.859580669174565
0.9625442846891402 6.666667557490439 28.352484613500312 775.3961560716368 6.93927075770015
0.9750175662210707 6.631908083511226 25.40942897076732 809.0937337385666 7.022099268838845
0.9871895085671196 6.5982122064744315 22.876002185214123 844.246208003964 7.107874648103851
0.9990283358357025 6.56563749894966 20.6080858913673 881.0257167439408 7.197018568850572
1.0105267538379712 6.533971968141576 18.63755159126957 919.4436665919122 7.289424627648503
1.0216849372997647 6.5030715604841145 16.890717934025595 959.6948430051066 7.385595865022652
1.032469118856872 6.472749079827711 15.361003588033727 1001.7580603997063 7.485285169278142
1.0428754279937893 6.443047707899429 13.973193366853446 1045.861218317587 7.589058107077716
1.0528810029133204 6.413786520218804 12.762196882357218 1092.0896996496738 7.697015678603828
1.0624917120848063 6.384956860676064 11.67035552226661 1140.5291593542343 7.809224738449804
1.0716860312840457 6.356452129566929 10.693895554584138 1191.3805648250484 7.926121666194779
1.0804415525372975 6.328141880951698 9.815055059361 1244.7869230013628 8.047924410634998
1.0887871076006963 6.300056224403521 9.035244319826882 1300.9047261152991 8.174880010085342
1.0966728252590174 6.272103801121129 8.331875439700214 1359.8842616125337 8.30719286521351
1.1041036227756633 6.244205709531895 7.691877596761682 1421.9379929607348 8.445246850127136
1.1110702046192502 6.21633033363769 7.12415942473142 1487.279083540296 8.589399380276266
1.1175685068649046 6.188427359442692 6.606652101909892 1556.1308001706452 8.740009243997303
1.1235808007117454 6.160434403548797 6.137896766683467 1628.7367831195634 8.897466034425356
1.129115784948637 6.1323900691111355 5.710502588655449 1705.3608612491687 9.06218315336465
1.1341632980235221 6.104075731276982 5.324199275298812 1786.2617088423233 9.234521500611292
1.1387247863944403 6.075642031110301 4.973604602594772 1871.781203695618 9.415080754351521
1.1427748865351168 6.047036765648139 4.655159916436766 1962.2667591554969 9.604410625403744
1.1463112998714988 6.0181622814530975 4.368877437604111 2058.097983010019 9.80311703691711
