M[M_sun], R[km], Lambda[1], P_c[MeV/fm^3], rho_c[fm^-3]
0.23841724892012095 16.20908015294055 2780876.1263280716 3.453507347168396 0.169602847481901
0.2484155704048615 15.86621323650269 2281899.9549797946 3.635567503859787 0.17197870703186385
0.25869408129917254 15.563030525993142 1881718.2818366054 3.824805184415162 0.17437538809959438
0.26926233224812984 15.293604614813908 1558149.7219293816 4.02032834031908 0.17676724293570645
0.28011439568118923 15.05390565387183 1295491.7208083076 4.2224621667157844 0.17914615227723818
0.2912442755226155 14.83987840423993 1081293.4701086173 4.432575530299489 0.18154886948961474
0.3026677121457321 14.648395231123706 905544.0069683745 4.65101604372674 0.1839792518286083
0.3143703536300444 14.477000183372827 761013.3917086746 4.878150951644395 0.18643895073181926
0.32635657132255186 14.323169849794347 641537.1919326904 5.111300535853361 0.18886839496630425
0.33862613791838975 14.184896858607562 542465.3135020279 5.353647002018384 0.19131951102279565
0.35117748836785484 14.060690144276585 459991.76208165375 5.60569193899773 0.19380060144380112
0.36401282349948927 13.948863207200219 391143.7276795327 5.867847883867764 0.19631726717582185
0.37713887110819877 13.848162441417115 333372.67795621156 6.1370281730147695 0.19880992343947687
0.39054282726281697 13.757544503674954 284861.56754511554 6.416618935379116 0.20133237966044693
0.40422999699323087 13.675936397193922 243967.97074736672 6.707449050084399 0.20388944198632308
0.41820442948611897 13.602488210695068 206805.93853826777 7.0096442505334995 0.2064730658051667
0.43246368949890324 13.536549947428206 180127.75385103936 7.319772496069163 0.20903282691153108
0.44700193140873923 13.477191277571336 155246.9643485099 7.6424452442832305 0.21163704719429274
0.4618279413357866 13.423938773129484 134059.17130473698 7.978196422573689 0.2142857562088031
0.4769340969135465 13.376202846221256 115983.28881137165 8.325140166437038 0.21694204579008167
0.4923246752980261 13.333592406752237 100521.6080847552 8.683140156987875 0.21959506795780967
0.5079926473166728 13.295485423501676 87272.12889303523 9.055743206338564 0.22229622904634017
0.5239443556511729 13.261644209649766 75891.32569757193 9.443554429252982 0.2250483626703468
0.5401804708005908 13.231550697879802 66093.34668993134 9.84122655475971 0.2277753296971599
0.5566853834506156 13.205091956124463 57656.156161825966 10.254795295671164 0.23054810700037903
0.5734711600915349 13.18176529100569 50370.41323632791 10.685291577570068 0.23337149790953254
0.5905378124037411 13.16135308127281 44063.986575455245 11.129809689220178 0.23619971317695507
0.6078623159165821 13.143682547666197 38604.769597398685 11.589021402781 0.2390447485857044
0.6254676512850466 13.1284422558351 33865.14653828663 12.06708131119334 0.2419491293107683
0.6433425543902418 13.115445069601884 29746.200943533313 12.563755301112478 0.24490237642990367
0.6614719080727188 13.104506437636926 26161.27284518632 13.073846057170993 0.24783389049907287
0.6798757617860112 13.095276838774268 23033.802677899905 13.604898945338565 0.25082404098178834
0.6985219364055115 13.087760406551416 20156.07217109803 14.15782026153943 0.2538746029410197
0.7174429191685421 13.081908951677814 17924.128150678178 14.726687053946595 0.2569222597090804
0.7366137258986528 13.077452825075 15837.72452254432 15.316928615617371 0.26001742693893753
0.7560190759377159 13.0741656801668 14009.870580400066 15.93143133933455 0.2631785007208372
0.7756648606007612 13.072019519259523 12406.231917411098 16.5673707932203 0.2663655325316293
0.7955540146512079 13.07090735131861 10997.812241594518 17.223696032087293 0.2695653074510271
0.8156755828614908 13.070773272676812 9759.086491758591 17.90707637010048 0.27283703051469116
0.8360197209481673 13.07136762142221 8669.418273773923 18.618319748235177 0.27618034936503133
0.8565774200452272 13.072591690255592 7708.065532888635 19.34866534437795 0.2795123403534769
0.8773610825925073 13.074531882049394 6860.489688199273 20.109052443711384 0.28291513503695453
0.8983378534318247 13.076829125417218 6111.154315867355 20.900732532320454 0.28639056388135903
0.9195252829831706 13.07974342772659 5449.142935077189 21.718498555013785 0.28988965857810295
0.940896323485403 13.082905192564931 4863.402631430375 22.565256613612846 0.2934346193927078
0.9624464195535087 13.086270202981378 4344.226407995945 23.446837267760433 0.2970630014522946
0.9841837767327283 13.090003967889476 3883.964210159926 24.36390810893029 0.3007705520261372
1.0060763706851266 13.093761094289118 3475.693178716961 25.307611342510526 0.30447138931222933
1.0281200641685329 13.097634366911162 3112.82765637265 26.29016932767895 0.3082587865414779
1.050328624342127 13.101568569070073 2790.2780187311896 27.313082737239014 0.3121346022562966
1.0726457655001789 13.105288951198697 2503.3438187862257 28.37292099264002 0.31606769341044905
1.095105039255238 13.109010430217335 2247.659048399562 29.469228418891483 0.3200479095953314
1.1176637379979557 13.112501192315026 2019.7320179104222 30.610563218411 0.3241171737471684
1.140346240021419 13.115826326377844 1816.4319366485413 31.798778203944806 0.32827642949497926
1.1631031903391427 13.1188191035286 1634.9173127009813 33.028550804857424 0.3324886459405147
1.1859483309715213 13.121532111329847 1472.6812500011897 34.30379069558326 0.33677280560719897
1.2088471030351609 13.123897134405604 1327.675733346639 35.63153683327695 0.34116268930812904
1.2318103990049902 13.125789967290746 1197.7655888060315 37.01381006792384 0.34565713213806265
1.254808612872958 13.127286482925117 1081.5448933910538 38.447246138835645 0.3502149039253051
1.2778304425609555 13.128200749980898 977.233128125721 39.93335212541864 0.35484951269035625
1.3008401129232916 13.128494220726123 880.0174554951511 41.480929027021574 0.3596013509783303
1.3238652858568494 13.1283023085316 799.8119695479376 43.09243784672117 0.3644725721743275
1.3468737817227738 13.127452224054972 724.3380801981691 44.77046945035731 0.3694649635013315
1.3698314199278516 13.125878523140463 656.5083703906638 46.50767108207088 0.3745135688293213
1.3927586741463314 13.123681046936811 595.5324406719839 48.31621209905025 0.3796885162003862
1.4155766859292014 13.120547783064094 540.6077703741315 50.20023455093103 0.38499889713696556
1.4383444920616026 13.116853102886223 491.1547972237163 52.16293437746586 0.3904475153448017
1.4609927320313636 13.112249336074736 446.56168307511894 54.20769901179591 0.39603585769105704
1.4835351404248058 13.106786966101337 406.2928886948374 56.3334527948009 0.40173565055505817
1.5059180328215 13.10033642467136 369.9466723726139 58.54409620128766 0.40756717107190243
1.5281580436844315 13.093083310367277 337.1191097539479 60.848671829094926 0.4135595253765517
1.5502259739402813 13.08488685654327 307.43573744336004 63.251437381166085 0.41971578408516924
1.5720807911271608 13.075607881022222 280.5986986435319 65.75691479046363 0.4260367210680487
1.593735699713762 13.065271410701705 256.27791516272015 68.36997564845439 0.43252811077108844
1.6151638390066836 13.054014994570789 234.26316191904323 71.09568401109024 0.43920477331583035
1.6363370980269483 13.041650168021741 214.312526590163 73.93948726602434 0.44607380215853176
1.6572336429997379 13.028165167847629 196.21226714862007 76.90484567137072 0.4531282093871958
1.6778409439579707 13.013437985457763 179.76249525312198 79.99811346932097 0.46037174535283465
1.6981285711162872 12.997632353551115 164.8363662510591 83.22883918303884 0.46783698575894545
1.7180772014667824 12.98058867929269 151.28130197578602 86.60410266848282 0.4755343142654046
1.7376878132971576 12.96236273310585 138.93348543935477 90.13143887665989 0.483468454981458
1.7569575349626052 12.94302534108787 127.71438382994802 93.81891567795861 0.4916471249221112
1.7758152667297284 12.92235229630444 117.49263391684363 97.67520773391477 0.5000896244099299
1.7942415204083506 12.900249799081033 108.17767725447811 101.7095724637586 0.5088118303828445
1.8122586044335731 12.87714509774668 99.69458695290658 105.93190959936004 0.5178208816962268
1.8298289333166373 12.852560079895948 91.94748049435684 110.35285156473932 0.5271296375012459
1.846906056052301 12.826529761754184 84.86934527603998 114.98383113031188 0.5367619035036943
1.8634938662954772 12.799173911314133 78.40997090641049 119.83711757550488 0.5467373119735986
1.8795673809076359 12.770451296633297 72.50922709810138 124.92289600188545 0.5570531336708179
1.895106706434347 12.740244386032515 67.10557526023106 130.25370196924382 0.5677276752449868
1.9101173746202527 12.70879793370497 62.1654313009635 135.84800539748267 0.5788020501720096
1.9245425855098681 12.675855278472591 57.64271185744908 141.7221574758893 0.5902945825901051
1.9383772214552855 12.641360960226883 53.493965510401935 147.89378343336205 0.60222392403001
1.951608142522729 12.60556170874554 49.69832910297836 154.38186483209233 0.6146255237020302
1.9642231248607671 12.568238572232865 46.20988899297164 161.2060089029386 0.6275281371923739
1.976168899919531 12.52939949110118 43.01141020743218 168.3743802272596 0.6409005237860921
1.9874672977574752 12.489101707605332 40.07391494058827 175.92399513489426 0.6548333355378939
1.9980862217192785 12.447246521591738 37.372245602550926 183.88065150786073 0.6693660804127385
2.008000750105176 12.403987137846913 34.892404060822486 192.26573536199703 0.6845007573985327
2.017210426045398 12.359140469327679 32.6078402141081 201.10038817250154 0.700260587801172
2.025707510530471 12.312978327477834 30.510039980391497 210.4308678407946 0.716740249215417
2.0334263002975623 12.265088445132742 28.577126528098756 220.28099516305156 0.7339327815827956
2.0404019553303168 12.215747402754326 26.79630273387053 230.68522721142273 0.7518928004394144
2.0466228633163026 12.164980018223856 25.154589860207476 241.69609753423777 0.7707139068785872
2.0520418719995486 12.112575892147033 23.640979964848174 253.33348341170813 0.7903563149526824
2.0566465306516526 12.058681159476176 22.24649761198598 265.6708396290248 0.8109850507075634
2.060478319877722 12.003377213862718 20.956784761490514 278.73028459997397 0.8325600843780815
2.063468314672178 11.946629195114099 19.77034556041968 292.59230109388363 0.8552271644580346
2.065642073724066 11.888415991082956 18.675132980603344 307.2985334759703 0.8790103702292942
2.0669698782569172 11.828731575358983 17.663533172397912 322.91637811780305 0.9039830670232843
