M[M_sun], R[km], Lambda[1], P_c[MeV/fm^3], rho_c[fm^-3]
0.23841724892012095 16.20908015294055 2780876.1263280716 3.453507347168396 0.169602847481901
0.24840436221111825 15.866602942009653 2282583.8095934833 3.6353845650902437 0.17197637998152734
0.2586730694084615 15.563625656547288 1882406.7124904776 3.8244288920042457 0.1743707848759062
0.2692298771376728 15.294281785921957 1559009.7115645136 4.019722123502093 0.17675982702315768
0.2800715747890683 15.054741044471225 1296346.1709752933 4.221632043897179 0.1791364452787809
0.29119112319560564 14.840882328946657 1082197.0733841679 4.4315100712222915 0.1815368809229573
0.302597877622113 14.64955921093912 906511.5479114365 4.649703215621249 0.1839650332128079
0.3142875260688873 14.478121727700167 761937.2266507946 4.8765405077443615 0.1864217998621578
0.3262573018607589 14.324354430349167 642410.9659694029 5.109376211459431 0.1888483432950994
0.338515343251785 14.186115646948704 543262.3517172406 5.351426477094255 0.19129735437637146
0.3510497266114745 14.061834047181755 460737.156531338 5.603161317437299 0.19377627952790874
0.3638738944082072 13.949951575807523 391786.98749761184 5.864992254536853 0.19629082355188146
0.3769787414907456 13.849318121392779 334006.94575011544 6.1336990642796945 0.1987790953139586
0.3903701616244276 13.758726468288058 285438.58499243803 6.412921937123006 0.20129942860033934
0.404035856807615 13.677051823847432 244506.78753100868 6.70336761778659 0.2038545477004974
0.41799337170663403 13.603586057127895 207279.21314650273 7.00497472961323 0.20643314364407922
0.43223047694713396 13.537469179282773 180552.4548157586 7.314670211552601 0.2089907671665592
0.4467542331022794 13.478126190799124 155630.98291188935 7.63689024092678 0.2115928820829637
0.46155957571448153 13.424827693809378 134408.2348024914 7.97216796605961 0.21423960081181792
0.47664266850699516 13.377074114594903 116297.9891821301 8.318355451575586 0.21689010028676248
0.4920154617474513 13.334384139981713 100804.05948229658 8.675824750694506 0.21954124709795547
0.5076650955877664 13.296299065137868 87528.07115933225 9.047873399410578 0.2222403404275384
0.5235968109893785 13.262400297154679 76121.55597223353 9.435088361623322 0.2249902057819835
0.5398023245736052 13.23222399022432 66304.12666412139 9.8318198380053 0.2277108247827479
0.5562885989854917 13.205691621974228 57846.5245633474 10.24473875663668 0.2304816513039291
0.5730481304881005 13.18226601640461 50538.67471844829 10.674556315563697 0.23330319555894102
0.5900871181756766 13.161883975542496 44217.597272697516 11.117927290879726 0.23612411225199992
0.6073981431368021 13.144083466601403 38739.37825254285 11.576380256650953 0.23896701169003942
0.6249749311076932 13.12885123922377 33988.41421028813 12.053645383697704 0.24186923864813092
0.642820041327192 13.1157013479323 29859.36970177827 12.54895122923364 0.24481435071582358
0.6609285987306133 13.104738700190804 26261.791090820683 13.058153725352915 0.24774388397976935
0.6793071839087107 13.095543702410774 23124.621772856408 13.58827793380096 0.2507320553833192
0.697925031673434 13.087982341048868 20389.302435029986 14.140226544204593 0.2537803460562331
0.7168193721967944 13.082136126106121 17996.9638804711 14.707403540456461 0.25681894988121806
0.7359526674782352 13.077544219192232 15903.958817780907 15.296556541031286 0.25991172628257825
0.7553348541806096 13.074305477735082 14069.881677131685 15.909918450724621 0.26307068816113055
0.7749546063889793 13.072134921687873 12461.178275339213 16.543858907767323 0.2662477019324858
0.7948189192334189 13.070982735319722 11047.080427344108 17.198910151236653 0.2694451679471806
0.8149101251614148 13.070713585713415 9803.472865497086 17.880953498748294 0.27271423557430685
0.8352250402539645 13.071302174004966 8708.941411189233 18.589837601129414 0.27604646425306506
0.8557532572586349 13.072537282290613 7744.151522922194 19.31868531834749 0.27937560333053363
0.8765092680551492 13.074363639469471 6892.451142598082 20.077500014573317 0.28277590662419794
0.897456209578092 13.076794101477343 6141.096990060859 20.867529705307938 0.28624849410505093
0.9186125399435999 13.079618361850379 5476.092760350276 21.682406049382273 0.28973522431262505
0.939951169755684 13.082775098486898 4887.673926028882 22.527313910368182 0.29327685225465433
0.961472103263645 13.08614118204812 4366.33221308539 23.40694613312421 0.2969017288521069
0.9831709566272817 13.089839102791169 3904.3502265197894 24.320613046139112 0.3005955179636745
1.0050481270545992 13.093628712378607 3493.640621187849 25.262131360712306 0.30429315755970165
1.0270669451384074 13.097478690321488 3129.171546613031 26.242391027229615 0.3080767300751049
1.0492334863530923 13.101332545604063 2805.276864723139 27.2628816253251 0.3119483044432189
1.0715299230007398 13.105139226286722 2516.798354235953 28.31854915765371 0.31586591792052887
1.0939543421518088 13.108789354773556 2259.8717988894573 29.412129709402045 0.3198414265001501
1.1164886137791747 13.112301976678754 2031.0270677365634 30.550590676392034 0.32390649181046394
1.1391536121471113 13.115755922144377 1826.6485288235144 31.735775994938873 0.3280606343628687
1.161888331861408 13.118788640165228 1644.1723710818255 32.96042596384716 0.3322553047720418
1.1846863224403508 13.12142495606908 1481.169049334583 34.23224946602856 0.3365336070741916
1.2075702492000273 13.12378448798813 1335.3315322378676 35.55638378523432 0.3409172683228289
1.2304952584516737 13.125658203132263 1204.7883387740007 36.93484314240097 0.3454060478849334
1.2534645311502315 13.127149328432075 1087.8850610076386 38.36196522792327 0.3499437436429358
1.2764681450131086 13.128117600794655 983.042169705454 39.84376611660548 0.3545710242688685
1.2994622545140102 13.128456986601137 889.0239513055325 41.38678547733025 0.35931501658788384
1.3224658453863702 13.128339043281704 804.638306404826 42.993467805044205 0.36417794454597346
1.3454530708034935 13.12754575974209 728.7931143122906 44.664788709350134 0.36915336241900454
1.368388036124273 13.126024495664675 660.591982798145 46.39542116246483 0.37418735134722597
1.3912774399283239 13.123803817076572 599.257963253551 48.19817777793085 0.3793523286467385
1.4141193030756272 13.120885978085518 544.0275071465143 50.07606541283888 0.38465210429899765
1.4368390133723048 13.11709930516214 494.2678798739182 52.03225760585046 0.3900896059795422
1.459487688975975 13.112541617254537 449.3496513900559 54.07012309038065 0.39566697477460155
1.482003890046787 13.107144669368843 408.8884585838303 56.18519008432257 0.40133811310460743
1.5043869633022835 13.100849815616227 372.32573643926605 58.38798912082927 0.40715607360183304
1.5266089315251408 13.093611970620318 339.2986946750027 60.68423024253733 0.41313400236556563
1.5486505632920258 13.085399840044222 309.4444963870572 63.078139271976134 0.4192752127912964
1.5705242532072197 13.076248305451163 282.4170714336143 65.5742081113359 0.42558083431796284
1.5921611045814443 13.066128550736527 257.9859966207428 68.17726733981799 0.43205493131076367
1.6135769646920355 13.05488816409259 235.8224651628653 70.89233263040909 0.43871320125128116
1.6347535921379346 13.042517546729169 215.7221887149352 73.72333788121551 0.4455567402094478
1.6556489644084298 13.02919183892947 197.51584925922137 76.67365691224732 0.4525782253951746
1.6762627339179266 13.014568708656098 180.96448744535823 79.75396490682706 0.45980039581039855
1.6965601367711087 12.998937571184676 165.95976875606897 82.97088368342143 0.4672419095039018
1.7165353958880425 12.982054040762167 152.29932466597697 86.33142471973127 0.47491397840104493
1.7361794742406216 12.96415119437341 139.89638157723238 89.84305929378381 0.4828218436531233
1.755410312073101 12.944631038062466 128.58349105092407 93.51378760662647 0.49097277975647924
1.7742770444223392 12.924029347192487 118.28956595570695 97.35220161529415 0.49938484304293773
1.7927447264199587 12.902309285789508 108.92577546767308 101.3674678194733 0.5080746181113025
1.8107674189062282 12.87907377429152 100.36883550620718 105.56939756919019 0.5170499116487783
1.8283435409716786 12.854619297689878 92.57527146019392 109.9685268786201 0.5263226451854068
1.8454526377710825 12.828776955088177 85.4565392761176 114.57617436556038 0.5359156874973614
1.8620451798859492 12.801483916193762 78.9458059021915 119.40448562517187 0.5458492449459218
1.8781737308001842 12.77295147323255 73.00499517093854 124.46647663675229 0.5561321477448542
1.8937534670608376 12.742991220204251 67.56719363455383 129.77239403696564 0.5667724329290195
1.9087862195697225 12.711719368938247 62.59776315249017 135.33624056695396 0.5777965804319032
1.9232785691547152 12.679022399122928 58.03925915236919 141.1777231720311 0.5892366619881151
1.9371353022792943 12.64468959087964 53.86355881981889 147.31428772800703 0.60110921817073
1.9504288634310953 12.609067468593793 50.03803336434831 153.76471114141538 0.6134495010737133
1.9630597932312313 12.571798572143917 46.52421160113471 160.54929116271765 0.6262896840726739
1.975080293996497 12.533242374895456 43.303401163721084 167.681165178206 0.6396167158196282
1.9864236040059218 12.49310976464079 40.34530007523051 175.18430974072928 0.6534752267760363
1.997098798502022 12.451488888528225 37.62670413671976 183.09092029867278 0.6679282866179689
2.007084276812018 12.408385770308794 35.12597678813256 191.42857069430573 0.6830005660223912
2.016331550851839 12.363712890832849 32.828473360687006 200.20745736645046 0.6986762457527711
2.024882548069431 12.317608218659956 30.713123837401422 209.47563122084145 0.7150585626971774
2.032674217299581 12.269895897407013 28.764391550485275 219.26760750392444 0.7321779560646047
2.0397273166710157 12.2207995516076 26.969109840935918 229.59960879230624 0.7500267935608265
2.0460007536587232 12.1701544178696 25.316411051630276 240.53482547453368 0.7687368180945867
2.0515136119288178 12.11809572263313 23.79358668819529 252.09515346010042 0.7882757463830863
2.056218574057398 12.06442314957192 22.385938141770932 264.3426342986313 0.8087708216069944
2.0601126592042247 12.009285077916594 21.088170882399098 277.31262193587406 0.8302294868941924
2.0631830731379805 11.952735992211032 19.892786486692845 291.07593233114045 0.8527631393810933
2.0654501460244434 11.894715734547585 18.78767426153726 305.6696691157612 0.8763857888204905
2.0668724649720853 11.835331698308055 17.769122511951252 321.17965319359985 0.9012257924100928
2.0674278014625522 11.774653911165977 16.8325894086001 337.7757525836913 1.0123173642887378
