M[M_sun], R[km], Lambda[1], P_c[MeV/fm^3], rho_c[fm^-3]
0.23841724892012095 16.20908015294055 2780876.1263280716 3.453507347168396 0.169602847481901
0.24841314231955292 15.866309915367669 2282367.4132563467 3.6355359352340666 0.17197830546700535
0.25869359756056937 15.56295664737334 1881652.8546784767 3.8247402480631827 0.17437459372653508
0.2692566683237118 15.293624346944908 1558264.9133410256 4.020223722974337 0.1767659631409895
0.2801083684715566 15.053988437508306 1295545.422285518 4.222318904994183 0.17914447705366957
0.29123654002016514 14.839944342820626 1081361.1295708327 4.4323916495257185 0.18154680045950317
0.30265554074055684 14.648661394100607 905714.1922362763 4.650789465166632 0.18397679786416213
0.31435458105780023 14.477214628634812 761178.9325069397 4.8778795118651495 0.1864361222995536
0.3263397253971494 14.323367754171846 641708.7766331705 5.110968401420176 0.18886493408908883
0.3386065253553205 14.185154256415275 542603.6431004736 5.35326373449648 0.19131568673653052
0.35115559587851514 14.060849479180922 460146.30329350295 5.60525513758977 0.19379640332612436
0.3639881594879614 13.949010399813881 391227.6650814517 5.86735497247225 0.1963127027306266
0.37711102528710955 13.848334101398176 333486.88855178165 6.136453515746251 0.19880460201328937
0.3905128225735496 13.757710362447876 284958.86811671976 6.415980759926204 0.20132669165189207
0.4041971006081421 13.6760924272899 244052.8475045311 6.706744497963028 0.20388341840408322
0.41816544663765304 13.602711046197296 209490.34029531365 7.008838153932765 0.20646617406640033
0.43242541467991835 13.53674642521121 180200.08410536996 7.318891672636755 0.20902556600539932
0.4469586206656446 13.477358607105124 153522.81090641435 7.641486246198591 0.21162942267015572
0.4617819451902334 13.424155242427243 134124.07825987542 7.977155667386073 0.21427778792227128
0.47688377135360094 13.376371036330376 116039.2906977091 8.323968811288468 0.21693307759701821
0.4922718438597683 13.333686285339873 100565.84433992584 8.681877154350557 0.21958577580297745
0.507936246979997 13.295570085701272 87310.64007442174 9.054384459562794 0.22228657970153487
0.5238854068045897 13.261748370704943 75927.40891646378 9.442095464008123 0.22503835807143024
0.5401154604351621 13.231678924546117 66127.9847874696 9.839602368394551 0.22776419212331678
0.5566167856469881 13.205158207590243 57690.14322141449 10.253058876118128 0.23053663237970382
0.5733934327824016 13.181867847435992 50398.73495710664 10.683437930890422 0.23335970421271257
0.5904579424889819 13.161467813274385 44089.881814386776 11.12775789594108 0.2361866587863117
0.6077888667960365 13.143838118215633 38628.20579348114 11.586838552337735 0.23903132511797334
0.6253816549036281 13.128504696111424 33885.61207688213 12.06476117690584 0.24193533368216757
0.6432529657999524 13.11541557512927 29763.007155031686 12.56119882233879 0.24488717548576977
0.6613772473802584 13.10440571778404 26177.280591882554 13.071136138185418 0.24781834721472776
0.6797782503157267 13.095302138317226 23050.851397448958 13.602028601038093 0.25080815564666936
0.6984238347307529 13.087789992444879 20321.564727481018 14.154781883584395 0.2538583250825436
0.7173379350550173 13.08196558043905 17936.31997290683 14.723356731968751 0.25690441778465967
0.7365013782900696 13.07754387849463 15849.891189685215 15.313410234431668 0.25999917179270393
0.7559014841115994 13.074171463057347 14020.101675587082 15.927715868293703 0.26315988051363526
0.7755440823908625 13.072046498456878 12416.092458463414 16.563309925372792 0.26634518135679597
0.7954259048058896 13.070962070642937 11006.780045354008 17.219415052055634 0.2695445571367623
0.8155413587438209 13.070712452128621 9766.800957776457 17.902564390002322 0.2728158211950992
0.8358845442219771 13.071294226346723 8675.36829545837 18.613400082155113 0.276157223649069
0.8564393462353221 13.072593350069608 7714.1005839835525 19.343486864264186 0.2794887216296837
0.8772149856554889 13.074477320577257 6865.577946463276 20.103602268032212 0.2828910855634343
0.8981874333696295 13.07677760974651 6079.618535532031 20.894997179426095 0.28636602319081955
0.9193685927802473 13.07971445590909 5453.605940215333 21.712263803378143 0.2898629810373659
0.9407351673832035 13.08293856762502 4867.607699230938 22.558702140387766 0.29340736565499964
0.9622782440280772 13.08625372974025 4347.994989872589 23.43994609151132 0.29703514168038836
0.9840086035728541 13.090038797419002 3887.592803205914 24.356428604493455 0.3007403137503989
1.005896070276868 13.09377198048059 3478.7763737527443 25.299754243767904 0.3044405980844559
1.0279360520410201 13.097590064397506 3115.7497562447084 26.281915029785857 0.3082273340140193
1.0501385013251938 13.10149332664372 2792.9061915872558 27.304409717011286 0.31210241642136977
1.0724600481982571 13.1053007200844 2505.5892709266755 28.36352702680616 0.3160328321250262
1.0949105027399177 13.108984679892925 2249.7317812419788 29.459363149059257 0.32001223433282594
1.1174775876373133 13.112542913601315 2021.680256342112 30.600201234957556 0.3240807723763314
1.1401415173916094 13.11581871950341 1818.1810866716773 31.78789256182249 0.328239143999487
1.1628900270611502 13.118807360939622 1636.5005080529309 33.01677956310606 0.33244832708965344
1.1857306827637228 13.121559288510351 1474.185443362253 34.291428911084665 0.3367314739060831
1.2086284487249388 13.123855697630622 1329.0018475647107 35.61855071089224 0.3411202816209641
1.231583393502907 13.125783536759984 1199.0109402021453 37.00016466521681 0.3456137450399243
1.2545802800300938 13.12724749211397 1082.5861531639375 38.43250903763374 0.3501680456485763
1.2775913355299262 13.128179134533967 978.2565100012605 39.917870775127476 0.35480138713077164
1.3006019281183974 13.128478011596053 884.6347055840682 41.46465976715231 0.35955186858019517
1.3236377886192083 13.128310133647046 800.6063941673477 43.07533416012697 0.36442165556833267
1.3466245845731326 13.127454701782257 725.1447491618518 44.75248289413572 0.3694126914898881
1.3696006969580938 13.12596839033885 657.2500402651857 46.48827112411048 0.374457189230469
1.392501204620852 13.123669900344098 596.1817085588028 48.29581200303012 0.3796304122666308
1.4153324888078533 13.120649335053209 541.2094921442283 50.178773700246104 0.38493895897979874
1.4380851100431122 13.116933414773085 491.68711754710046 52.14034827810756 0.390385654492371
1.4607278078861172 13.112267483138483 447.0406148624619 54.183919932509184 0.3959720987423422
1.4832721462415477 13.10683304666105 406.73782063423204 56.30782534931998 0.40166693557402766
1.5056512835429756 13.10040506404993 370.35527822157945 58.517112216561145 0.4074961105676582
1.527889547589712 13.093188136490175 337.50060242742666 60.820246501145526 0.4134859695845498
1.549947294433222 13.084924956116149 307.7954325164004 63.2214803864084 0.4196396251934039
1.5718197336170974 13.075690158691694 280.8947811085031 65.72533060540108 0.42595791272042277
1.5934659077707336 13.065424650363088 256.56225149256426 68.33666164876949 0.4324463109747865
1.6148737385546654 13.054109393920356 234.538238312926 71.06052919523411 0.43911979171722326
1.6360699012771314 13.04185245981813 214.55169206417585 73.9023732130705 0.44598551008463927
1.6569564433338528 13.028325243919035 196.4294545354683 76.86487527772435 0.4530331222525806
1.6775582950754928 13.013631214601043 179.97490169106865 79.95590126894832 0.460272961558567
1.6978539758630007 12.997813786162897 165.02533470292784 83.18423855048461 0.46773409678223316
1.7178420836440393 12.980990005302008 151.4542419422922 86.55695513545375 0.47542705474629815
1.737441244956177 12.962727405240809 139.1048637007447 90.08157494549785 0.4833566489290214
1.756691381660995 12.943264116903528 127.86115469327035 93.766154128745 0.49153051980122503
1.7755278945289261 12.922590497939309 117.63938515443134 97.61935302006131 0.49996775253409453
1.7939889194715644 12.900732395881406 108.31195377482581 101.6504132879811 0.5086843463773333
1.8119965619659233 12.877337801555317 99.79966021960188 105.8692193515154 0.5176875556288609
1.8295552138704598 12.85274564364687 92.04636127145656 110.28638693010114 0.5269900772508501
1.8466450014877807 12.826827860264235 84.96808155598224 114.91332901503645 0.5366155548506486
1.8632355996463017 12.79960612811604 78.51055488858978 119.76229345357861 0.5465837199064699
1.8793264235683786 12.770908534239208 72.59624968909618 124.84456484310677 0.5568960529292966
1.894878879591726 12.740754671013518 67.18622354793524 130.17045487092858 0.5675624563785205
1.909918041970624 12.709444245161942 62.24320022489588 135.7594870357982 0.5786281372166673
1.92432410588987 12.676318010477278 57.706032350628895 141.62798463324563 0.5901115900973936
1.9381738628370504 12.64205832943941 53.55905166539885 147.7935418034668 0.6020311013202722
1.9514300746564803 12.606326030092884 49.75810827653725 154.27510463235828 0.6144220858670345
1.9640161403457355 12.568787112130508 46.26132064633057 161.09315287778463 0.6273165460970317
1.9759791018361685 12.530063588350089 43.06233173203801 168.25445423956202 0.6406784254075264
1.9872925624448485 12.4898493071036 40.11984726318315 175.7960240072666 0.6545983725237977
1.9979170426908535 12.44802976554123 37.41808577889061 183.74401574515196 0.669117319759138
2.007844981208535 12.40474971324428 34.932688361989214 192.12122859611648 0.6842423063234369
2.017056570176487 12.35989416556197 32.64537184356079 200.9458852003546 0.6999864505962323
2.0255664909629307 12.313795341645985 30.54572511112274 210.26557587392873 0.71644925401439
2.033291134575464 12.265928803320227 28.61078708319658 220.10563487112603 0.7336291201829584
2.0402939202451615 12.216636923333152 26.825632260814977 230.49735793445475 0.7515698827761503
2.0465108130199128 12.16582232683989 25.182762178827254 241.49633657142775 0.7703758984132971
2.051951486494702 12.113542906370048 23.666832016489398 253.11916696231575 0.7899962331602859
2.0565801418929888 12.05964064743011 22.268613315394408 265.44192933923966 0.8106049651978824
2.060413869796759 12.004440030074088 20.981161030012537 278.4849066838016 0.8321566899962478
2.0634238465075727 11.947702545869806 19.792539789290846 292.33026876885776 0.8548020735270665
2.06559939282831 11.889506042716357 18.695393274719393 307.01656931617106 0.8785560427175405
2.0669647824140713 11.82989687488288 17.68111404489138 322.6209103719109 0.9035166906190569
2.067462437791846 11.768828615582391 16.745787823297096 339.2176454474478 0.9297943645884941
