M[M_sun], R[km], Lambda[1], P_c[MeV/fm^3], rho_c[fm^-3]
0.23841724892012095 16.20908015294055 2780876.1263280716 3.453507347168396 0.169602847481901
0.24841375407131688 15.866217368285866 2282136.008490577 3.63553425996372 0.17197828415693295
0.2586942919751272 15.562938785974259 1881586.5196237385 3.824736802070378 0.17437455157135137
0.26925628467878565 15.293713255767246 1558307.3728786616 4.020218171258176 0.17676589522627584
0.2801069994024275 15.05405597128368 1295577.3518722628 4.222311302588004 0.17914438815532416
0.2912334470685502 14.840030060911626 1081369.7214970852 4.432381891664245 0.18154669066385246
0.30265562687728853 14.648627677926001 905731.3743478848 4.650777441563431 0.1839766676422437
0.31435380295092274 14.477220592637648 761188.2434010026 4.877865107740137 0.18643597220699143
0.32633810329149565 14.32340290157034 641685.2672796296 5.110950776615778 0.1888647504366943
0.33860642607715136 14.185121614735383 542623.1666651763 5.353243396411341 0.19131548380083885
0.35115499139953343 14.060838141137177 460129.870990082 5.6052319588524195 0.19379618055425316
0.36398706622841226 13.949008130178058 391216.53747037053 5.867328816409947 0.1963124605209435
0.37711029273446595 13.848330861842978 333483.05554713105 6.136423022100165 0.19880431963682652
0.39051160034015053 13.757712775090438 284958.6347378731 6.415946895917575 0.2013263898245969
0.40419500006989584 13.67611679399637 244065.7328837199 6.7067071119398225 0.2038830987715414
0.4181648064233788 13.602714823777728 209498.2057371202 7.008795379908928 0.206465808369041
0.43242212517479933 13.536793380287207 180207.72858028312 7.3188449335947166 0.20902518072069362
0.44695848926639453 13.477333979747364 155314.83050737416 7.641435359220634 0.211629018092714
0.46177971487206104 13.42412853861397 134121.89279650283 7.977100442412228 0.2142773651058198
0.47688175444785014 13.376370590288138 116039.7087956925 8.323906656823658 0.2169326017266207
0.49226811931914205 13.333727714513984 100569.05893594034 8.68181013718417 0.21958528274471448
0.5079325742062363 13.295574139543973 87313.52091258887 9.05431236235737 0.22228606769237538
0.5238831613449579 13.261708710037112 75926.57596298511 9.442018049388631 0.22503782721422097
0.5401124718052336 13.231691105605082 66132.56541430138 9.83951618757181 0.22776360115340238
0.5566129501392564 13.205146878661784 57688.6012503165 10.252966740487555 0.23053602352834088
0.5733904573557674 13.18186498317673 50403.49260137035 10.683339575514179 0.2333590784335386
0.590455086133539 13.161516158764444 44093.66165375387 11.127649027648339 0.2361859661194448
0.6077814146841233 13.143761102625378 38628.25212007806 11.58672273061364 0.239030612870746
0.6253780164456771 13.1284993791222 33887.13498414803 12.06463807141579 0.24193460169108041
0.6432477169498168 13.115461236131884 29766.011197457447 12.56106317756163 0.2448863689354863
0.6613748234684703 13.104529665188666 26179.152982981326 13.070992352558715 0.24781752250340153
0.6797714845851983 13.09532330350166 23051.972128643003 13.601876303997305 0.2508073127897584
0.6984163207691674 13.087799298548923 20322.2969182446 14.154620671502075 0.25385746140215243
0.7173310959479385 13.081931609111951 17937.132672570322 14.72318003116425 0.25690347112472106
0.7364951558945037 13.077501672283153 15850.076800122537 15.313223556264465 0.259998203211683
0.7558940635950585 13.074196623358132 14021.101454352833 15.927518733688919 0.26315889256697994
0.7755361663078745 13.072068096771886 12416.481768764274 16.56309446655539 0.2663441015777372
0.7954200850258281 13.070984795602065 11007.006397361414 17.21918791552862 0.2695434561845781
0.8155343589671241 13.07072755849432 9767.276142699877 17.90232499817288 0.27281469589363333
0.8358781478628715 13.071305662764408 8676.164438835523 18.613139061955327 0.27615599667981894
0.8564312574053481 13.072588874673544 7714.638356360883 19.343212113330743 0.27948746850786677
0.8772060048503214 13.074487462463878 6865.982631029694 20.103313103022717 0.2828898095924109
0.8981776149249867 13.076800723595706 6116.19619930522 20.89469288516546 0.28636472116260603
0.9193597963099023 13.079723365394031 5454.123579554806 21.711933015925318 0.28986156564886867
0.9407299321820949 13.08296904806872 4867.959058215082 22.558354391269738 0.2934059197015377
0.9622697517440778 13.086250677538882 4348.298361988952 23.439580479912703 0.2970336635792086
0.9840015199505735 13.090009807123147 3887.809688040348 24.356031782633405 0.30073870947181003
1.0058877295113078 13.093755471568635 3478.872862990522 25.29933739038391 0.30443896447542096
1.0279315808359915 13.097632693004146 3115.8841134980685 26.28147710491842 0.3082256653264948
1.0501266678214987 13.101505028951973 2792.9417833753732 27.303949578946757 0.31210070883538477
1.0724514286881452 13.105324289058146 2505.7360101849745 28.363028644254197 0.3160309826126157
1.0948973523102936 13.10901091081251 2249.919931154976 29.458839764228713 0.3200103416434684
1.1174622025169905 13.112532375936512 2021.7505214871696 30.59965150000479 0.32407884117213986
1.1401335939674693 13.11588359326771 1818.325981673026 31.7873150474653 0.32823716589762403
1.162888625191016 13.118842615100544 1636.5351268998054 33.01615507101215 0.33244618807967213
1.1857195501629458 13.12155739417114 1474.2830927935477 34.29077309196064 0.3367292811708818
1.2086136643954943 13.123865891870306 1329.0513960323262 35.61786177214064 0.34111803181165323
1.2315746432459613 13.125773982603475 1199.0203451591956 36.999440753395334 0.345611443280576
1.2545693192059195 13.127231068123319 1082.6440629802173 38.43172721691331 0.3501655597613473
1.277578738061809 13.12815564126464 978.268743013619 39.9170494746075 0.3547988340235576
1.3005902420922373 13.128476090415388 884.6993318302158 41.46379667102013 0.35954924350279244
1.3236197032884776 13.128272315228948 800.6253324898097 43.07442680106684 0.3644189544171214
1.3466174168019918 13.127444636141123 725.1460338896925 44.7515287027051 0.3694099184462456
1.3695813949817774 13.125952671638956 657.2820689393577 46.48724196170828 0.37445419830834903
1.392482064691593 13.123698565322101 596.193176358511 48.294729788597294 0.37962732988331005
1.4153196567261443 13.120696257325324 541.2570025665249 50.177635218729236 0.38493577930695677
1.4380708964295394 13.116898994432693 491.70105214818255 52.13915010882672 0.39038237283793864
1.460716730936346 13.112264918756553 447.049429649615 54.18265848311233 0.3959687164125879
1.4832593016079678 13.106826359851945 406.74153485862547 56.306465860790894 0.40166329037152176
1.5056372179146786 13.100398894073644 370.3640816693491 58.51568077345689 0.4074923409587656
1.5278790242474778 13.093193327768502 337.51183663506595 60.818738605742865 0.4134820676263808
1.549932293155679 13.084932253926985 307.8015524868592 63.21989124828427 0.419635585168716
1.5718146401043125 13.07581980150109 280.92575154393387 65.72365515839245 0.42595373217215077
1.5934530948834755 13.065429260891012 256.5828937225116 68.33489445016544 0.43244197176342775
1.6148502768788202 13.054076868529227 234.5532851623903 71.05866435809274 0.4391152837476164
1.636061988580251 13.041885661996913 214.5601767373205 73.90040445702448 0.4459808265337884
1.6569424065405767 13.028339123079245 196.4499695583408 76.86275502793899 0.45302807830734093
1.6775615063922191 13.013710718875519 179.9751501765317 79.95366211512096 0.4602677215542777
1.6978486696527257 12.997930122824469 165.04480467774746 83.18187271670666 0.4677286390520947
1.717814746273208 12.980948529814269 151.4710520637834 86.55445421785046 0.4754213652180828
1.7374419760423967 12.96280798792032 139.10983226144333 90.07892995538103 0.4833507182713937
1.7566813717212193 12.943296423534756 127.8666754779963 93.76335545587952 0.4915243346229529
1.775548428874892 12.922749579382463 117.6429639415698 97.616390294572 0.4999612880320309
1.7939716841052722 12.900731330817923 108.32517016939457 101.64727530485735 0.508677584236844
1.8119853763227043 12.877400633081928 99.81312607457075 105.86589409384699 0.517680483659246
1.8295399279723155 12.852799390571956 92.05860672741744 110.28286149529833 0.5269826746589829
1.846642092164672 12.826976994539079 84.98318979557203 114.9095894518203 0.536607792246115
1.8632180219129648 12.799496897453784 78.5070568499622 119.75832467435424 0.5465755731619528
1.8793118770597113 12.77091275489902 72.60078098479022 124.84041005953439 0.5568877211684163
1.894874578482971 12.740834060844705 67.1900749535417 130.16603937645732 0.5675536930341374
1.909902096801957 12.709470982890693 62.246872271383175 135.75479198925748 0.5786189128093937
1.9243175827231147 12.676433101313183 57.714686371542825 141.62298971465017 0.5901018841930264
1.9381476857365532 12.64190505775695 53.56055851634197 147.7882250446532 0.6020208741138456
1.9513878193506409 12.606179658799029 49.75973428762747 154.26944218439425 0.6144112957396515
1.9640072121482524 12.568868264530025 46.26665966585223 161.08711886819606 0.6273051533199168
1.9759771012360732 12.530140685008394 43.065517663464185 168.24809358649702 0.640666645719408
1.987280165243089 12.489872632278297 40.124684936929185 175.78923672234632 0.6545859106431222
1.9979120007115692 12.448108707004812 37.41986865118417 183.73676898247297 0.6691041262189932
2.007838000196078 12.404795025805257 34.934807919715595 192.11356442781906 0.6842285989200214
2.017048401935694 12.360010955208562 32.65080686668484 200.93769095392645 0.6999719114078842
2.0255580961564936 12.313831793965491 30.546334405549707 210.25680951714313 0.7164338209125674
2.033286864407149 12.26595332923127 28.608958837845105 220.09633460485705 0.7336130154431505
2.040282381599163 12.21666253612983 26.828325915328506 230.48739436749494 0.7515527569756343
2.0465052633211203 12.165789011786986 25.18211646554576 241.4857424222679 0.7703579724279184
2.051946511508764 12.113581868118025 23.66788081208252 253.1078010145498 0.7899771367686862
2.0565778742044105 12.059767104621429 22.27203393502307 265.429727123245 0.810584606135543
2.0604106747237885 12.004501601185488 20.98191859397929 278.4718937248223 0.832135297058264
2.063430240709769 11.947760405204503 19.792597382812048 292.31637272662743 0.8547795301957127
2.065600169943983 11.889545900625436 18.695695603636977 307.00161645581363 0.8785319492446515
2.0669690642195544 11.829883449579185 17.681012568193875 322.6049092117944 0.9034912565538505
2.0674645435975356 11.768906770433055 16.74711682972174 339.2005008351527 0.9297674617858412
