M[M_sun], R[km], Lambda[1], P_c[MeV/fm^3], rho_c[fm^-3]
0.23841724892012095 16.20908015294055 2780876.1263280716 3.453507347168396 0.169602847481901
0.24842663716206972 15.865874186356567 2281682.858317494 3.6357673431369326 0.1719812490630489
0.25871786329886753 15.562315293785637 1880834.244404056 3.8252162699337915 0.17438041695094061
0.26929773339393615 15.29267961765287 1557234.9972759087 4.0209906609687796 0.1767753451721997
0.28016403411919144 15.05283372181215 1294373.0782049214 4.223369179208335 0.17915675838114067
0.29130724214956505 14.838814776620195 1080155.4337644218 4.433739756497733 0.18156196938587607
0.30274404534657273 14.647243574962676 904501.2107040442 4.652450665063248 0.1839947895288735
0.31445924378883366 14.47578996231125 760051.5298614089 4.8798696866048115 0.18645686013858212
0.3264611922713703 14.321915988969497 640599.827658352 5.113403685129226 0.18889031001238873
0.3387486200190289 14.18365579405003 541571.4077905548 5.356074029274246 0.1913437281726171
0.35131435642742165 14.059447128789431 459188.7694744521 5.608458069462064 0.19382718684619907
0.3641691861725637 13.94761309250897 390375.5639071714 5.870969453925828 0.19634617345711877
0.3773118063679114 13.846935418840129 332685.95970701985 6.14066761155263 0.1988436252729073
0.3907354472249358 13.75636353552688 284242.560579048 6.420660790680242 0.20136840440477927
0.4044417710729912 13.67480803609361 243405.05237774807 6.711911451143534 0.20392759337207797
0.41843505133476183 13.6013763747302 208892.5778029171 7.01475005683868 0.2065167179967464
0.43271353280972125 13.535420225293128 179655.2078166465 7.325351806413518 0.20907881893127064
0.4472734369104826 13.476089607972401 154818.3522068773 7.648519925808127 0.21168534401224587
0.4621212700525109 13.422931381206183 132186.8564844749 7.984789196517513 0.21433623216361844
0.47725391594099104 13.375384202869204 115633.8399570599 8.332560619670977 0.21699885866814134
0.49266380886045785 13.332674866845956 100207.06697269563 8.691141439155752 0.21965393493921048
0.5083583058646981 13.294692097654902 86990.05396802594 9.064351301887411 0.222357360732942
0.524329515533551 13.260842164033578 75636.60240488005 9.452797717660916 0.22511174690346508
0.5405853904754405 13.230884295811927 65869.79436386528 9.851517141333016 0.22784589559421947
0.5571203555487565 13.204465120350301 57454.054247514614 10.265797296812439 0.2306208105065932
0.5739307953906373 13.181163966047949 50187.10058153213 10.697036671686037 0.23344622524600211
0.5910224856063928 13.160829078438521 43897.685514045086 11.142810977396918 0.23628243295991536
0.6083782635287062 13.143271522385863 38456.09349684112 11.602853532662813 0.23912980945173548
0.6260097015198394 13.127986236482524 33730.21787364356 12.081783782908634 0.24203655090545345
0.6439056659339871 13.11498837450027 29624.930900187803 12.579956352388104 0.24499870864978598
0.662075238611623 13.104075556945903 26050.16318320444 13.0910199710295 0.2479323949295898
0.6805029774570833 13.094968814520586 22936.564509810967 13.621324277609334 0.250897753328621
0.6991911749857017 13.087579351448682 20218.927375585772 14.17457673043369 0.25392721536995994
0.7132164523214921 13.079926595350807 18389.11395606261 14.902152717004267 0.7194884344834018
0.7119223091460107 13.062471534327663 18339.153915112216 15.755712958115119 1.4528492766516155
0.7019241160777677 13.036116439796395 19230.00210820514 17.32954177014772 2.161063737774371
0.6885312924870404 13.002639770209987 20536.000720896198 19.406685991738996 2.928488885601226
0.6734292934897677 12.96541008436106 22144.797959087657 22.19628387710039 3.7884952005762336
0.6557268419582697 12.920179251710003 24222.406202910443 25.386520614712644 3.986510746006404
0.6345148377363945 12.857157572192943 26896.54214682545 28.84880570002271 4.008083291982927
0.6121999067625263 12.77792578204841 29899.98566863365 32.45587157683412 4.026848323126153
0.5898433062374634 12.68299302187515 33062.32160595452 36.03293425759316 4.038920790856522
0.5681775804620575 12.571916418126708 36180.22172743333 39.75714293530255 4.05137371738141
0.547443835413929 12.443694685122328 39085.14817481557 43.63185110924379 4.0642448098675406
0.5280854957637904 12.297720689538497 41519.48771071666 47.604900192460896 4.077398048801593
0.5104240592833592 12.134034670723127 43237.67504073976 51.62078829062922 4.0906617451167495
0.49444740811369703 11.95140294339426 44085.08116832863 55.79535588783719 4.104418621785778
0.4804867973908704 11.75132900216442 43882.23174078323 60.12412199513394 4.11865157541317
0.4686041861185107 11.53473123312879 42589.88016463257 64.53213358226502 4.133113363923292
0.45884066256801836 11.303642892193913 40309.377243779214 69.04411652027993 4.147883425003986
0.4512590375096552 11.0613414152663 37185.59939227328 73.7217251242554 4.163167069137486
0.445789224948997 10.81115139841486 33488.47046886832 78.56349692432363 4.178954524016514
0.44240891609535327 10.556816013555618 29484.10995607939 83.49379168292535 4.194974478830943
0.4410258284443067 10.302763551451438 25439.5106520592 88.56087195143756 4.211399349187953
0.44152390185036816 10.05220481611283 21578.3852559597 93.80634557248902 4.228366274150969
0.44378665826975594 9.808834445489415 18040.106862708344 99.23114128168135 4.245874343940559
0.44768002282602 9.575179889055057 14919.420808263487 104.78171170917395 4.2637371336679895
0.4530755776880218 9.353167843306178 12236.14489661241 110.47823380640187 4.2820178322300135
0.45983531663764715 9.144325262526028 9981.942809433696 116.37022773713576 4.300879602794986
0.4678365631907461 8.94891156153477 8118.54018694513 122.46089954537106 4.320328113238716
0.47693759989526596 8.767227077138134 6592.92650223532 128.74861117338645 4.340352213876188
0.4870497798261118 8.599701358826769 5359.832406172659 135.16480614766357 4.3607123855063294
0.4980645393086555 8.445425705614594 4365.257439041229 141.79923382681244 4.381707678947706
0.5098877269222541 8.30432826397784 3566.6572494188713 148.65646081916293 4.403347102786109
0.5224295888116766 8.174105589665137 2922.755775397836 155.74195572159726 4.425642351171161
0.5356310714482758 8.055723979489688 2406.7514266804774 163.06150467023045 4.448605803356597
0.549390012145252 7.947338916467841 1989.8739862959728 170.5628017017833 4.472051333548881
0.5636633199400908 7.848614539407642 1653.2520284630668 178.3102073245816 4.4961899410961585
0.5783853519905602 7.758601276327281 1380.056554109623 186.31825816316095 4.5210625239165525
0.5935054414355263 7.676559886915274 1157.7814253026513 194.5948865597751 4.546686968121648
0.6089730192629288 7.601577225186905 975.2354936230503 203.14856676853768 4.573082468106001
0.6247610361640479 7.53323519880842 825.4069772147978 211.98847377896465 4.600270033433463
0.6408016765137414 7.470758449758497 701.5080181654187 221.12093271821712 4.628260352202372
0.6570710789342094 7.413761409108763 598.8306773169753 230.52478322267297 4.656965887634204
0.6735330696491997 7.361496541755419 511.8725252514814 240.25159117846547 4.686542651659925
0.6901380409814827 7.31378343783942 441.4316793039863 250.313457675627 4.71702724588427
0.7068978277975648 7.269793810034407 380.9783974537422 260.72316387692143 4.748451067467459
0.7237473744918512 7.229539764088279 330.06073356708515 271.494399861789 4.780846188423633
0.7406583492838182 7.192455276048206 286.34872185100323 282.6416701725457 4.814235179322037
0.7576185764139503 7.158260401675414 250.02269677092377 294.1808273360276 4.84865444105579
0.7745860468479908 7.126797812850954 218.7351918110689 306.1285093637018 4.884152781247741
0.7915504812205887 7.097537546232117 191.8649432869831 318.5024401115321 4.920765697077962
0.8084930136227082 7.07036877328658 168.72688126759573 331.3216978012326 4.9585297415624465
0.8253966710573329 7.04504699153477 148.74052331482366 344.60660420782966 4.997500476648778
0.8421942628542928 7.021607813232665 131.52739442877774 358.37867911927304 5.037722809487932
0.8589304701246947 6.99934638735305 116.51546082458707 372.6611536272729 5.079244681965834
0.8755404897088855 6.978559518635243 103.49907901528694 387.47853386945815 5.122131567399912
0.8920185724305602 6.9588824556641065 92.13014689614636 402.85709368705204 5.166433183924042
0.9083532748800054 6.940268042250463 82.20551340627085 418.8250606031907 5.212224801122897
0.924505751294176 6.922510775375377 73.4978982823041 435.41215815778605 5.259555576503017
0.940467267521573 6.905530800823041 65.84863942362176 452.64644696488085 5.308509825572013
0.9562338060592791 6.889198072818088 59.11421532645269 470.52516382644956 5.359003407250517
0.9717849295503296 6.8734172122889685 53.17148037926103 489.1203324964301 5.411272990102908
0.9870933523035695 6.858106560750913 47.91716802781147 508.4710957480875 5.465385711403197
1.0021411273387757 6.84308950855262 43.2615141552951 528.6188226903412 5.5214434645601695
1.0169221096651344 6.828412995148755 39.125636039031605 549.6081055347906 5.579545763630449
1.0314390928210828 6.813932713606012 35.44710234203247 571.4150532776198 5.639547354268112
1.0456311898565043 6.799553419762612 32.14505279531671 594.1561525661147 5.701790898514984
1.0595266701635118 6.785299830674278 29.229858265345463 617.8856915245276 5.766395071832511
1.073108260522426 6.7710122074890675 26.632252711155687 642.6096551045979 5.833308055875724
1.086305249999549 6.756722419120582 24.29996372402218 668.401380676151 5.902707253715614
1.0991961253331195 6.742213860100712 22.196024228181063 695.3625745114529 5.9748548273018045
1.1117199784483192 6.727649096800711 20.308740226555948 723.4710252447695 6.049589600602352
1.1238492527745703 6.712890899976674 18.6107824277901 752.8803760116623 6.127335686686739
1.135604383201857 6.69780322567289 17.08185351641721 783.6094883845493 6.208062012099326
1.1469479849350124 6.682501561259655 15.702204379768046 815.7723143448188 6.292043857912322
1.157878880841824 6.6668303408986525 14.455252920220284 849.4207930948902 6.379328379241736
1.1684091681821722 6.650821185310218 13.328507554753365 884.69129071332 6.470272779121472
1.1784698741067812 6.634424063647827 12.309039736891114 921.6121781288783 6.564810336228198
1.1881109273232406 6.617582466696638 11.381649114261295 960.3596978159172 6.663398125377753
1.1972891022993397 6.600280750859489 10.547474172121523 1001.011811403286 6.76614044913445
1.2060124526100295 6.5824919969934825 9.772091837963611 1043.6756377882941 6.873216376073364
1.2142698331036401 6.564199412514684 9.081670360163258 1088.5167730977428 6.985003741772695
1.2220375282644373 6.54534765185857 8.447992503946853 1135.670812263049 7.101745992847641
1.2293171825629383 6.525956824232767 7.869393055820256 1185.2860019826605 7.223715279315954
1.2361021313373213 6.505982470613904 7.34247465672609 1237.5037795532735 7.351135210147622
1.2423843810700814 6.4854258951324075 6.859948885824128 1292.5313563832296 7.484445724792669
1.2481180816652946 6.464314119022209 6.421138244901672 1350.5627706580735 7.624006297191774
1.2534008808844548 6.442419698161751 6.016458436621025 1411.8098381520037 7.770209113009533
1.258127338719588 6.419943165840257 5.643659848808754 1476.5040671344902 7.923480685713065
1.2623146399157272 6.396778567084589 5.307620011484066 1544.898821642678 8.084283877301239
1.265978707500962 6.373030508757786 4.9967109134932155 1617.2446366764204 8.253029182877846
1.269085316955794 6.348557639817613 4.7105541311533345 1693.8639551461458 8.430353492629973
1.271669210769703 6.32343288658285 4.450201647000248 1775.0901270041775 8.616863832392225
1.2736870895973422 6.297595239282615 4.210124251456308 1861.2878439692354 8.813226573766224
