M[M_sun], R[km], Lambda[1], P_c[MeV/fm^3], rho_c[fm^-3]
0.23841724892012095 16.20908015294055 2780876.1263280716 3.453507347168396 0.169602847481901
0.24841686411173403 15.866159103487538 2282026.1403864142 3.6355942093925706 0.17197904673634098
0.2586971435115482 15.56296672555856 1881554.4697066238 3.824860118041851 0.17437606010828846
0.2692663198525269 15.29346626311555 1558040.858365335 4.0204168435637255 0.17676832560498282
0.2801224024151303 15.053691896432237 1295270.1093891778 4.222583363284434 0.17914756948307634
0.29125472771474403 14.839619725948916 1060317.7532935922 4.432731091397154 0.18155061986616938
0.30267803675025207 14.648266434785405 905395.8107394606 4.651207728615563 0.18398132787632354
0.3143839105127409 14.476766191796507 760849.6083098894 4.878380591267189 0.1864413436018709
0.3263697466377092 14.323024070360105 641508.8192800147 5.1115815268894735 0.18887132292371386
0.3386426918134749 14.184723091656785 542328.5013557024 5.353971255554638 0.19132274646090153
0.3511955775062045 14.060516069711465 459892.1967367644 5.606061486915317 0.19380415318520344
0.36403428790559583 13.948653896923666 391018.617440466 5.868264906394711 0.19632112887690395
0.3771614279895572 13.848091702571836 333296.20399245556 6.137514361773632 0.19881442563188828
0.39056888397555733 13.757348450658162 284781.1984824934 6.417158868447142 0.20133719204220804
0.40425829361238613 13.67582155929219 243898.87970371026 6.708045146740969 0.20389453832643026
0.41823613057721576 13.602359591370789 206743.01667583134 7.010326268994426 0.2064788967354327
0.4324943337262045 13.536347035403164 180055.081834237 7.320517745287186 0.20903897023653556
0.44703827036950844 13.476964586293555 155182.48132971753 7.643256642338715 0.21164349822287962
0.4618659562881786 13.423771311358355 134014.19023971676 7.979077001499702 0.21429249814511997
0.4769776680032366 13.37605528919145 115929.70522970748 8.326131258260839 0.2169496338412635
0.492370568684879 13.333451761904884 100478.4330011142 8.68420880075037 0.21960293017678545
0.5080428379296618 13.295341691839168 87226.69093874628 9.056892869334822 0.22230439355120493
0.5239962045426275 13.261527064651808 75854.37931260747 9.444788898418775 0.2250568278266774
0.5402348085644714 13.231492995517577 66065.38214403011 9.84260083998702 0.22778475361767114
0.5567477224791831 13.205078933862152 57631.673760748155 10.256264556479554 0.2305578161806401
0.5735348392660723 13.181669551500194 50342.91830727959 10.686860040782802 0.23338147714657234
0.5906024019769135 13.161377559038344 44042.93590863645 11.131545837569673 0.2362107592989012
0.6079312262417531 13.143548557837551 38582.760319302695 11.590868459810718 0.23905610708738848
0.6255433896941487 13.128388594848754 33846.034228739925 12.069044547173934 0.2419608028050957
0.6434154928975787 13.11536326905871 29730.052599316557 12.56591855532475 0.24491523924213066
0.6615477245755889 13.104313035101967 26146.98329324334 13.076139166105824 0.2478470430856993
0.6799613089049339 13.095210961650869 22845.175849708892 13.607327821352596 0.2508374831007143
0.6986118083396103 13.087707883345887 20295.45413156469 14.160391344517404 0.25388837730532376
0.7175347611570261 13.081936485282018 17913.66899477756 14.729505220356902 0.2569373578024276
0.7367063330423357 13.077391722572463 15827.20258225094 15.31990594044337 0.2600328748103349
0.7561190720649994 13.074148647786593 14001.122993658833 15.934575466529282 0.26319425761927395
0.7757676118796369 13.072026566018792 12398.667258127954 16.570807253607704 0.2663827544676238
0.7956603697310494 13.070923600644228 10990.964403683372 17.227318783681557 0.2695828672699303
0.8157876957879177 13.07073931456236 9752.890338234745 17.910894629135676 0.2728549788820156
0.8361358869638824 13.071377440075317 8663.366110014464 18.622483072608475 0.27619991976988184
0.8566981378202069 13.072607197948448 7703.0194697824745 19.353047721919634 0.2795323281032492
0.8774874910085975 13.074563493334656 6855.518659692092 20.113664778539896 0.28293548744958386
0.8984687194902585 13.076828926382413 6106.542053806567 20.905586236623428 0.2864113321335422
0.9196578306888181 13.079766424913231 5445.3518835877585 21.72377496938027 0.2899122355414583
0.9410314126668762 13.082966412821136 4860.010905938721 22.57080364191163 0.29345768413782514
0.9625860054296231 13.08633767353043 4341.2421213899315 23.452669285198184 0.2970865792378127
0.9843234369198633 13.089997162179207 3881.338139498628 24.370238127976187 0.3007961431415586
1.0062261970220094 13.093848976133767 3473.0367333059044 25.314260969522934 0.30449744857235256
1.028269737075043 13.097590620565963 3110.488715512487 26.29715515920896 0.30828540565080303
1.0504800483816896 13.101544691168257 2788.0437517641085 27.320422993985257 0.31216184216647225
1.0728036073316498 13.10525678053012 2501.291164846702 28.3808715356309 0.3160971981109529
1.0952716696499785 13.108985196713428 2245.7894608778042 29.47757790499182 0.3200781034079164
1.117836687482183 13.112526039429214 2018.1598642105357 30.619333159243286 0.3241479823148417
1.1405238938116653 13.115842038326177 1814.929723165537 31.807991411226148 0.32830798656756144
1.1632825866878713 13.118876920122279 1633.5243352986297 33.038513714683404 0.33252277089384613
1.1861296856741381 13.121582600291156 1471.449015748673 34.31425350148798 0.3368077880619195
1.2090366010928808 13.123874361047022 1326.4914777053834 35.64252814748529 0.34119858271808395
1.232000084445158 13.125797086231085 1196.7143327389435 37.025359474317284 0.3456938547793353
1.255003277689063 13.12728295082044 1080.5464159918672 38.45971976535895 0.35025456522880244
1.2780223735843046 13.12815154059483 976.3415487512847 39.9464557894993 0.3548902469386376
1.3010439297900687 13.128487159977 882.9797032770443 41.494699695297896 0.3596432339954873
1.3240721723740383 13.128307931585313 799.0962112606296 43.10691490502245 0.364515669472061
1.3470813113816273 13.127446196831967 723.6820560232993 44.78569391552688 0.3695092084033439
1.3700472354667828 13.125918667823049 655.9576730935017 46.52409219067882 0.3745612913820153
1.3929610154872574 13.1236211822923 594.9747861692214 48.33347991557702 0.3797376987173009
1.415798282927906 13.120589797433855 540.1467565286744 50.21840040227189 0.38504963266785025
1.4385530487825593 13.116762583400524 490.70119485381514 52.182052874461704 0.39049987881414605
1.461210436766404 13.112181977757086 446.13694133247833 54.227827507222585 0.3960898283133903
1.4837580951341394 13.106703074872671 405.89942332147757 56.355146293826174 0.4017938174283471
1.5061454672642658 13.100319248813866 369.60507318835414 58.566938208481645 0.4076273239576087
1.5283868284258075 13.093011362182756 336.7976504121343 60.872734157737405 0.41362179110111463
1.5504496662872327 13.084783725185758 307.1514911522265 63.27679651980543 0.41978025396642793
1.5723181311300032 13.07547426941803 280.3131787617156 65.78365163230072 0.42610343440327464
1.5939584996557021 13.065161827292522 256.02406278261594 68.3981771013479 0.43259735712769315
1.6153924668236515 13.05387206510413 234.03104220061516 71.12544407880651 0.4392767139039857
1.6365541237023782 13.041441889997866 214.10147562089813 73.97090623724277 0.44614854597947456
1.6574532463152623 13.027905026233912 196.00489356281918 76.93868335506338 0.453208707177956
1.678068398516746 13.013264512996182 179.58862778917862 80.03384938057846 0.4604553735189682
1.6983468821680034 12.997404016751899 164.67394793868408 83.26659750390502 0.4679240902409631
1.7183174766851523 12.980409757552092 151.12619141714094 86.64401761359672 0.4756251198185909
1.7379067340676493 12.96224159192275 138.82022667082157 90.17365400460517 0.4835631107115353
1.7571866608237348 12.94283765806068 127.59062859253697 93.86358447848816 0.4917458447467415
1.77602109212474 12.922010992000734 117.37259724952169 97.72249583438577 0.5001928044123234
1.7944811228134085 12.90017182299302 108.07429088649094 101.75965883588621 0.5089197631127454
1.8124928137660496 12.876917293443437 99.59438364326886 105.98498618885664 0.517933761979685
1.8300270280835516 12.852091238222377 91.84528581083768 110.4091244707332 0.5272477974955608
1.8471127405048233 12.826133379082934 84.78483008472394 115.0435232104308 0.536885812630233
1.8636963156920663 12.798789849970879 78.33312046558085 119.90046984697307 0.5468673556825204
1.8797705209965854 12.770030726423208 72.4329128043211 124.9892180100279 0.5571861319614169
1.8953076492871208 12.739913744216677 67.04412352374185 130.32418726981558 0.5678675660243494
1.9103112329392593 12.708378005215868 62.110891970394896 135.92295499695302 0.5789493044376509
1.9247289114718176 12.67538094026324 57.58727572021365 141.80189601778827 0.5904495269895483
1.9385695983247966 12.640983091792943 53.44311342168137 147.97866190617688 0.6023871944910317
1.9517902594192345 12.605119409982715 49.648353930005555 154.4722642879209 0.6147977851779768
1.9643865742765227 12.567653729858884 46.16140296660349 161.30122773530803 0.6277060939514276
1.9763419162558906 12.528891975091733 42.96715373787986 168.47593048646775 0.6410885910127715
1.9876284859436717 12.488586284357085 40.036194315447304 176.03235970259368 0.6550322996786332
1.9979200659934466 12.447455574726638 37.39904534740185 184.40812954635788 0.9572224265793285
1.999114942498381 12.414975461242275 36.279184415051134 194.6425320385875 2.1742682541568996
