M[M_sun], R[km], Lambda[1], P_c[MeV/fm^3], rho_c[fm^-3]
0.23841724892012095 16.20908015294055 2780876.1263280716 3.453507347168396 0.169602847481901
0.24842124509564528 15.86604756138827 2281929.3597206054 3.6356652393848385 0.17197995026470636
0.25870789979313785 15.562617064911596 1881171.3512686344 3.8250062303719337 0.1743778475154204
0.26927964163314877 15.293150760936136 1557611.841856115 4.020652248933904 0.17677120534303994
0.2801392348491012 15.053353467807224 1294947.8434071282 4.222905733797829 0.179151339106084
0.2912760068523572 14.839242854795245 1059944.0748567875 4.4331448752731495 0.18155527577054462
0.302704934876711 14.6477925693514 905041.2903126441 4.651717608410097 0.1839868501414796
0.31441441614391824 14.476402201426591 760498.926899734 4.8789914403213555 0.1864477087160006
0.3264069199611764 14.32256938096149 641094.2417073684 5.1123289875188 0.18887911154543746
0.338686066110439 14.184268371800016 542016.3131021578 5.354833811990259 0.19133135314563504
0.3512471183625933 14.060060569077619 459620.48110594676 5.60704454756687 0.1938136014246629
0.3640886326921893 13.948235083679199 390749.85207875725 5.869374274451072 0.19633140181792483
0.3772238322852531 13.847522211346408 333038.61853289773 6.138807753360012 0.1988264026627822
0.3906392864355262 13.756980755482237 284554.3729236861 6.418595255413635 0.2013499944483743
0.404334870641868 13.675396586922595 243690.61786820824 6.709630968849069 0.2039080963437808
0.41831627686011563 13.601925323711747 209153.8908793765 7.012140711064326 0.20649440934365
0.4325847147259423 13.535975426997107 179894.16234635786 7.322500434266694 0.20905531416885959
0.44713383640555926 13.476647852783497 155028.79289111108 7.645415345794276 0.21166066101690933
0.46197135572393655 13.423438222892283 133874.96722197213 7.981419790360089 0.21431043513274708
0.4770932098870279 13.375857055840648 115812.67284350244 8.328768124793042 0.21696982236237275
0.49248940036260447 13.333147981147382 100365.46561972763 8.687052036723541 0.21962384841409283
0.5081715142514989 13.295122680257695 87131.34861190128 9.059951704590794 0.22232611633032298
0.5241394978091252 13.261277207277063 75764.01674503184 9.448073413592526 0.2250793508148463
0.5403762475972063 13.2311865314068 65982.9158159692 9.84625744032305 0.227809828114743
0.5568921236628277 13.20473172603353 57557.97114762419 10.260173909537507 0.2305836499967516
0.5736971489579701 13.181526746453248 49829.42033342407 10.691033398635202 0.23340802984281853
0.5907728253240805 13.161113953036319 43982.391808351655 11.136165475440361 0.23624015142042207
0.6081169273950178 13.143393964042131 38530.5484279153 11.595783268277152 0.23908633076719077
0.6257354879601553 13.128234178052178 33798.34271355588 12.074268556329589 0.24199186501149747
0.6436170086858882 13.115185302178181 29685.05370584701 12.571674929571978 0.24494946691663613
0.6617730794990418 13.104207113185343 26105.37544130917 13.082241152052319 0.24788204225104005
0.6801848472433211 13.095222382354265 22988.27690182735 13.61379115909791 0.25087325312525616
0.6988415479251513 13.087698103991398 20265.594414883035 14.16723317859294 0.2539250318652393
0.7177793252864152 13.081864698599976 17885.10370943355 14.7370047380828 0.25697753584807836
0.7369624087819313 13.077347077007193 15802.261918717488 15.327829089319092 0.2600739841255918
0.7563823926701412 13.074122883713006 13977.960725396617 15.942942597466985 0.2632361897753944
0.7760468784032196 13.07203911147079 12377.733257596019 16.579952560869266 0.26642858648037904
0.7959437938018505 13.07091631355612 10972.094291151801 17.236959966723543 0.26962959899409766
0.8160807012125885 13.070720861190368 9735.895973041417 17.921056225876956 0.2729027451726822
0.8364458855487686 13.071332007123685 8647.61074872829 18.633275335725525 0.2762494912843293
0.857020913240007 13.072631530533075 7688.889108818828 19.364711034077928 0.2795855237402564
0.8778174813854971 13.07455168406802 6842.833311493297 20.125940236894593 0.28298965420090133
0.89880975522154 13.076895721419815 6095.583515347186 20.918504227601 0.28646660622474657
0.9200101669341278 13.079843278827544 5435.286799106348 21.737818346983516 0.2899723249884789
0.9413920491709201 13.082893806586942 4850.420993772327 22.585567431433223 0.2935190725108313
0.9629706526195526 13.08642612074516 4332.522624306621 23.468191764534943 0.29714933379786285
0.984715758318236 13.090120755746623 3873.5253831686005 24.38700593240906 0.3008636236724619
1.0066261123495934 13.093909596099547 3466.021531635742 25.331960253618718 0.3045668103948104
1.0286850119593 13.097729025404266 3104.2065048096038 26.31574952542811 0.3083562584140129
1.0509033487948654 13.10163590440482 2782.35622702602 27.339960963413034 0.3122343481496587
1.0732463546971331 13.10541744873326 2496.0806116656054 28.402034503853013 0.3161757345127914
1.095710097465261 13.10909412067497 2241.167795450998 29.499803045150752 0.32015847502702816
1.118305101818147 13.112645724522524 2013.8479920919872 30.642677759681515 0.3242299912720469
1.140988891010569 13.115957245906394 1811.0387953742168 31.83251622356762 0.3283919889414896
1.1637663206820104 13.118977243587517 1630.050123041251 33.06503490516508 0.33261361126109706
1.1866207557446282 13.121688076141226 1468.2953264543285 34.342105742999664 0.3369009121995955
1.2095345533789457 13.12394724597012 1323.6012604456964 35.671787644835234 0.3412941329965628
1.2325107572934926 13.125910984734457 1194.112815773702 37.05610502158443 0.34579161371728945
1.2555209939193102 13.127308723114451 1078.092969461461 38.49292661368798 0.3503601501513034
1.2785403783381062 13.128160416748466 974.1369102491915 39.981340338720656 0.3549986895757823
1.301591305727879 13.128540885644615 880.8581619645387 41.53136041019377 0.3597547363075146
1.3246145273360006 13.128284640788388 797.2311888368746 43.14545669641767 0.3646304059761473
1.3476318695782448 13.127397283953561 721.9989194992387 44.82622604090163 0.3696270016982534
1.3706080512399226 13.125855822977593 654.4166104532726 46.56781143617516 0.3746883469935915
1.3935592637262932 13.123801917244421 593.5904022620304 48.379454047005126 0.37986864309542173
1.4163635315298961 13.120470359219722 538.8533199682363 50.266766151485314 0.3851847137007694
1.43913255353788 13.116695341953093 489.52989661160467 52.23295572498496 0.390639296146664
1.4618137073660606 13.112069748686993 445.02333772131965 54.28142025054974 0.39623352676916657
1.4843420451138691 13.10654528949715 404.8961739307373 56.412907695483796 0.40194869332583577
1.5067236754107485 13.10006813792622 368.6945900048694 58.627758558402796 0.4077874902480031
1.5289784038361127 13.092754306342059 335.956106276013 60.93680478829502 0.4137875857045442
1.5510435079186264 13.084445673936983 306.36505092871437 63.344321224991724 0.4199519202752605
1.572905563082408 13.075169770335128 279.6201849149233 65.8548459472063 0.4262810773061058
1.5945569929148744 13.064843268651163 255.40114727645738 68.47327259298497 0.4327817479536886
1.6159999377633743 13.053612750612208 233.45360840969497 71.20469122852644 0.4394682822369224
1.6371610957438565 13.041026048727067 213.54508857188796 74.05457228058057 0.446347582406185
1.6580593875294674 13.02748682960447 195.5085066024423 77.02876991567486 0.4534229717725941
1.6786752319714717 13.012835772503735 179.12110530150903 80.12901595570672 0.4606780796393702
1.698940267713645 12.996900284830819 164.25500015013273 83.36715171935327 0.46815605825888307
1.7189400911737487 12.97996763406666 150.73579702269151 86.75031715321148 0.47586694874934926
1.7385466362737059 12.961698378619577 138.44140152514748 90.28608146573315 0.48381519814871177
1.7577798582911854 12.942264211498824 127.26396649018791 93.98254893862968 0.492008760932159
1.7766296799322951 12.921379253244611 117.06175427746044 97.84843873420118 0.5004676048076655
1.795064974091076 12.899409526958122 107.78914454871546 101.89305719822809 0.5092072275227288
1.8130544240358886 12.87605687576499 99.33441203823567 106.12635163383794 0.5182344099989349
1.8305935174614234 12.851267963621172 91.61057024047219 110.55900636201916 0.5275625145536103
1.847653765585757 12.825146940889097 84.56032112518498 115.20251560278696 0.5372158498550021
1.8642406368981657 12.797846453931276 78.12614073790377 120.06916007324227 0.5472135353920828
1.8803170216550642 12.769132753912123 72.24506103583276 125.1658753353503 0.5575403902679387
1.8958498258792795 12.738937813341495 66.86399393845363 130.51193866482626 0.5682401924976909
1.9108274235253586 12.707289374767582 61.94153872026975 136.12260293941128 0.5793415548480765
1.9252269152052521 12.674140338460148 57.428563273295545 142.01430603429498 0.5908622727165148
1.9390382885228177 12.639714664613072 53.30543072569275 148.2047697974292 0.6028221309174441
1.9522494376324904 12.603696814296272 49.51479905287129 154.71308605055177 0.6152566852000028
1.9648279296449043 12.566307664452108 46.04412127444337 161.55489202083558 0.6281801732172291
1.9767613106004838 12.52742949562821 42.85841003624587 168.74646950405537 0.6415896190076087
1.9880299529483048 12.487058527440974 39.93109912072287 176.32106110143607 0.6555623735484452
1.9986106734238376 12.445072122917963 37.23935601723335 184.3046187459618 0.6701379600814603
2.008513878709214 12.40177706183592 34.769604425197954 192.7141368063963 0.6853027256293857
2.0176814553215103 12.356789597061729 32.49310792307294 201.57982769859487 0.7011112653628682
2.0261287795449885 12.31041333832236 30.402345180220024 210.94380880167796 0.7176432777222311
2.033815617296626 12.262445099562912 28.477933200081925 220.82519653224318 0.734875144005597
2.0407567162847884 12.212979214160706 26.703371615097822 231.26827448096302 0.7528949667589483
2.046929237042501 12.162046639605736 25.06805267020606 242.31607044498708 0.7717629411300045
2.05231934340024 12.109681173708188 23.56128782687851 253.998662013525 0.7914739086039636
2.0568953448422493 12.055669348841622 22.171552261441054 266.37968485060014 0.8121594207475377
2.0606740175045535 12.000332317318342 20.88916945869086 279.49193463839 0.8338122155853764
2.063614741140716 11.943352909313392 19.70671398587513 293.40567779721584 0.8565466927262092
2.0657381380775495 11.88500307738986 18.614476433414126 308.1738269365458 0.880420726425914
2.0670274232183314 11.825239782463111 17.606642393201273 323.85935271320625 0.9054852118408582
2.0674746386450726 11.764090764751638 16.67661128713315 340.54464690101906 0.9318766547920267
