M[M_sun], R[km], Lambda[1], P_c[MeV/fm^3], rho_c[fm^-3]
0.23841724892012095 16.20908015294055 2780876.1263280716 3.453507347168396 0.169602847481901
0.24840795019385897 15.866521680647658 2282366.251268463 3.635467839826418 0.1719774392676662
0.2586849498473767 15.563232649426519 1882023.3023755003 3.824600179136248 0.17437288024897415
0.26924360767999356 15.293983383679606 1558605.368503018 4.019998065948425 0.17676320265542841
0.2800922586268154 15.054307713555124 1295919.005301772 4.222009898671888 0.17914086370414276
0.2912151808347878 14.840307136205466 1060940.2814868074 4.431995037576046 0.18154233777398335
0.30263055531384353 14.64902551086719 906099.9749100469 4.650300766920988 0.18397150500627155
0.3143257903096272 14.477645978700435 761519.5116196994 4.877287613082545 0.1864298914041667
0.32630342082944147 14.323810821009527 642007.6529999818 5.1102520607231545 0.18885746974047243
0.3385652901505383 14.185529516514194 542891.9790794381 5.352437124480646 0.19130743872920014
0.3511084631733344 14.061263127217222 460389.98060710996 5.604313083614131 0.1937873492036432
0.3639364981599226 13.94950520722931 391476.79968276585 5.866291921963165 0.19630285869814396
0.37705124106329235 13.848776830496968 333739.099521733 6.135214191939076 0.1987931256594284
0.3904480615626722 13.75809401764999 285164.4673891963 6.414604471533092 0.20131442489967172
0.40412371248731405 13.67657311675416 244253.85643822057 6.705225084031992 0.2038704281447506
0.41808841841513256 13.603096177827194 209674.36326903504 7.007099790038901 0.20645131189004767
0.4323368634562051 13.537035400890424 180355.5332427079 7.316992185935377 0.20900990793576835
0.4468656162707731 13.477648635374907 155452.19092458856 7.639418205596408 0.2116129806920744
0.4616798423944521 13.42436583942461 134250.55557377884 7.974911351654715 0.21426060486997606
0.4767768666672354 13.3766853937473 116156.1883122902 8.321442921568334 0.21691373874261968
0.49216000329308496 13.334009518715975 100669.79194957681 8.679153674000142 0.21956573863096307
0.5078133963233908 13.295867765099233 87408.84189432823 9.05145455939142 0.22226577257433297
0.5237571618912378 13.262093530434813 76014.74883591432 9.43894950075914 0.22501678517884538
0.5399748017191058 13.231911291929539 66207.8515615185 9.8361002180818 0.22774017674025807
0.5564684436283612 13.205398118698774 57761.824470543004 10.249314770403686 0.23051189055232343
0.57324058227331 13.182065694059828 50462.614052011115 10.679441107103584 0.23333427470206075
0.5902916398521265 13.161658412287888 44147.637701910004 11.12333393132749 0.23615851162214724
0.6076108165387485 13.14390814338897 38676.46046710719 11.582132066770779 0.2390023825226024
0.6251984930709968 13.128644654432522 33932.00585174578 12.059758751266042 0.24190558902186873
0.643060248988064 13.115603609068234 29806.598263704673 12.555686945840707 0.24485440160648603
0.6611791500526918 13.104566664784668 26214.515823769685 13.065293507377582 0.2477848356328491
0.6795646872093001 13.095415901044648 23084.567819084863 13.595840163001608 0.2507739069984997
0.6981995846696694 13.087882028343639 20351.98889660045 14.14823124234912 0.2538232305641743
0.7171034560249856 13.082028864429978 17964.01207092389 14.716176842021545 0.25686595211838487
0.736255547938022 13.077527846069497 15873.954965598812 15.30582499202981 0.25995981570763105
0.7556465880064687 13.0742546658867 14043.111253424946 15.919705813231715 0.2631197378551907
0.7752761128584159 13.072109829929444 12436.529394558009 16.554555457061458 0.2663013080464921
0.7951486978022042 13.070989799382827 11025.303671498661 17.210186167442192 0.269499823861992
0.8152593439172651 13.070794020564797 9783.762344857085 17.892837627722326 0.272770098916786
0.8355856782788377 13.07131725028003 8690.654326619406 18.60279471292988 0.2761073713313736
0.8561322822279986 13.072556826122325 7727.528578646975 19.332323692666993 0.279437807102483
0.8768971569592109 13.074443251107242 6836.130441345438 20.09185353817239 0.2828392430570101
0.897860086934626 13.076779378494416 6127.314762994988 20.882633842657473 0.2863131223794375
0.9190275046280825 13.079676150748119 5463.80096251861 21.69882429183058 0.2898054754400704
0.940387860580285 13.082849399478603 4876.3667597557305 22.544573601681883 0.29334861867795553
0.9619150732061539 13.086191050045858 4356.050633043003 23.42509193807913 0.29697508904038594
0.9836253440553909 13.089868688697088 3895.038951843646 24.34030671815823 0.3006751358969003
1.005518868887505 13.093737201296998 3485.4194225376273 25.28281865440937 0.304374229109533
1.0275438647342907 13.097508786188634 3121.638330073426 26.264123499981977 0.3081595404128028
1.0497211652530185 13.101414577816518 2798.51527340754 27.28571587713683 0.31203304302795554
1.0720356230378596 13.105241107278758 2510.8191436294924 28.34327981153102 0.31595769410949504
1.0944700591037957 13.108846105829466 2254.3592459285596 29.438100360225395 0.31993534281478886
1.1170360257785685 13.112451728294074 2025.856244954952 30.577868133526913 0.3240023167880967
1.139695961129616 13.115763589416192 1821.9512514361707 31.76443110197609 0.3281587838199482
1.1624438730308913 13.118817321961691 1639.9651293850625 32.99141011216695 0.3323614316600589
1.1852655356810553 13.121455634972005 1477.2334345684712 34.26478704187301 0.3366423966555009
1.2081476113580154 13.123821621433642 1331.8503705536896 35.59056362618562 0.3410288865533884
1.2310909762150015 13.125710672289353 1201.6292645232204 36.97075709778576 0.3455202403598841
1.2540855945729907 13.127327494937077 1085.0383162530586 38.400749642689725 0.35006706306749497
1.2770943443772356 13.128187837796013 980.3798456754906 39.88450790172669 0.35469767479808967
1.300091720490961 13.12850744515977 886.6292771329499 41.42959937625407 0.35944523359893965
1.3230968843464133 13.128307233217845 802.4596261674267 43.038476062013444 0.3643119313139136
1.3461038654801893 13.1275247267555 726.7558577700787 44.713350367704564 0.36929792744077755
1.3690588160387385 13.125992351145774 658.7621384313791 46.44646643285852 0.3743356976412736
1.3919344064833101 13.123787354718923 597.783148938369 48.25185273927152 0.3795052066721647
1.4147759675297955 13.120746397633146 542.4838414645338 50.132529320116625 0.3848098027331534
1.4375393364079239 13.117021565441883 492.81361581593006 52.09167989070924 0.39025235710962575
1.4601882983712786 13.112483001341264 448.0851625885579 54.132681678727 0.39583471338962334
1.4826991240143046 13.106977641468488 407.7124764264716 56.252606047516764 0.40151887581993506
1.5050856637372168 13.100658452252684 371.23910953091615 58.458970878780626 0.4073429992750901
1.527313177898316 13.093380794594559 338.3101389829791 60.759000518891064 0.413327484280891
1.5493547106151382 13.085070024044338 308.52429074122597 63.15693527094076 0.41947553381832964
1.571234718935917 13.075964484983032 281.5849127796605 65.65728067661269 0.42578811563896396
1.5928820383645876 13.06572114212495 257.1960757630564 68.264885943199 0.43227007161143677
1.6142952721029733 13.054421026549825 235.1115827700568 70.98478871916353 0.4389367002522564
1.6354737171830336 13.042139456498274 215.0759407152633 73.82241300563416 0.4457952896160688
1.65637422143145 13.028660049428431 196.90907120473938 76.77876416251323 0.452828269148646
1.676965083314835 13.014111615810549 180.42885249913093 79.86496213815006 0.4600601483835051
1.697261567181142 12.998258608722741 165.44705773813257 83.08815575100532 0.46751244385150265
1.7172218305549676 12.981335122753517 151.8393274230826 86.4553875299624 0.4751959908534095
1.736866647990067 12.963296314988826 139.4575598203931 89.97415766498911 0.4831157954339746
1.756112604832128 12.943898361537588 128.18714782508044 93.65249708257171 0.4912793332116322
1.7749757207612595 12.92338867140984 117.93991327334071 97.49903529212658 0.4997052259506064
1.7934408824191572 12.901478452425954 108.59179818682092 101.52298007414291 0.5084097364572024
1.8114440428967251 12.87814810487291 100.05881309309635 105.73418290414165 0.51740036776315
1.8290158941218035 12.853620665565199 92.2865715515359 110.14322356511845 0.5266894675330168
1.8460910391757117 12.827623480237625 85.18332060001637 114.76147249814427 0.5363003303128233
1.8627217840602421 12.800567214828659 78.7066052755313 119.60113144623365 0.5462529013787881
1.878817458517338 12.771829673881877 72.77415506658258 124.6752727866928 0.556555626904286
1.8943717720131248 12.74174829433452 67.3572201949476 129.99115707498188 0.5672066075957314
1.9093970391950685 12.710408832199995 62.40179005981257 135.56884085526966 0.5782535726624944
1.9238278529189197 12.67740056080496 57.855250051092845 141.42516544624274 0.5897174808451134
1.9377066176154436 12.643210664465322 53.69726566948601 147.57765812543786 0.6016158319772934
1.9509567793834734 12.607373097756174 49.87728075899489 154.04518868207842 0.6139839675113888
1.9635816725277648 12.570121883571884 46.378473658774844 160.8481547884717 0.6268539666821069
1.9755768648340593 12.53147107920064 43.16985876109351 167.9958224773632 0.6401986353941554
1.9867125532096392 12.491596830374146 40.25855365649218 175.62725775123883 0.7737516857777884
1.9935484608629956 12.453146800736882 38.13053490400882 184.351959609872 1.1834541552543985
1.995129198260128 12.412802539881065 36.70472786577463 194.5083167696558 1.5708062275247567
