M[M_sun], R[km], Lambda[1], P_c[MeV/fm^3], rho_c[fm^-3]
0.23841724892012095 16.20908015294055 2780876.1263280716 3.453507347168396 0.169602847481901
0.2484100806061493 15.866425413429292 2282424.4513902604 3.635481238887937 0.17197760970879628
0.2586879398172013 15.563098756324488 1881934.173273809 3.8246277400644493 0.1743732174046379
0.2692459830304436 15.293906245147648 1558534.7502765732 4.020042467290501 0.1767637458216037
0.28009572874603234 15.05425056230189 1295871.388622781 4.222070699602959 0.1791415746767011
0.29121901298205205 14.84024712867572 1081541.5581418585 4.432073075268528 0.18154321585564612
0.3026349550743979 14.649012706558022 905988.3010603712 4.6503969226766255 0.18397254642345381
0.3143317326700615 14.477498189502237 761407.4907100894 4.877407836930245 0.18643119349138842
0.3263112787080839 14.323699838560131 641956.427005018 5.110393004276055 0.18885893838774945
0.3385736561698021 14.185463558673696 542885.8699877913 5.352599762609187 0.19130906155066457
0.35111820724964615 14.061201543651755 460334.39576174837 5.6044984340927595 0.193789130615302
0.3639489137300377 13.949343667009671 391432.1763539113 5.866501076909168 0.1963047955092971
0.37706334524772395 13.848726185865 333667.68230167887 6.135458025796049 0.19879538360332466
0.3904600336085412 13.75806196893967 285118.14956088946 6.414875250592872 0.20131683833253172
0.4041405728149362 13.676479497206818 244228.3961177435 6.705524020042242 0.20387298390405864
0.41810374986623594 13.603041625226714 209638.22033630783 7.007441799151991 0.20645423590369688
0.4323533763036025 13.536970200005012 180318.96630132175 7.317365891734153 0.20901298851085975
0.4468828405053962 13.477613749321579 155433.27918793555 7.639825069634998 0.21161621546879858
0.4616992476084221 13.42430384697653 134220.99606486433 7.975352892547639 0.21426398541940037
0.4767992641491261 13.376590777861551 116128.43694401038 8.321939852589281 0.2169175433729579
0.4921787555424823 13.33392104656844 100653.46754095153 8.679689474090907 0.21956968061592447
0.5078370013480998 13.29581543370628 87388.37896818509 9.052030965050092 0.22226986600590345
0.5237823104045293 13.261935156379133 75996.81547799775 9.439568408600417 0.2250210292310873
0.5400015225234522 13.231875571818678 66192.09664522592 9.836789190373628 0.22774490124721164
0.5564992821373397 13.205411415979073 57745.83190104907 10.250051337077847 0.23051675793772763
0.5732729517201486 13.182012333208778 50447.45128328845 10.680227384888331 0.2333392773392469
0.5903204117462107 13.161568575400613 44136.26387287915 11.124204227670969 0.2361640488215128
0.6076476345711097 13.143860133889357 38668.07496643862 11.583057935340243 0.23900807616364123
0.6252345926473908 13.128620873586671 33639.94924204418 12.060742831210707 0.24191144040792995
0.6430978220493586 13.115588121909807 29801.776662784898 12.556771231218919 0.24486084881881146
0.6612169556774917 13.104520925492023 26206.796194467057 13.066442850605174 0.24779142792165612
0.6796049571844434 13.095421255334202 23078.567768635563 13.59705752447522 0.2507806442372923
0.6982416672494918 13.087884871041386 20346.649991529037 14.149519846595156 0.2538301341547937
0.7171546928512285 13.082190684496931 17960.266352094888 14.717589209773529 0.25687351876174636
0.7363013673535043 13.077490257115407 15755.241811976162 15.307317087909427 0.2599675574578961
0.7556954962439233 13.074265621290762 14038.637175131971 15.921281464305286 0.2631276342831659
0.7753293225326983 13.07208727647798 12432.07344965294 16.556277517736167 0.26630993821107285
0.7952049380916526 13.07097057161166 11021.035690673834 17.212001537627472 0.26950862313262
0.8153167114501898 13.070759584518074 9779.880299262668 17.894750921247866 0.2727790926740663
0.8356465345362009 13.071310385522429 8687.545721432336 18.604880803104603 0.27611717734829977
0.8561938932758381 13.072606191807282 7725.184483483583 19.334519489768105 0.27944782199567514
0.8769587636622502 13.07450551054507 6875.665922372433 20.094164500423005 0.2828494404210446
0.8979207210531099 13.076821804861313 6125.11661945587 20.8850656824677 0.28632352784695164
0.919092436283329 13.079705240117997 5461.874516115052 21.701467775227147 0.28981678649785125
0.9404545208329337 13.082898192573897 4874.84960063168 22.547352596086373 0.2933601738376139
0.9619869365049116 13.086208408608801 4354.66699313107 23.428013638213592 0.2969869009425028
0.9837059739905012 13.08992535910183 3893.4572631241376 24.343477725652807 0.30068795570331913
1.0055916610527287 13.093707283789582 3484.1783891632726 25.286149688090273 0.30438728311587165
1.0276197623064458 13.097510189460445 3120.58923118016 26.267622865316334 0.30817287454317854
1.0498117064218948 13.101445318922977 2797.2845184234916 27.289392692058573 0.3120466877970233
1.0721199920520592 13.105211066425925 2509.68392789428 28.34726209394337 0.31597247247746724
1.094569248516312 13.10892339147978 2253.43653154405 29.442282361882977 0.31995046597000604
1.1171086690573342 13.112447536869764 2025.1865211122579 30.58226061770838 0.32401774746759004
1.1397824054018746 13.115804305406613 1821.304948567623 31.769045482068424 0.3281745889921373
1.1625295118227934 13.118779128352044 1639.257784061177 32.99639967746009 0.3323785219163943
1.1853523798106722 13.121459505619594 1476.6855995302353 34.2700268265935 0.3366599159073535
1.208246456001658 13.123814651542295 1331.2401691802484 35.59606794367915 0.3410468615398707
1.231192136371792 13.12574482256155 1201.089181857886 36.97654074690303 0.3455386301250846
1.25416750959354 13.127188681984032 1084.5299316387286 38.40699573135856 0.3500869232114478
1.277189233807679 13.128131947503391 979.955403657367 39.89106929893837 0.3547180716566666
1.300188913274159 13.128525734743013 886.2404992317347 41.436494570950074 0.359466205098068
1.3232027272384221 13.128267898571556 802.0727134464839 43.04572475217801 0.36433351021148375
1.346205436800872 13.127507413675044 726.439788962003 44.72117156949496 0.36932121066967527
1.3691579525138906 13.125940749641243 658.4448963698918 46.4546877467178 0.37435959018673026
1.3920576117058847 13.123706484553267 597.2908738237182 48.260497705613844 0.3795298294264486
1.414886106398317 13.120731273488431 542.2139859276554 50.14162360329164 0.38483520221904827
1.4376390548080025 13.116957364997237 492.61080116364224 52.10125079569637 0.39027857077014516
1.4602802778239454 13.112332687046061 447.8671197588457 54.14275788004735 0.39586173075204845
1.4828203716086745 13.107000850406122 407.52222278207523 56.263464949442735 0.4015479918408983
1.5051936214683155 13.100557505313756 371.04690862184805 58.47040430430443 0.4073731084302499
1.5274338410488675 13.093430307513149 338.1712441803288 60.77104436531269 0.41335864996045213
1.5494671438379009 13.085045513235507 308.38175884773665 63.16962777043211 0.4195078016309995
1.571334328344091 13.075882822425166 281.4657277763301 65.67066226074708 0.4258215051512202
1.593005198945966 13.065722361069708 257.0645183026122 68.27900004722208 0.43230472763728156
1.6144199016170278 13.054482368282475 235.00704911457598 70.99968232180967 0.4389727033468841
1.6355901372459687 13.042054314665513 214.9731974142759 73.83813622349825 0.44583269419473903
1.6564920729976984 13.028634725746748 196.81508403722646 76.79569656730416 0.45286855030944617
1.6770797825160633 13.01392942660899 180.33732355360266 79.88284371637552 0.4601019943457864
1.697397159571487 12.998413213617836 165.38063438287915 83.10704854579615 0.4675560275455433
1.7173407969783339 12.981236532411407 151.75859619003901 86.47535859232714 0.47524142454649304
1.7369713670822746 12.963104266424352 139.38240525333117 89.995278709197 0.4831631535247065
1.756232489116803 12.943804572675264 128.127811077035 93.6748447788301 0.4913287225086217
1.7750763224666695 12.923045357042461 117.86843961022495 97.52269236772113 0.4997568443724114
1.7935347423731 12.901200065680841 108.52453760099827 101.54803591507793 0.5084637300925409
1.8115430437158806 12.87799547553424 100.01579781567935 105.76073336926972 0.5174568337881533
1.8291255624260236 12.853491170844062 92.24285044219558 110.17137157408186 0.526748571795012
1.8461972602094303 12.827554216250652 85.14933093589268 114.79132933080292 0.5363623072794255
1.8628202632988644 12.800339736043966 78.66709676266099 119.632817440723 0.5463179434703939
1.878931001961056 12.771765365269719 72.74581651735826 124.70891738039691 0.5566238646771822
1.8944883888597603 12.741688657849993 67.32875523603664 130.02640806232358 0.5672765695318022
1.9094909149349828 12.710126908742398 62.36558121944944 135.60632247477918 0.5783272131941973
1.9239258997785464 12.677244885258293 57.82874507309332 141.46503974211785 0.5897949628090476
1.9377859940738575 12.64289213516505 53.66927491892668 147.62010027707953 0.6016974728154881
1.9510469467303042 12.607102462168577 49.850945727831146 154.0903888571481 0.6140700991014431
1.9636653631924188 12.569845293092898 46.35765326563477 160.89631927962392 0.6269449057673864
1.9756713775079389 12.531306576968642 43.150930356240636 168.04696708973128 0.640294167079241
1.9869709673622153 12.490885001172732 40.1996394267096 175.57462345851167 0.6541918672345002
1.997613089508079 12.449225070079885 37.49223096985073 183.50763092085614 0.6686869548076253
2.007578184427003 12.406116070431763 35.00229761578874 191.87123083439383 0.6837951840735197
2.016790285287147 12.361327501269734 32.715295215282524 200.67860138150598 0.6995122044506303
2.0253102108801997 12.315110030039483 30.603075278937588 209.9796357107157 0.7159458586174232
2.0330711070864997 12.267345166582972 28.66550547837087 219.8022833423188 0.7331038236698829
2.0400840674485554 12.218111401550878 26.876655174777895 230.17237720186353 0.7510112921408538
2.0463256885917684 12.167374136231171 25.231086328347125 241.1487973880301 0.7697843732478855
2.0517823116744625 12.115134050976376 23.712541162065968 252.74845705138182 0.7893733883456825
2.0564549357893642 12.061435890648166 22.311552406204882 265.0439517893034 0.8099409505834537
2.0603017998932653 12.00616812557075 21.019159731433394 278.06049301330506 0.8314589658777846
2.063339927750292 11.949517366552815 19.82899385908741 291.87706081128175 0.8540668413659617
2.0655483615553436 11.891413518756913 18.72931933523699 306.5289046384774 0.8777702709380899
2.0669394610149134 11.831917606576141 17.713724021623534 322.09906600286575 0.9026872117804471
2.06746728526985 11.770923160836261 16.776165816301326 338.65630097389266 0.9289095611482093
