M[M_sun], R[km], Lambda[1], P_c[MeV/fm^3], rho_c[fm^-3]
0.23841724892012095 16.20908015294055 2780876.1263280716 3.453507347168396 0.169602847481901
0.24840588467570085 15.86648383074292 2282432.4015638293 3.6354005954206214 0.17197658389339246
0.2586779873265706 15.563437272767093 1882194.8677080935 3.824461864239503 0.1743711882286446
0.2692326529238975 15.294217913620617 1558939.3443809326 4.019775240834952 0.1767604768129429
0.2800726483349058 15.054789323453242 1296320.8758581069 4.221704777866434 0.17913729578970713
0.29119344528099433 14.840739381090618 1082090.9264372056 4.431603422178262 0.18153793130976442
0.302603833709639 14.649472658382177 906435.8445346191 4.6498182366618925 0.18396627895090495
0.31429408841237255 14.478025692890927 761834.711719719 4.8766843140366145 0.18642335735960217
0.326268257018597 14.32422782368862 642333.4321911033 5.109544797071205 0.18885009997566107
0.3385249778146807 14.186066430221972 543203.1726450591 5.351621006839779 0.1912992954159625
0.3510615756998303 14.061716375360547 460688.1729447098 5.603383007402618 0.19377841019998354
0.3638838206599495 13.949908708761454 391771.34388130304 5.865242409669422 0.19629314003188844
0.37699321441728456 13.849160789054315 333957.3328344115 6.133990686246734 0.1987817957840601
0.390385025198117 13.758596902940752 285379.75394166773 6.413245777169864 0.20130231496168172
0.4040530886463834 13.676913069861625 244447.41490193867 6.703725123698823 0.20385760420433613
0.41800964727340567 13.603504083860658 207246.92842567482 7.005383733332722 0.20643664042943552
0.4322518688697382 13.537336910722225 180506.13077903565 7.3151171103762485 0.20899445109490344
0.44677448384238694 13.47800332737763 155599.06059400627 7.637376781080626 0.21159675032546182
0.46158196654153605 13.424721650042656 134379.4730642549 7.972695961931109 0.21424364328255627
0.4766630003873494 13.376971214614407 116277.78105971313 8.318949661578895 0.21689464970974184
0.4920434873292869 13.334291569985453 100780.8623516255 8.67646542467489 0.2195459606604191
0.5076942024581443 13.296231455426575 87502.25833874803 9.048562611964481 0.22224523497425994
0.5236252164593075 13.262273651593953 76101.38864805533 9.43584434339489 0.224995492105476
0.5398379317619266 13.232185028820364 66285.95861815615 9.832643599369142 0.2277164735821811
0.5563201408299895 13.205625496861009 57830.21372892017 10.24561940535206 0.23048747081335555
0.5730860460044308 13.182303693154353 50524.979532545825 10.675496380343084 0.2333091766550803
0.5901268010275099 13.161781268385 44201.43294779799 11.118967767889258 0.23613073221390168
0.6074396245119298 13.1440423392385 38725.69686723292 11.577487150490663 0.23897381854837685
0.6250182694292861 13.128819737950012 33977.38377303288 12.054821847069489 0.24187623395518143
0.6428672012505106 13.115684432002542 29845.59509541298 12.55024743755623 0.24482205803203538
0.6609734709558286 13.10460040298302 26251.362219333703 13.0595276802556 0.2477517645739286
0.6793539885732653 13.095503213677501 23117.622178292822 13.589733171483159 0.250740109099473
0.6979780387465905 13.087960159002021 20382.24932112545 14.141766916359376 0.25378859847259055
0.7168732180536467 13.082102278570117 17991.409642931856 14.70909179025047 0.2568279945397911
0.7360115262808663 13.077601319961177 15899.32843138036 15.298340058800074 0.25992098007742337
0.7553952381492501 13.074300502442547 14065.07528254067 15.911801807571265 0.26308012666686353
0.7750179178956144 13.07210537079377 12456.288299744961 16.545917182860244 0.26625801704685154
0.794881468753122 13.07095403402782 11042.615068591138 17.20107991326774 0.26945568498853373
0.8149754971540136 13.070739970760398 9799.757997910108 17.883240258152263 0.2727249848706188
0.8352945209793926 13.071303499337864 8705.533158148317 18.59233078283002 0.2760581838720214
0.8558259880597587 13.072534374778174 7741.125233493105 19.32130956734387 0.27938757236601286
0.8765781625106365 13.07440424322142 6890.004533252468 20.08026184923731 0.28278809351018636
0.897532511081795 13.076796736120087 6138.45903203461 20.87043594744495 0.2862609294669599
0.918691749358045 13.079643079207711 5473.957077391162 21.685565088185975 0.28974874135248496
0.9400456471163096 13.0828002967521 4885.398551710142 22.53063482745164 0.29329066074849286
0.9615593261199543 13.08617017139261 4364.514219174403 23.410437519710865 0.2969158438929105
0.9832576863485842 13.089867329864012 3902.5737525958757 24.324402185975924 0.3006108367667001
1.0051387971007364 13.093629492198309 3492.0983745661442 25.26611164680725 0.3043087559249211
1.0271613144706633 13.09747784654186 3127.7908972245696 26.24657237620337 0.30809266286492104
1.0493224864987023 13.101314075099836 2803.998591795709 27.267274923587145 0.31196460810318205
1.0716372416203814 13.105189499953996 2515.642933239457 28.323307235237333 0.3158835752873578
1.0940549143863865 13.108829983300778 2258.968584870021 29.41712631806204 0.31985949547632747
1.1166014918697196 13.112376644967602 2029.9686591756624 30.55583866563891 0.3239249278563795
1.1392527711182663 13.115711642835102 1817.040384977357 31.741288990042317 0.3280795174707064
1.1619917871490115 13.118758299926643 1643.3313150292643 32.96638693352133 0.33227572228213614
1.18479481586554 13.121383203027923 1480.3989603149662 34.238509244903405 0.3365545366826584
1.2076837175450281 13.123773528247511 1334.6110466359937 35.56295945850992 0.34093874194574036
1.2306072593681605 13.125657531431992 1204.2003245139804 36.941752374280455 0.34542801656757705
1.2535855248023833 13.127160688706951 1087.3226498735241 38.36942654129282 0.3499674677309936
1.2765884124932818 13.128146908059215 982.5675344432628 39.851603919779585 0.3545953889823188
1.299584320037658 13.1284919912903 888.5967510606583 41.395021836308096 0.3593400671923613
1.32258736323722 13.128350622745565 804.2497766640206 43.002126227934646 0.36420372012975893
1.3455802300787076 13.127531291596544 728.380087852572 44.67413052545289 0.36918117242167037
1.368516848846006 13.126012604151027 660.248472691354 46.40524066125241 0.3742158884916726
1.3914146084258217 13.123767994039142 598.8999619966934 48.20850304952853 0.3793817372777727
1.4142470540650456 13.12086245710475 543.7164671812031 50.08692708053421 0.3846824399252491
1.4369707422240705 13.11706811634099 493.98996029824957 52.04368824928077 0.39012091325997217
1.4596243270898737 13.11255555702808 449.1229703105663 54.08215692199712 0.39569924113965405
1.4821411669113749 13.107132827892087 408.6468992568088 56.198158009599254 0.40137288405905375
1.504549425661071 13.101017994059944 372.1369992008499 58.401642810225894 0.40719202967218926
1.5267597491059535 13.093655210112551 339.1126374450855 60.698612519788874 0.41317121916728244
1.5487861368734002 13.085357711846347 309.268035696524 63.0932957442259 0.41931374469808314
1.5706610207179785 13.076281317897815 282.27930420448905 65.59018700734619 0.4256207046007947
1.5923046684862483 13.066022157251911 257.81668021601445 68.19412046894509 0.4320963127883013
1.6137161097123571 13.054725793383628 235.6709475357081 70.91011602596367 0.438756189995386
1.6348932540096444 13.042500397504181 215.6026217296354 73.74249005472115 0.44560303777300125
1.6557694703855594 13.029110738469047 197.46048249191884 76.69387298213175 0.4526263181954482
1.6763834022936033 13.014421886019027 180.86512202411694 79.7753135766459 0.4598503553621076
1.6967024146174217 12.998826404905378 165.85101476845438 82.99343893845976 0.4672939421092142
1.7166769355412075 12.981927275931994 152.20416136205583 86.35526651289565 0.4749682179148678
1.736287175699278 12.963789635813242 139.79596838931252 89.86827313414045 0.4828783787054416
1.7555461049780217 12.944524659735647 128.51539759662452 93.54046490776594 0.49103173765234565
1.7744205266573991 12.923994354813658 118.23141113220271 97.38044100729209 0.4994464598240078
1.7928706761553814 12.902059823465418 108.8554936481872 101.39737586517109 0.5081390679183266
1.8108914935987066 12.878839760935566 100.31074059663581 105.60108854178343 0.5171173102138202
1.8284716671514403 12.854386274560307 92.51675944352145 110.00212346156378 0.526393190183564
1.8455751912857177 12.828556054978092 85.40440894188957 114.61180920017782 0.5359896584701103
1.8621788989860155 12.80135775410521 78.90640796000969 119.44230214128565 0.5459268712077742
1.8783089266699484 12.772762929286626 72.9543917340048 124.50662910024006 0.5562135847420965
1.8938925553719763 12.742916765609971 67.53309118651316 129.81446287314338 0.5668559261145779
1.9089005937788046 12.711394020814074 62.55642118532758 135.38096957969225 0.5778844599932375
1.9233724113502462 12.678638986463444 58.002968700585065 141.22530545618991 0.5893291217731518
1.9372535135458147 12.644434881800125 53.8337662301968 147.36493201705895 0.6012066364694743
1.950524134887651 12.608719407918025 50.006282680317554 153.81864401274967 0.613552273329729
1.9631583977263407 12.57147350050656 46.49779746846647 160.60675838925047 0.6263981875965237
1.975179257476507 12.532911498386497 43.27758781205287 167.7417405182994 0.6397288990509203
1.9865017699216587 12.49268169902929 40.32149730640565 175.24894258043827 0.653593896722212
1.9971958514831631 12.451149919040969 37.60319422027489 183.15992254976555 0.6680539129162487
2.0071521710359166 12.407886293580942 35.1037058145262 191.5022808058241 0.6831334924797404
2.0164025987669403 12.363286670994869 32.80988655789399 200.28546987892074 0.6988146646570921
2.024948364716961 12.317173835743324 30.693244475059487 209.55908257569 0.7152054781477016
2.0327433412536675 12.26954485957683 28.749267463293076 219.35613570098565 0.7323312552861644
2.039794071615118 12.220407744513384 26.954236382572677 229.69444144491166 0.7501897959371314
2.0460552696163163 12.169675372515073 25.302122551052978 240.63647721491725 0.7689102556772184
2.0515525434064297 12.117523130886028 23.77778035798417 252.20331484836203 0.788457472735234
2.056259149308981 12.06388816145714 22.371678149648947 264.4587413740066 0.8089645430741981
2.0601407310921256 12.008800701662647 21.07890133186638 277.4364333761392 0.8304330294141907
2.06321525759107 11.952255272317036 19.882037446207868 291.20903702360425 0.8529805023120753
2.0654656723834073 11.894196077577286 18.778444335576573 305.81190903759096 0.8766149793310963
2.0668459750840253 11.834970551848661 17.764438770317074 321.4445850374737 1.0022023752779767
