M[M_sun], R[km], Lambda[1], P_c[MeV/fm^3], rho_c[fm^-3]
0.23841724892012095 16.20908015294055 2780876.1263280716 3.453507347168396 0.169602847481901
0.2484066217747387 15.86656738077514 2282534.318951433 3.6354456353761133 0.17197715681866055
0.2586833337926252 15.563234041903401 1882058.160281088 3.824554506451235 0.17437232153033022
0.26923989355378797 15.29402496041373 1558666.7270653953 4.019924486644265 0.1767623025522479
0.2800866947123486 15.054432995727954 1296048.893223694 4.221909143589452 0.1791396855297716
0.29120850021470374 14.840414918702411 1081854.8007464744 4.43186571975102 0.18154088268725266
0.3026206750449035 14.649209333906661 906200.116128745 4.6501414262738665 0.1839697792636299
0.31431372199742036 14.477746309097268 761598.1548383747 4.877088390432512 0.18642773371855065
0.3262921138771402 14.323928766282002 642151.134475269 5.110018504898003 0.18885503606316278
0.3385527580661375 14.185723681704555 543074.458348538 5.352167620410553 0.19130474958740037
0.35109318770057535 14.061465945370967 460493.3166442003 5.6040059451476285 0.19378439728223923
0.3639198699681288 13.949570197383288 391581.31109882967 5.865945339774643 0.19629964928683888
0.37703230021186773 13.848889845623377 333792.0101056443 6.134810147773797 0.1987893841402311
0.3904284358179008 13.758406065378468 285257.0371801813 6.414155780312072 0.20131042574945054
0.40410213212087437 13.676621603105957 244310.87887058512 6.704729738268251 0.20386619317638624
0.41806165104908416 13.603229397257204 207126.01827496316 7.006533075245952 0.20644646675076228
0.4323074142658966 13.537186063282496 180415.01625128655 7.316372952367159 0.20900480339762023
0.4468342446726094 13.477746315242282 155500.2313721347 7.6387440319226645 0.21160762066734617
0.46164762774195284 13.424469652180534 134287.29876857868 7.97417972201812 0.21425500332731845
0.4767429225966034 13.376784863388462 116185.38006857489 8.320619517428453 0.2169074345510133
0.4921223866518174 13.334149391405548 100707.2809589484 8.67826586887691 0.21955920687685412
0.5077746606632068 13.296091535318695 87441.56424512369 9.050499476497682 0.22225898990936283
0.523713146217623 13.26205637287057 76038.84102644253 9.437923998039626 0.2250097529733609
0.5399291167031762 13.232075344890134 66237.0375684248 9.834958630868666 0.22773234850566787
0.5564208161479848 13.205481034307649 57782.247033920066 10.248094327560905 0.23050382561280336
0.5731895130372238 13.182164661160044 50481.76047283875 10.678138301975636 0.23332598569592855
0.5902394906566116 13.16173375543832 44165.494584304666 11.121891925417966 0.23614933696081816
0.607554702609441 13.143971207056374 38694.90706218976 11.58059798915635 0.2389929486919807
0.6251379388148555 13.1286930246475 33948.07131365242 12.058128229861799 0.24189589386420493
0.6429944711315405 13.115631829949693 29819.611578208103 12.553890409239179 0.2448437193145791
0.6611139710535842 13.104565813975764 26226.24126282176 13.063389185441396 0.24777391301210053
0.6794966812401017 13.095407488184582 23094.883425796033 13.59382315153743 0.2507627442599244
0.6981246018656059 13.087919360422957 20209.520700446486 14.146096199609424 0.2538117922493656
0.7170268095929199 13.082031785853676 17972.827183214056 14.713836760031098 0.2568534153227568
0.7361740446598338 13.077490057640427 15881.105583405108 15.3033528226077 0.25994698883870104
0.755562618423574 13.074305350740445 14050.216516410817 15.917095216560751 0.26310665476279144
0.7751923626319598 13.072094354054961 12443.009434349075 16.55170230868829 0.2662870093981371
0.7950651883522465 13.071020157211775 11030.644500009157 17.207178433930068 0.26948524509378013
0.8151671500682368 13.070783851439812 9788.751282284336 17.889667666039916 0.27275519797995695
0.8354941020281862 13.071275138166312 8694.979600121571 18.599338491377548 0.2760911247819896
0.8560334749103159 13.072597022087447 7731.965353296296 19.328685723940108 0.27942121455473906
0.8767928910028647 13.074453234830667 6840.115439825854 20.088024780625886 0.2828223482615667
0.8977521083419123 13.07674768018164 6130.8386752520355 20.878604833618517 0.28629588287110613
0.9189166401944001 13.079668535703876 5466.97952569828 21.694444677630436 0.289786735746324
0.9402712847794912 13.0828720291142 4879.66352448272 22.539969496892194 0.2933294746430331
0.9617973058465427 13.08618844136477 4358.928278295117 23.42025142479258 0.296955519725773
0.9835032191245477 13.089837346325783 3897.5185019061837 24.335053215803185 0.3006538969426159
1.0053921905961996 13.093693620217486 3487.9366604477796 25.27730005427413 0.30435260223690214
1.027421218209386 13.097569823862255 3123.804471721683 26.258326044517634 0.30813744954213834
1.0495900669620843 13.101405672879759 2800.3069321639773 27.27962446307432 0.31201043760996516
1.0719006961016988 13.1051580237065 2512.305276149866 28.33668239079398 0.3159332108857495
1.0943348902500374 13.108889307760439 2255.8548301006476 29.431172094807717 0.31991028848868464
1.1168859314408268 13.112355150767266 2027.201722639339 30.570591195164646 0.32397675309818413
1.1395471108050614 13.115691149011582 1823.2092142192128 31.75678658567562 0.3281325998268627
1.1622972028292462 13.118813034767044 1641.0833246013556 32.98314411974725 0.33233311898730694
1.1851104090857298 13.12146340546608 1478.34718166735 34.25610655956103 0.336613373410475
1.2079977540013611 13.123803779202003 1332.7880484720827 35.581444946144366 0.34099910844726167
1.2309426384348785 13.125710275558953 1202.4268836214721 36.9611757081721 0.34548977525010355
1.2539126082228609 13.127143701359852 1085.7233884050122 38.39040226712779 0.35003416241893087
1.276918728820855 13.128117415262787 981.1101210783821 39.87363823027534 0.3546638851730725
1.299918434161096 13.128482627821828 887.2824187329887 41.41817678588167 0.3594104921805172
1.3229341143867028 13.128338688420177 803.0214472047737 43.02646792741896 0.36427618384774524
1.3459281660662905 13.127523043790172 727.2996514542424 44.70039395286801 0.3692593570035969
1.3688707298329468 13.125908349813146 659.224507571227 46.43284726828222 0.3742961180175918
1.3917773007291996 13.123742586530064 597.9917913902012 48.23753183662837 0.37946441761030564
1.414607734034774 13.120820065574268 542.8874161779703 50.117464173738185 0.38476772718243885
1.4373485006775963 13.117041890275228 493.232414577162 52.075825278080075 0.39020893306208926
1.4599956695811742 13.112472782590483 448.4331294598704 54.11599010948574 0.3957899582124194
1.4825058339317816 13.106979423644315 408.023168357998 56.23461811069317 0.4014706446866943
1.5048942847207136 13.100648330933529 371.52990441711245 58.44003133847145 0.40729312327278117
1.5271276979973867 13.093431998675749 338.56596190068694 60.73904992440465 0.4132758584287295
1.5491673038006588 13.085165417832682 308.7739686661707 63.135910305325595 0.4194220825928777
1.5710408365641682 13.076034953328454 281.8110293887939 65.63511438106782 0.42573280665690794
1.592694466396709 13.065905713605359 257.4253452309003 68.24150638523999 0.43221266502271233
1.6141180086093452 13.054639532753415 235.2985292967296 70.96011809880082 0.43887706265478943
1.6352758180547686 13.042241816288364 215.25278050324087 73.79634186900218 0.44573321661632737
1.6561725818286481 13.028848375595423 197.07999122011626 76.75071686985322 0.4527615463458548
1.6767684482348373 13.014134681737396 180.5691474073541 79.83534280330576 0.4599908340560412
1.6970788612577816 12.998481184933645 165.58333192196014 83.05686163111538 0.46744025160246505
1.7170437645888792 12.981507861171476 151.9543279464643 86.42230759042575 0.4751207347757568
1.736681931092293 12.963405091556817 139.56033918182095 89.93917315030308 0.4830373523511229
1.75592711308967 12.944182033007081 128.30048584537545 93.61548103185683 0.49119752626826774
1.7747897496809635 12.92347505617203 118.02807492221143 97.459850715988 0.4996197273871306
1.7932404692104904 12.901554798940687 108.6667738505489 101.48147895871061 0.5083203043723405
1.811269617018342 12.878456003576266 100.14560018443252 105.69020651910255 0.517306841278955
1.8288499635332849 12.85398390137483 92.36465565925195 110.09660149045298 0.5265915720364163
1.8459309281782534 12.827936085137724 85.25811129946786 114.71202047286894 0.5361976775447304
1.8625441025172178 12.800857224019065 78.77375116578942 119.54865021296467 0.5461451727359957
1.8786534264261021 12.772181770975008 72.83706377666108 124.61954802418876 0.5564426062590706
1.8942152661927283 12.742076573332556 67.41151732575042 129.93277190466256 0.5670907317051139
1.9092400327692838 12.710749012834112 62.45113043917961 135.5067617214279 0.578131605135915
1.9237028201753654 12.677994004591996 57.90720096294664 141.35912404735836 0.589589152126719
1.937551288567085 12.643494406076087 53.73496466051169 147.5073644157209 0.6014806164625486
1.950819636786688 12.607910010513718 49.9251669984498 153.9703278041611 0.6138413157088696
1.9634489248900444 12.570594516679078 46.41943706015128 160.76838519217347 0.6267033541884017
1.975443940530768 12.531985098921401 43.206990785507294 167.91211059037062 0.6400444179596207
1.9867671912128322 12.491749688567825 40.254184413006755 175.4307278154189 0.6539276658115453
1.9974269316209123 12.449984647619473 37.53864364016193 183.35400074785403 0.6684072539336293
2.0073837426150654 12.406810914661353 35.04610755562141 191.70875624670506 0.6835045974590589
2.0166266165056563 12.362177312904958 32.75343490524422 200.5048975817237 0.699203998896407
2.0251528515134343 12.316000002363216 30.643215700397416 209.79381298818032 0.7156187191833365
2.032925591829641 12.26825767058316 28.699633266605026 219.60514959965303 0.7327624584292362
2.0399666732979203 12.219184278669475 26.91130654342415 229.9611943228847 0.7506483020718984
2.046208775188833 12.168355986496959 25.26060442031825 240.92241761082423 0.7693981254456624
2.0516921057085566 12.11626342803005 23.741895985577116 252.50757133074248 0.7889686664389112
2.05635356364573 12.062478207426764 22.339111435655397 264.7853564714405 0.8095094913960919
2.060235402153739 12.007375197965986 21.046100768563154 277.7847272984567 0.8310056148109589
2.0632811840285514 11.950720286957354 19.853332047377876 291.5825937801316 0.8535891321199798
2.0655141818657587 11.892642979896388 18.751111503481784 306.2120613758769 0.877259742893619
2.066907605424596 11.833106322664792 17.73393696890827 321.7600256295525 0.9021483024201482
2.06746083391515 11.772192276752214 16.79502466865435 338.2909277478507 0.9283324375363415
