M[M_sun], R[km], Lambda[1], P_c[MeV/fm^3], rho_c[fm^-3]
0.23841724892012095 16.20908015294055 2780876.1263280716 3.453507347168396 0.169602847481901
0.248419682025171 15.866095211083701 2282096.2105861707 3.635648911027573 0.17197974256182652
0.25870613099623535 15.562684504210903 1881336.7919883465 3.824972641755701 0.17437743662243024
0.2692768664808767 15.293249060532474 1557734.9462295768 4.020598132843588 0.17677054333535225
0.28013572903844247 15.053416484108403 1295044.4138071388 4.222831625006381 0.1791504725187452
0.291272527599177 14.839386086662444 1080779.7986351012 4.433049750808733 0.18155420542818532
0.30269876395594286 14.648012056141068 905155.1578121975 4.651600391415302 0.18398558062004927
0.31440681154751915 14.476504948945257 760599.6172731359 4.878851010064089 0.1864462454173204
0.3263988335094782 14.322658713027499 641173.0489546962 5.112157149198311 0.1888773209712943
0.33867568676419324 14.184436712050479 542111.664703251 5.354635511813018 0.19132937448425402
0.3512361020360677 14.060173542757415 459673.0713991913 5.60681854171916 0.1938114292724513
0.36407617437114265 13.948339934308056 385152.67476837034 5.869119228339792 0.19632904004660487
0.3772085379432286 13.84767873092594 333093.41351571126 6.138510396401838 0.198823649085666
0.39062194921892734 13.757101756892157 284599.0924651703 6.418265020400195 0.20134705108918838
0.40431676271392614 13.675452272344481 243742.39282435147 6.709266374754777 0.2039049792393899
0.4182974722041736 13.602012438351156 206601.55280175427 7.011723550338641 0.20649084281980856
0.4325647812516045 13.536046561401117 179935.35815122622 7.3220445881004865 0.20905155648474086
0.4471120177377756 13.476708568367583 155072.77133710915 7.64491902778229 0.2116567150354495
0.461947374154563 13.423584671878261 133903.07443761683 7.980881144324546 0.21430631112164295
0.47706404837799204 13.375793637603266 115837.72642386588 8.328161858083144 0.21696518063017997
0.4924617671967713 13.333261071251906 100393.21645004272 8.686398316882517 0.21961903887070772
0.5081405142769218 13.295130724083121 87152.59196696732 9.059248408872453 0.22232112176988877
0.5241028408910883 13.26128353497692 75782.82762147745 9.447318223589466 0.22507417223152293
0.5403446760828593 13.231273733027878 66005.19214942082 9.845416688491602 0.22780406280615076
0.5568578692461865 13.204742038426698 57573.61722357062 10.259275036748397 0.23057771005886488
0.5736602270635963 13.181573160314697 50296.361484595785 10.690073817004974 0.23340192457208642
0.590734809321503 13.161123349327427 43996.92360130053 11.135103267058422 0.23623339319418954
0.6080776418087016 13.143564100273672 38544.413651167306 11.594653182798341 0.23907938129156134
0.6256901251807073 13.128238733748617 33808.78112843093 12.073067366910223 0.2419847226821944
0.6435713973488316 13.115191449710489 29694.289953234314 12.570351312962226 0.2449415966294479
0.6617237882052819 13.104273944076624 26114.57239173326 13.080838056597495 0.24787399451539416
0.6801341616615257 13.095191704312732 22995.277246673602 13.612304964572877 0.25086502808476946
0.6987914542242896 13.087676852484655 20272.339434441757 14.165659941749555 0.25391660337903216
0.7177242704164348 13.081839241439631 17891.83584940136 14.735280248215343 0.2569682970363105
0.7368989024278132 13.077390211845279 15808.066898862131 15.326007175343287 0.26006453111174876
0.7563209629344306 13.074157418163239 13983.269220184597 15.941018578555406 0.2632265474903651
0.7759826676878891 13.072009641873377 12382.39910350859 16.57784957212108 0.2664180472820367
0.7958796942204233 13.070927813735667 10976.460975458542 17.234742936216243 0.269618852837979
0.8160112486916351 13.07071286346216 9740.005282689031 17.918719509613886 0.27289176104577095
0.8363744894841275 13.0713298165218 8651.038053403428 18.630812819478226 0.2762382599017994
0.8569424962931227 13.072575934127856 7691.647241576044 19.362028936203707 0.2795732908596648
0.8777461753579779 13.074548283150879 6845.507247384859 20.123117352355695 0.2829771979259177
0.8987299119829253 13.076876783998445 6097.959967331257 20.915533566939708 0.2864538952259067
0.9199322858765943 13.079770623342295 5437.173021712926 21.73458884313032 0.2899585064395392
0.9413048342047534 13.082930918735059 4852.550265543393 22.582172236171882 0.29350495516563163
0.962885716524795 13.086453357607539 4334.734091996171 23.46462207295534 0.29713490218421834
0.98463598799357 13.09016434305338 3875.145757055197 24.38321185703883 0.30084859356792887
1.0065335688588042 13.09391256793734 3467.6117706659215 25.327889879430337 0.3045508589828627
1.0285914459682002 13.097691676812032 3105.5105240268094 26.31147327890586 0.30833996402254527
1.0508083095439993 13.101601952573827 2783.6425966217103 27.335467682994455 0.31221767345295154
1.0731468585595212 13.10539218427386 2484.6439044665285 28.397167438512444 0.31615767268916867
1.0956051900963442 13.109074654857897 2242.2776217077158 29.494691668459023 0.3201399910211831
1.1181926555092936 13.112607083492115 2014.8902395722228 30.63730889282885 0.32421113058633394
1.1408840532239843 13.115925775966266 1811.9616005711523 31.826875890915865 0.32837266967715045
1.1636552908123698 13.1189436217833 1630.845029139557 33.058935341969985 0.33259271904055004
1.18650810016879 13.121667933712422 1469.0214880435276 34.33570001099737 0.3368794945959658
1.2094169062071853 13.123918463428986 1324.1881143151613 35.66505821275587 0.34127215725646387
1.2323942148845772 13.12585494126662 1194.6672519678943 37.0490337623049 0.34576912985023844
1.2553997668444508 13.127333634466344 1078.7031338422428 38.48528915089833 0.35033586597628147
1.2784350025467797 13.12828862489365 974.6735251424847 39.97331695413781 0.3549737479611589
1.301455990531817 13.12853240580822 881.3984393525142 41.52292845036387 0.35972909078972737
1.324491383598906 13.128343568288974 794.3878402071527 43.13659202457762 0.3646040164021296
1.3475042113325773 13.127421467099007 722.3953347368922 44.816903519976194 0.36959990885655025
1.3704769675821382 13.12588483827515 654.7609839289644 46.557755700716285 0.37465912330493745
1.3934006369499783 13.123583654810552 593.9112576689611 48.36887959114879 0.37983852473313706
1.4162457575528564 13.120576011392561 539.1538681252566 50.255641515626635 0.38515364362892973
1.4390001352002253 13.116709039636879 489.79016123896804 52.22124743547086 0.3906072284240193
1.4616772136286431 13.112088148935744 445.27114215095486 54.26909315182604 0.39620047406574394
1.484202219982009 13.106548795694566 405.1296950856271 56.39962151553002 0.4019130690337396
1.5065892877356664 13.100099087153437 368.9018488946142 58.613768646568666 0.40775064875852923
1.5288494478730912 13.092834586170499 336.1493445622089 60.92206711900704 0.41374944926022
1.5509184195495653 13.084643966341725 306.5632005969197 63.32878890457801 0.4199124328594226
1.5727707055240407 13.07522359548009 279.76902660398645 65.8384693796265 0.4262402147596069
1.5944261222475962 13.064950093304805 255.54367733410356 68.45599849234641 0.43273933281510124
1.6158453946485984 13.053548551636304 233.57793424828287 71.18646195562967 0.4394242156498991
1.6370241525631075 13.041193534670144 213.67575022383846 74.03532633989603 0.4463017974842536
1.657924683517977 13.027608601654803 195.61336371419182 77.00806460691024 0.4533737609548215
1.6785301169336722 13.012876378240486 179.22705338510858 80.1071238853945 0.4606268484372361
1.6988288057923309 12.997056112287344 164.34678816488864 83.34402003969919 0.46810269590250053
1.7187884781997516 12.98004181496718 150.82413667496616 86.72586354890332 0.47581131737968896
1.7383998788593087 12.961783018300801 138.52700288198167 90.26021788649463 0.4837572062369401
1.75764276179952 12.942372204400034 127.33498576180857 93.95518123846186 0.4919482772269985
1.776485728327211 12.921481435920322 117.13297958870845 97.81946531713767 0.5004043864247704
1.794917341787659 12.899573990167566 107.86036532685385 101.86236827713637 0.5091410949822704
1.812917802945521 12.876185442034387 99.39142931618468 106.09382945681772 0.51816524367541
1.8304594098607272 12.851409709640137 91.66176816043338 110.52452448792974 0.5274901106502677
1.8475488268343299 12.825581101051457 84.61616145439827 115.16593730174047 0.5371399204297935
1.8641058031263669 12.798040348302706 78.17600637977027 120.03039261725611 0.5471340491811028
1.8801755485441523 12.769188726615717 72.2853846815314 125.12523223150937 0.557458886955737
1.8957314765774402 12.739146013280742 66.90613412312639 130.46874258469987 0.5681544620934041
1.9107117189711118 12.707613194543038 61.982164123851 136.07666916784666 0.5792513082844166
1.925127682865212 12.674555073307173 57.46707016589395 141.9654353392616 0.5907673093485878
1.9389246821762636 12.639934995147668 53.333778784608675 148.15274676612228 0.6027220604988379
1.9521446027436988 12.604081561288728 49.54763665484778 154.65767680454667 0.6151510996252839
1.9647301395855938 12.56657683351695 46.06920590404023 161.49652742197338 0.6280710942188993
1.9766656974585668 12.527708399873584 42.8807380431745 168.6842212714687 0.6414743376428977
1.9879320009365682 12.487331212142847 39.9528663659145 176.25463280466977 0.6554404070305373
1.9985224605333884 12.445398174515917 37.260865952638795 184.2336881510693 0.6700088230181035
2.0084182396383903 12.402103688706365 34.78922110765401 192.639117132524 0.6851685525666401
2.017612111764125 12.357289004270202 32.51544849514181 201.49961309510604 0.70096893925166
2.0260558534021422 12.31083445080419 30.4204575155413 210.85798678548036 0.7174921887411421
2.033748540310733 12.262874207811178 28.494261239820162 220.7341425432228 0.7347174710143907
2.040698296033256 12.21345558601357 26.718672264200627 231.1707181485683 0.7527272828065642
2.046873611457313 12.162508963592481 25.08171516610205 242.21233354207257 0.7715874115828155
2.0522700469344857 12.110139706555454 23.574928088456613 253.88735773949588 0.7912869017614771
2.056855337428401 12.05612514744901 22.18261191371843 266.2610711880069 0.8119629091150383
2.0606323923659544 12.000802710470495 20.901527023468567 279.36448093351186 0.8336026852849577
2.063591338114947 11.94387274244797 19.716649962643487 293.267843271747 0.8563199259742356
2.064960289237192 11.891218841478425 18.76432370794975 309.413876115833 2.455328210875959
