M[M_sun], R[km], Lambda[1], P_c[MeV/fm^3], rho_c[fm^-3]
0.23841724892012095 16.20908015294055 2780876.1263280716 3.453507347168396 0.169602847481901
0.2484061943434411 15.866547705652321 2282586.8920163657 3.6354109896334474 0.17197671611171073
0.25867910982127035 15.563383876422336 1882173.2049883958 3.8244832438458625 0.17437144976756377
0.2692333900840013 15.294151342423183 1558353.6943816599 4.019809682956465 0.17676089814695076
0.28007826215979165 15.054574606965776 1296197.7171245993 4.221751939955657 0.17913784727717028
0.29119787375404116 14.840628063278837 1061303.3577907807 4.431663952999368 0.1815386124037634
0.3026091184841296 14.649351657576485 906354.9456980504 4.64989281918609 0.1839670867186946
0.3142992264518597 14.47797520731512 761798.4219825742 4.876777562149317 0.18642436728548895
0.326273858876368 14.324147260054792 642295.061522469 5.109654113289247 0.1888512390626406
0.3385303835867136 14.185975261860566 543203.4678265767 5.3517471465959305 0.19130055405257887
0.3510688160881793 14.06164188614239 460646.4142791936 5.603526759380798 0.19377979180661223
0.3638945282012746 13.949866322266521 391713.2444548653 5.86540462018051 0.1962946421294149
0.3770031020584897 13.849071574893676 333907.3634093514 6.134179786554665 0.19878354688577904
0.3903956365970632 13.758518012991386 285361.2657362669 6.413455769913301 0.2013041866107959
0.4040643862233172 13.676852502520584 244421.90126923283 6.703956947835917 0.20385958618936267
0.4180228926254019 13.603397668903899 207210.14176709572 7.005648952658045 0.20643890792728162
0.4322636914803806 13.53733244607389 180491.7000579657 7.315406903959469 0.20899683995506307
0.4467889718128645 13.47796000832036 155574.632068768 7.637692281435553 0.21159925871427918
0.4615968237203353 13.424701368989094 134366.12381201627 7.973038345778927 0.2142462646604132
0.4766804917658877 13.376985830339223 116260.5540457431 8.319334984849842 0.21689759984274798
0.4920594149902374 13.334238063836795 99710.16076975754 8.676880879593313 0.2195490172426571
0.5077133480104106 13.296205602363932 87490.08394787493 9.04900954402169 0.2222484089295557
0.5236456027443134 13.262219606885951 76084.63521460131 9.43632422216229 0.2249987827901673
0.5398600855735709 13.232131690893837 65640.07341762612 9.83317778699167 0.22772013668034496
0.5563435704088033 13.205627264727848 57818.280421119845 10.24619048484103 0.23049124462510504
0.5731090687769816 13.182271888954226 50515.51466376801 10.67610599172463 0.23331305526468313
0.5901531996763021 13.161825142948045 44196.04537239999 11.119642498517283 0.236135025140137
0.6074652300714208 13.144061476838782 38720.84314710394 11.57820495355637 0.23897823268784274
0.6250437567776725 13.128788793066148 33971.351624288065 12.055584767306275 0.24188077031512206
0.6428961965582515 13.115664774226904 29838.567407486313 12.551088015987457 0.24482705615128628
0.6610064490492216 13.10466971074521 26246.85935173833 13.060418679384247 0.2477568750782948
0.6793867610244289 13.09548484290727 23112.136156999706 13.590676884793156 0.2507453318883151
0.6980130635044264 13.08795296294636 20377.602053604933 14.14276584195634 0.2537939501338177
0.7169068451143256 13.08209506254461 17987.367324691935 14.710186620929097 0.25683386000455743
0.7360480446324162 13.07754960654223 15894.48208545682 15.299496674320212 0.2599269811854164
0.7554329723863641 13.074305265020943 14061.780918646748 15.913023172662532 0.2630862475788068
0.7750562714080089 13.072113687077868 12453.438623426235 16.547251991910343 0.26626470648698297
0.7949220876285111 13.070989641886273 11040.041324910657 17.202487026763805 0.26946250540045663
0.8150216796382451 13.070719891417447 9797.004990317893 17.884723250097007 0.27273195592311106
0.8353367662997995 13.07131569207904 8703.275719859745 18.593947653016475 0.2760657842416545
0.8558754151678114 13.072549658233443 7738.927464832072 19.323011441937474 0.2793953345095519
0.8766273467531009 13.07437123314356 6888.073554180848 20.08205295603417 0.28279599695734453
0.8975922352354967 13.076810747401604 6136.450621155197 20.872320711060155 0.28626899407980466
0.9187431139652072 13.079639210780007 5472.225298548521 21.687613810178448 0.28975750751794066
0.9400932654173951 13.082865333670593 4884.283179311233 22.532788538285747 0.29329961595635723
0.9616151877156234 13.08617414702564 4363.020669693661 23.4127017917248 0.29692499793273786
0.9833206987402148 13.089844183196405 3901.2091632614593 24.326859577433975 0.30062077155330696
1.0051961327574628 13.093666016576545 3491.2144904672737 25.268693011145594 0.30431887204792174
1.0272179811325641 13.097504353434557 3127.0891502107434 26.2492841455224 0.308102995905971
1.0493928770461942 13.101339149789862 2803.032300954631 27.270124159039824 0.31197518170033045
1.0716992927025712 13.105218455626188 2514.925709197694 28.326393067432374 0.3158950269020241
1.0941244308597067 13.108849120444386 2258.2321136212067 29.420366858647206 0.3198712140748049
1.116669008638442 13.112422098607762 2029.3844236747839 30.559242249218627 0.3239368845544979
1.139321550151457 13.115714955740096 1825.0922128089649 31.74486445444064 0.328091764149424
1.162063139252703 13.118729944670793 1642.7642076229763 32.970252961505594 0.33228896419909065
1.1848727723632317 13.121434926083353 1479.9271450418062 34.24256908069263 0.33656811076813437
1.2077507332956194 13.123774248742924 1334.230062901008 35.567224184372144 0.3409526689021367
1.230690166285771 13.125710205114485 1203.7550255916258 36.946233448106796 0.34544226464761124
1.253663014037822 13.127181717364154 1086.9790631640597 38.374265712044206 0.34998285442062127
1.2766643776449202 13.128159267548064 982.2412122403397 39.85668728704197 0.35461119121464835
1.2996689850021717 13.128538189896595 888.279765361932 41.40036371348853 0.35935631432932724
1.3226672342927501 13.128336514969325 803.9426735363683 43.00774186397288 0.36422043752726235
1.3456619196860486 13.127520394513448 728.114075912532 44.680189441388386 0.36919920943572254
1.3686062266565335 13.126022884058637 659.9994765198974 46.411609415661154 0.374234397182232
1.3914991287207168 13.123800478870313 598.6941901286591 48.215199863934934 0.3794008112693979
1.4143283473287092 13.12085422732098 543.5357625391688 50.09397181980902 0.38470211522591874
1.43705630641182 13.117029852170965 493.80477036001207 52.051102047484505 0.39014121884126607
1.4597130873935162 13.11254597588744 448.95903414103213 54.08996197251358 0.39572016885555067
1.4822159373624 13.107065869069256 408.52411828913375 56.20656897631185 0.40139543642068237
1.5046394211477891 13.100985111313213 371.992415183114 58.41049859791782 0.40721535079192916
1.5268439543599954 13.093633090519175 339.00663305552115 60.707940908598225 0.4131953580981752
1.5488856538608127 13.085358085165078 309.15502884671656 63.10312632011916 0.419338736716525
1.5707446103181055 13.07616948909066 282.1591070539506 65.6005510571834 0.4256465648102877
1.5924067659099441 13.066126589557596 257.7393353172473 68.2050516026259 0.43212315329129997
1.613806644758829 13.054689997390861 235.58084362407993 70.92165059384442 0.43878407311733886
1.6349830232465623 13.042424502473388 215.52053214418143 73.75491254256997 0.4456330673109283
1.6558738759257665 13.02904749302382 197.33426688734514 76.70698559704188 0.4526575123085247
1.6764654128831147 13.014343009739736 180.80417003051372 79.7891608896967 0.45988276045143
1.6967890739553781 12.99876418532422 165.78818118735666 83.00806894761124 0.4673276920043319
1.7167762090993846 12.981974605305073 152.15767550180897 86.37073108804015 0.47500339945643777
1.7363859618788655 12.963767754025493 139.74946250834574 89.88462775022018 0.48291504940148133
1.7556310211739556 12.944380591944094 128.46059586540804 93.55776887084129 0.4910699800985263
1.7745202922267849 12.923927592570909 118.18271007625019 97.39875830579598 0.4994864271495009
1.792957623942671 12.90190985452688 108.80685255895425 101.41677563471616 0.508180873103999
1.8109668246648067 12.878664834150701 100.26671908817457 105.6216449209531 0.5171610283564054
1.8285713547081366 12.854395418712055 92.48255974590518 110.02391604610183 0.5264389495347055
1.8456570080928554 12.828378440254946 85.36462795278067 114.63492404720155 0.536037640388299
1.8622577990866411 12.801217515173494 78.87595316878321 119.46683230834557 0.5459772244757947
1.8783953004611442 12.772779031026301 72.93666685870467 124.53267467630687 0.5562664102307985
1.8939469090597232 12.742570872602 67.49716986660967 129.8417516147497 0.5669100855393114
1.9089857704840982 12.711210349477286 62.52969691657693 135.40998409127232 0.57794146510902
1.9234426383573646 12.678421636780415 57.97735710499902 141.25617102266762 0.5893890983735193
1.937321444558266 12.644257750277127 53.81235814343466 147.39778407150945 0.6012698299966168
1.9505872103804585 12.608474206836842 49.98530702107873 153.8536295675523 0.613618940360541
1.9632334274906595 12.571341407689413 46.47985072718864 160.64403691335707 0.6264685729530741
1.9752282088293254 12.532616257938743 43.26180816054762 167.78103541882206 0.6398016717156242
1.9865859258451555 12.492608551109328 40.30713680453778 175.29086989017563 0.6536708778917263
1.9972497650979812 12.450901234884723 37.589201409130396 183.20468465792933 0.668135407329297
2.0072169669708284 12.407780989340504 35.093464446869774 191.55009732336117 0.6832197232579612
2.0164585018004906 12.363056384128944 32.79546956093432 200.33607767954086 0.6989044589232953
2.024997958274766 12.316836019873461 30.680060904593294 209.61321910222966 0.7153007850747231
2.032780075093403 12.269203662963916 28.736813001574912 219.41356601746782 0.7324307040844333
2.039829089185961 12.220102832410802 26.94549161687239 229.7559621760369 0.750295540373145
2.0460954665048536 12.169348556220267 25.29071175920137 240.70242231149862 0.7690227708008586
2.0515974801881205 12.117345019735803 23.771084395502495 252.27348346645954 0.7885753658873751
2.056286729201831 12.063666342652672 22.366526777981463 264.53406542597025 0.8090902191866569
2.060169196409643 12.008469817783174 21.0696377139283 277.5167562114044 0.8305650778926537
2.06323348178517 11.951887759722071 19.876121980497196 291.28218720504395 0.8530838711389085
2.0650742614218793 11.895509898184297 18.825164883202717 306.25341052373807 1.1370409874460183
