M[M_sun], R[km], Lambda[1], P_c[MeV/fm^3], rho_c[fm^-3]
0.23841724892012095 16.20908015294055 2780876.1263280716 3.453507347168396 0.169602847481901
0.24841470743082672 15.866245270695241 2282237.147167339 3.635545483189969 0.1719784269206155
0.25869378579501645 15.563029182488233 1881830.5554349613 3.824759888032109 0.17437483398429093
0.26925851433545583 15.29361576409638 1558203.5027217888 4.020255364299921 0.17676635021257328
0.28010856411943624 15.054074289511227 1295681.748748604 4.222362234065594 0.1791449837199362
0.2912386038442185 14.839931868162804 1081299.7778421624 4.432447263487139 0.18154742622889952
0.3026595012012676 14.648486961827151 905636.8079993413 4.6508579926310665 0.18397754005248404
0.3143599323938368 14.477128626795917 761111.7899401665 4.877961607058775 0.18643697774047369
0.3263427387596287 14.323352667455353 641682.9107246699 5.111068852859332 0.18886598080410028
0.3386125199848063 14.185087448604424 542561.4924673175 5.353379650317505 0.19131684335757698
0.35116270501842295 14.060763594986945 460054.963277732 5.605387243791061 0.19379767300467562
0.3639961379038681 13.948952183267439 391216.2970318459 5.867504048066657 0.1963140831965416
0.37711921036104284 13.848292881063974 333438.9205604961 6.136627313665557 0.19880621141222993
0.390521656121611 13.757687964514593 284922.5007803393 6.416173767485797 0.2013284119133736
0.40420849486357724 13.676114827022946 244033.05048992092 6.706957579559716 0.20388524014939136
0.41817911970030536 13.602616338646737 209463.49198250705 7.009081945025475 0.20646825836314964
0.432436081376344 13.536729708127783 180181.46147128387 7.3191580628297634 0.20902776194401163
0.44697268219360997 13.477303467693172 155292.20618015432 7.641776278100088 0.2116317285717721
0.46179607844853576 13.424066750994823 134100.97841512837 7.977470424314928 0.21428019778140708
0.47689799052382476 13.37632787967948 116016.01025225478 8.324323064005485 0.21693578984595768
0.4922878468062347 13.333676834265363 100552.04914739633 8.682259122871915 0.21958858601931164
0.50795378812008 13.295558776671893 87299.28435890432 9.054795382690182 0.22228949793399388
0.5239051113203781 13.261726705060566 75915.5295370871 9.442536694754061 0.22504138373407595
0.540135668003369 13.231732485048733 66120.55572169604 9.840093564054497 0.2277675604116188
0.5566395458455502 13.205157756219377 57678.07286108186 10.253584012509654 0.23054010258993324
0.5734199898130343 13.181793801649908 50388.6206268611 10.683998518138122 0.2333632709097067
0.5904849559138919 13.161557290412238 44084.25180134192 11.128378404318298 0.2361906067272842
0.6078076889071373 13.14367297175253 38618.81207043892 11.587498693567735 0.23903538466521634
0.6254087285239491 13.128442430077927 33879.18319256413 12.065462833874788 0.24193950576780973
0.6432786691476247 13.115437035162639 29756.53912377168 12.561971950781015 0.24489177254418448
0.6614086777128327 13.104486986525293 26173.445700371743 13.0719556677566 0.24782304779109993
0.6798092283178071 13.09526665434389 23045.36289766013 13.602896643942907 0.25081295965308714
0.6984529975810553 13.087756449382686 20317.506809489467 14.155700740485436 0.25386324778235786
0.7173782868060619 13.08208520619443 17933.640332580857 14.724363872323826 0.2569098134557737
0.7365337028806509 13.077541734148795 15846.483670318668 15.314474244068768 0.26000469241440294
0.7559352832775831 13.074196070789839 14017.887113647244 15.928839477936735 0.263165511520885
0.7755798323294306 13.072012154648684 12412.824468874813 16.56453798108146 0.26635133579899173
0.7954655208600784 13.071000432943888 11004.252069697504 17.220709669128226 0.2695508322679029
0.8155794230786156 13.070715545652332 9764.7732544771 17.903928860729575 0.27282223511872
0.8359250745324901 13.071356548862228 8673.741767112877 18.614887833157663 0.2761642170723111
0.856484846608573 13.07261563702948 7712.139643410689 19.3450528790558 0.27949586412516625
0.8772585600920066 13.074507312677094 6864.034711789687 20.10525044170179 0.2828983583031323
0.8982300413563366 13.076807892836424 6114.775619089808 20.896731588514946 0.2863734444598334
0.9194166782526427 13.07971922247015 5452.33691608035 21.714149223214882 0.2898710484580813
0.9407786422264824 13.082839461941967 4866.103543624535 22.560684240702233 0.293415607300091
0.9623283898371309 13.08628272342362 4346.8669488090345 23.442030007037452 0.2970435665717467
0.9840692543340803 13.090081057449162 3886.53135806973 24.358690419240475 0.30074945785594315
1.0059509288890294 13.093798124796823 3477.8435379529296 25.30213023771113 0.3044499093802778
1.0279948819751519 13.097629154582792 3114.8927766360716 26.284411130832687 0.3082368452635201
1.0501900160268982 13.10146358682021 2792.0932536501227 27.307032433093564 0.3121121493984259
1.0725190159403666 13.10533032783633 2504.819685674165 28.366367739294173 0.31604337409320027
1.0949680168763951 13.108981887437544 2249.1225197197537 29.46234637504074 0.3200230224178771
1.1175250806793582 13.112496813588981 2021.1532300010347 30.60333465739078 0.32409178000556504
1.1402091829783814 13.115863493313679 1817.6707698939022 31.791184327894264 0.32825041895485035
1.1629560005150787 13.118799757402536 1636.0008092668145 33.02033910818154 0.33246051924151504
1.1857968804919945 13.121508220231924 1473.6555530215228 34.29516702233435 0.3367439723036184
1.2086950357650683 13.123865617013957 1328.57383066837 35.622477606553964 0.3411331053537011
1.23165449280447 13.12579889940983 1198.62279690325 37.00429091038119 0.3456268649021763
1.2546516431045769 13.127253218723732 1082.230099170865 38.43696537389656 0.350182215072735
1.2776606356975824 13.128180921516403 977.9347076294009 39.92255215086583 0.3548159397261717
1.3006718278334959 13.128494130044503 884.3820002578891 41.469579383198514 0.3595668314243458
1.3237041742423985 13.128297763559656 800.330481896426 43.080506080960795 0.36443705205340515
1.3467017204418026 13.127455484153291 724.9047242714996 44.757921766424865 0.36942849778382425
1.369671587844668 13.12600347041442 657.070052713233 46.494137349377276 0.37447423748531544
1.3925750051316426 13.123673710765413 595.9731883135016 48.301980634501916 0.379647981877776
1.4154039013870334 13.120629577274576 541.0276006602448 50.18526306495838 0.3849570831710411
1.4381588418409295 13.116845761357752 491.52541001277694 52.147177875300045 0.3904043600110789
1.460807332042679 13.112236123213224 446.88266189285315 54.191110240072874 0.3959913781452858
1.4833514028698263 13.106834119651891 406.6030549125939 56.315574511032956 0.4016877134350324
1.505727003733057 13.100420609323628 370.24539467342737 58.52527153751694 0.4075175975892114
1.527973616702501 13.09313665927923 337.3812670062531 60.82884162048996 0.4135082110451182
1.5500251630622308 13.084855296254696 307.67185167122307 63.230538611893984 0.4196626536854113
1.5719115544056952 13.0757753193819 280.8131895979184 65.73488081671768 0.42598174225320473
1.5935449390767948 13.065391910216576 256.4776193498158 68.34673487221542 0.43247104494950506
1.6149662930521065 13.054092670560806 234.44826756229315 71.07115898956962 0.43914548768215717
1.6361428204750155 13.041698698172727 214.4749949506832 73.91359537990787 0.44601220693676885
1.6570354586662182 13.028201228888472 196.3611387827306 76.87696102488903 0.4530618735097671
1.677644136322754 13.013565702928101 179.90409678071228 79.96866481370856 0.4603028304440691
1.6979373431118931 12.997758655932437 164.96927193900044 83.19772422038639 0.4677652068068452
1.7179131511743846 12.980829696772332 151.39705868441268 86.57121083801178 0.4754594861314134
1.737531728721975 12.962741358900667 139.0563157607889 90.09665192222693 0.4833904548727461
1.7567745108207655 12.94327504843313 127.82173400355592 93.78210716458175 0.49156577664451284
1.7756418015648003 12.922687360011018 117.59751552861374 97.63624123063454 0.5000046016692895
1.7940585292819693 12.900515729196247 108.26566940442895 101.66830055002639 0.5087228922120781
1.8120743635562 12.877266182181195 99.76988970478213 105.88817417044696 0.517727867663869
1.8296321001236233 12.852650780985165 92.01720984037102 110.30648286065913 0.5270322740238539
1.8467267172103974 12.826744375792126 84.93831945075334 114.93464559061754 0.5366598039077393
1.8633060128474601 12.799366939582862 78.47612672506772 119.78491668583995 0.5466301587943405
1.8793940205369521 12.770751671169547 72.5715904780273 124.86824838277438 0.5569435465197252
1.8949509588402473 12.740693289834987 67.16871117851255 130.1956246133115 0.5676124102674838
1.9099714510421542 12.70925196315162 62.21978667730167 135.78625039222266 0.5786807194642607
1.9243988178736897 12.676267884896328 57.69098991695028 141.6564574460885 0.5901669172049796
1.9382437225984241 12.641863784815863 53.5404674749744 147.8238493117788 0.6020894002115035
1.9514663327313788 12.60596909495446 49.7366203255325 154.307382797954 0.6144835938085969
1.9640767217079813 12.568585230764835 46.24426441359985 161.12754919929856 0.6273814895842487
1.976034269739551 12.529878131756796 43.04797581169576 168.2907126285461 0.6407455745680826
1.9873395558370812 12.489589578673067 40.105944741798616 175.83471450658934 0.6546694107064431
1.9979726387593113 12.447870690548404 37.405804006348454 183.78532561134898 0.6691925289804399
2.0078931726973632 12.40450736809664 34.91983802421007 192.16491796065372 0.6843204449708981
2.0171022628034656 12.359750985199327 32.636997369074344 200.99259642909186 0.7000693311098392
2.025610578861704 12.313541385836672 30.53472536140177 210.31554859859645 0.716537230601131
2.0333286902581795 12.265600771209915 28.598458703559523 220.15865128817705 0.7337209256837323
2.0403208686476866 12.216352802227071 26.816920600257617 230.554155737474 0.7516675092434765
2.046534298771455 12.165489039875293 25.173699927720175 241.5567292091279 0.7704780866611745
2.0519850659832137 12.11327381632676 23.65989731668923 253.18395955567578 0.7901050938343838
2.0566022821111214 12.059407153830943 22.263564358944723 265.5114894481512 0.8107210243296247
2.060433752229455 12.004140966410064 20.97532921720309 278.5590887620109 0.8322786432430973
2.063444287087246 11.947369016491736 19.785455072650276 292.4094852455687 0.8549305851747411
2.065619407132678 11.88914848041786 18.6885634327207 307.1018107333613 0.878693391808283
2.0669707842412044 11.829584076065766 17.676729312544186 322.7121281400838 0.9036616825225684
2.0674642908076937 11.768460946267268 16.740467463874275 339.3153820639508 0.9299477299058589
