M[M_sun], R[km], Lambda[1], P_c[MeV/fm^3], rho_c[fm^-3]
0.23841724892012095 16.20908015294055 2780876.1263280716 3.453507347168396 0.169602847481901
0.24841060880642202 15.866415839803617 2282403.9696640316 3.6354806465313474 0.17197760217379643
0.2586861627435535 15.56319742891042 1881930.052079636 3.8246265216256026 0.17437320249935043
0.269246397832952 15.293857600283618 1558517.391404076 4.02004050435009 0.1767637218087522
0.28009537000905327 15.054246230460866 1295852.7961665045 4.222068011646225 0.1791415432452174
0.2912193683453749 14.840212652980329 1081645.066934458 4.4320696252815495 0.18154317703632425
0.30263431708988003 14.648972871996206 905977.6122844479 4.650392671694423 0.18397250038309068
0.31433219441935534 14.4774819103299 761481.9428849911 4.877402521899557 0.18643113592682303
0.32630971804616643 14.323761817968489 641978.0609669671 5.11038677322508 0.18885887345951496
0.3385726633570693 14.18550558452702 542843.8126427145 5.3525925724357535 0.19130898980630864
0.35111765103857845 14.061285516129999 460367.86132918694 5.604490239797757 0.19378905185956985
0.36394844773126755 13.94938363567375 391456.1897915396 5.86649183020666 0.1963047098832247
0.37706277016999157 13.848671076601821 333662.049727545 6.135447245915934 0.19879528377976116
0.3904592964387127 13.758074658381869 285129.4962566047 6.4148632794438285 0.20131673163460426
0.4041397388815918 13.676485020519669 244221.73122509875 6.705510804048784 0.20387287091366224
0.4181037251050494 13.603023157297823 209634.59055053085 7.007426678850057 0.20645410663237765
0.43235344935292197 13.536945942577102 180325.21999233187 7.317349370084071 0.2090128523176728
0.4468830334944492 13.477612250476177 155431.8457189075 7.639807082016458 0.21161607245805233
0.4616991644546061 13.424298338278312 134208.26977806783 7.975333371817395 0.21426383596372264
0.4767987306276065 13.376586211440227 116126.07482714842 8.321917882973228 0.21691737516798734
0.49217793994206577 13.333950308600693 100656.35311513794 8.679665786009473 0.219569506338125
0.5078352320521405 13.295810953627464 87391.3044287308 9.052005481726367 0.22226968503224317
0.5237808158200432 13.262003893358143 75251.62119570297 9.439541046178187 0.225020841598064
0.5400014582564663 13.231861702108608 66192.73646737053 9.836758730256602 0.22774469237228823
0.5564983813778018 13.205408388821485 57749.55689591172 10.25001877271526 0.23051654274566327
0.5732729907852447 13.182062841181033 50450.6264324723 10.680192622691491 0.23333905616721082
0.5903209639179892 13.161661889330162 44137.97605067213 11.124165750808327 0.23616380401517642
0.6076448332099723 13.143941970206171 38670.08451129162 11.583017001497673 0.2390078244404338
0.6252340660886326 13.128627631824497 33923.0274244849 12.060699323700884 0.24191118171021142
0.6430970090861826 13.115579180850974 29798.082736068063 12.556723293345755 0.2448605637779422
0.6612158349736729 13.104544158896896 26207.85534716313 13.066392036350077 0.2477911364662953
0.6796061238635877 13.09539507002909 23077.710866730853 13.59700370294654 0.2507803463730188
0.6982407319737425 13.087894296471417 20347.064377266062 14.1494628752229 0.2538298289353811
0.7171523187345145 13.08207607608992 17959.07477370885 14.71752676641432 0.2568731842266164
0.7362984348443958 13.077487140762658 15869.330885205034 15.307251119526649 0.25996721518046484
0.7556943738006756 13.074248450328504 14038.894461962971 15.921211801687148 0.26312728516662864
0.7753285168199271 13.072079963104448 12432.060552688241 16.55620138182192 0.266309556653396
0.7952020482512155 13.0709692585057 11021.29948720966 17.211921276187642 0.2695082340978458
0.8153144174870584 13.070760378997981 9780.152705986507 17.894666330283208 0.272778695040042
0.8356453657301152 13.071308046584747 8687.933264061894 18.604788572116494 0.2761167438010632
0.8561911686232034 13.072561697981996 7724.877717185237 19.334422408236783 0.279447379212885
0.8769573201237237 13.07449448084849 6833.873530607455 20.094062327013095 0.2828489895701251
0.8979191175849035 13.076792834879654 6125.1798138314025 20.883155424114168 0.2863093544453338
0.9190976921751414 13.079685893090737 5461.662010741154 21.68684433978024 0.2897068489674931
0.9404674191153036 13.082844896658274 4874.333371084984 22.54002084417158 0.293313546090723
0.9615152047520555 13.085887022510049 4364.672774145308 23.445138631433 0.342908972963288
0.979433264075337 13.085462188261623 3969.908354998677 24.414649652834928 0.4418403964494563
0.994294828623301 13.07952949410761 3659.0658215642093 25.495399952461224 0.5355404590001858
1.0066819203644741 13.06784398988748 3405.339585313092 26.67259869554469 0.627084809651698
1.017099325070072 13.050084177087284 3189.7326482028357 27.95223179479238 0.7159112985974508
1.0260088328455848 13.02727618610111 3001.9159856204456 29.33899870386192 0.7988441051309682
1.0337205763003205 12.999299680970545 2833.2851199903976 30.82650082433686 0.8741769677248202
1.0405904851986318 12.9666870840351 2677.6829064358226 32.41610865017278 0.9466508154472768
1.0468146819977497 12.929713835124538 2531.7752481555353 34.111310353526164 1.0169246477215688
1.0525790511571482 12.888735635075715 2393.502932746245 35.90581488066951 1.0825085413945517
1.0580186193010066 12.844107610742148 2261.23517890456 37.80225072184807 1.1450141295909482
1.0632787309377463 12.796110603690595 2133.369622272441 39.807471393641066 1.205776892749668
1.068451132733735 12.744921233312303 2009.6988468305185 41.92454392571272 1.2650967639613284
1.0736507648958193 12.690878840620801 1889.5018229165228 44.14733798100159 1.3228857278477237
1.078930779625066 12.63438765695658 1773.0072611200778 46.475495847019346 1.3794810220306513
1.0843306422881127 12.57550257108205 1660.2201189739699 48.92314765808458 1.4361665855327914
1.089942141120768 12.51463240092 1551.0518718085102 51.4942906952825 1.4932140157563265
1.095771402070529 12.451937727686618 1445.7899415820555 54.19301298213072 1.5510017755923227
1.1018792124768348 12.387812098346588 1344.6895575638978 57.0080223707415 1.6097111193949643
1.1082422073164682 12.322243818631346 1248.0195340624646 59.95320898588452 1.6712487657341146
1.114895227212883 12.255727172062963 1155.9143975182433 63.04160284820457 1.7378463385837712
1.1218003922964257 12.188298704462127 1068.6649803454131 66.28109631508335 1.8131164953833585
1.1289225039867492 12.12033913172006 986.7294299588237 69.68107777910774 1.900190750964567
1.1362263901207432 12.051982839296015 909.9870240390263 73.25109158336876 1.9983469960695468
1.1437473825314965 11.982890998182413 837.9469731465435 76.97114659304859 2.0574619206495015
1.1516597340561796 11.912722377764865 769.6211739216817 80.8473497597228 2.087306112417858
1.16013141736381 11.841733959226055 704.6543882011778 84.87743810383586 2.110151027006196
1.1691990349947559 11.770472980413713 643.3098389128105 89.06479955848611 2.133706911151331
1.1788347362598424 11.69935364679155 585.782808271949 93.41602870133319 2.1580332305460974
1.189031958026639 11.628712449317263 532.306276884265 97.93839514792292 2.183190483562281
1.1997718812717837 11.558751617288856 482.74307506261005 102.63955626930456 2.2092453927909985
1.2109883216045383 11.489655241366233 437.11701294114323 107.5278319394751 2.2362512888292385
1.2226784176792662 11.421653033345786 395.36355763112635 112.60304979994343 2.2642000077348396
1.234762686650139 11.354695229157421 357.207560088227 117.88372329303913 2.293176189184265
1.2472122105086778 11.289010109359532 322.5737006681193 123.38297152942621 2.32325552334923
1.2599885932642012 11.224628469849378 291.12937839549875 129.11191779027084 2.3544916611574798
1.272994075840773 11.161321331941632 262.72342592738426 135.0824146456214 2.3869288602531955
1.2862371676822735 11.099365183562824 237.0745317372084 141.30736969892558 2.4206265584351727
1.2996264437624592 11.038473868669795 213.97418213311445 147.80067215552248 2.4556560522808706
1.3131335841925114 10.978756698563338 193.20530140964723 154.5770597462511 2.4920692974028786
1.3267073609334739 10.920209579217762 174.5471623904907 161.6526750838182 2.5299476235660383
1.3402916366983153 10.862632160773968 157.7993994447809 169.04464883631314 2.569367800250956
1.3538461419315053 10.806046150651483 142.77839379567405 176.77144129922573 2.6104016738227114
1.3673294895363404 10.750337021484539 129.29492168657148 184.84199098671488 2.653084570298955
1.380680610266138 10.695341988884786 117.20438392757688 193.28429888729426 2.697528633434119
1.393879457802726 10.641150919450283 106.35899598963938 202.12344599400092 2.7438693501210567
1.4068641898199963 10.58746519913608 96.62949936956628 211.3845272769716 2.7921995584721975
1.4195971632969657 10.53434572946209 87.90875381235298 221.09410411427132 2.842641895185787
1.4320648166251568 10.481607516960144 80.06236937388675 231.28131359885936 2.8953233015518363
1.4441966674361857 10.429246711650917 73.02170137158106 241.97258233147025 2.950338565456582
1.4559770158393792 10.377160176165237 66.69795699278235 253.18031142572553 3.007702080182583
1.4673611145554903 10.325337941758022 61.006747348967465 264.96420924317414 3.067712379987374
1.4783299437871535 10.273502403125901 55.87850298188741 277.3636699763861 3.1305434126803022
1.488840225142809 10.221787668425186 51.261066780292886 290.40715445630224 3.196266679625238
1.4988689169865448 10.169987823185517 47.10082428597841 304.12782017313776 3.2650012029923174
1.508368694826324 10.118080444425926 43.34520365916601 318.5995036518078 3.33710442364522
1.5173474070879034 10.066009124448046 39.94948766197474 333.85428915400405 3.412651640377343
1.5257581394386057 10.01380057036574 36.885304095232144 349.94604662449166 3.4918540717741986
1.5335735061779554 9.96119447703239 34.108174724587556 366.9573592177759 3.575088772086394
1.5407925837415608 9.908300427291287 31.593028424982162 384.9130155733001 3.662337623874143
1.5473702417097634 9.855000603005358 29.31109717232672 403.9319248631633 3.754197844993023
1.553295361125118 9.801300224857004 27.24256617478382 424.0410005969351 3.8505973315843214
1.5585526679468182 9.74712670676173 25.365299106115614 445.3696876769431 3.952193931350708
1.5631236441843648 9.692447056864355 23.658043158207445 467.97681731176056 4.059070478088647
1.5669806962267931 9.637257366221851 22.10222974547865 491.9787139891789 4.171706152610085
1.5701420204387493 9.581526107869362 20.69529800199118 517.4923228017242 4.290571026068633
1.5725737990747324 9.525190698879655 19.40667752596975 544.6086653559764 4.415861503498366
1.574254819900164 9.468328559221924 18.237667782249144 573.4815052603514 4.548215759322332
1.57520587813942 9.410849415942907 17.16880583101395 604.2550723956195 4.688132267314534
1.57540494714415 9.352744882697541 16.19066748731022 637.0849594876157 4.836136735077658
