M[M_sun], R[km], Lambda[1], P_c[MeV/fm^3], rho_c[fm^-3]
0.23841724892012095 16.20908015294055 2780876.1263280716 3.453507347168396 0.169602847481901
0.24841438644863842 15.866252497011125 2282168.65685182 3.635539032129404 0.1719783448606853
0.2586939297224348 15.562925302672124 1881698.321836996 3.824746618311873 0.17437467165444118
0.26925628439618754 15.29362682349816 1558407.3433560743 4.0202339858648175 0.17676608868798221
0.28010912267485893 15.054008225306976 1295569.1802697026 4.2223329587981295 0.17914464139110275
0.2912370361776892 14.839973104868958 1060615.5014379479 4.432409687918545 0.18154700342785685
0.30265788200683746 14.648574798477535 905644.9936561728 4.650811692030312 0.18397703859273415
0.3143565771668443 14.477181908523823 761170.829202694 4.8779061393889975 0.18643639976127208
0.3263411370950577 14.323352236024455 641663.5832293305 5.111000982737148 0.18886527358998453
0.33860920418049856 14.185125227864434 542595.4193702695 5.353301331629525 0.19131606188493547
0.3511579756946699 14.060814359826594 460112.2501710017 5.60529798600583 0.19379681514414876
0.36399156146827844 13.949002532006148 391233.73873903195 5.867403324832973 0.19631315048189102
0.3771139013346679 13.848331554224815 333442.01700274606 6.136509886665032 0.1988051240177951
0.3905150596610438 13.757720920459407 284956.85238203866 6.416043361382582 0.20132724961384094
0.40420108845693514 13.676068589546626 244052.5395520115 6.7068136103109035 0.20388400928146275
0.41817079474055674 13.602646214233529 206880.1122081426 7.008917226698945 0.20646685010057236
0.43242840210486766 13.536794651180386 180199.96531350235 7.3189780752601035 0.20902627824955017
0.4469640012436962 13.477339061695629 155301.63849947037 7.641580316832972 0.21163017057970204
0.4617868104996122 13.424103534779812 134113.44168744542 7.977257757389121 0.21427856954931096
0.47689076854525053 13.376348782556706 116029.13336653599 8.324083711409875 0.21693395730158352
0.4922775554577835 13.333638833883422 100556.79805423206 8.682001043849187 0.21958668728199526
0.5079416877041518 13.295558563337904 87306.8220972287 9.054517740223853 0.22228752621421655
0.5238917003855993 13.261757919264216 75921.7750828654 9.442238574659505 0.22503933942768448
0.5401197372591157 13.231719419129622 66130.01187933437 9.839761684645858 0.22776528460663728
0.5566248243325306 13.205155903639733 57685.196454774115 10.253229200694943 0.23053775791984601
0.5734050655707047 13.181915155973696 50397.63555520259 10.683619753575979 0.23336086104678025
0.5904670680043895 13.16156048298945 44089.390455038716 11.127959153340019 0.23618793927237838
0.6077911875844683 13.143689857268972 38624.864289447956 11.587052664196584 0.23903264180168704
0.6253916814408452 13.128479599672042 33883.08198517125 12.064988753905943 0.24193668686581235
0.6432611909230069 13.115466722214128 29762.639760106515 12.56144958017489 0.24488866650376567
0.661389141142019 13.10450538024654 26176.999800245747 13.071401945641083 0.2478198718067493
0.6797877557944915 13.095305783558109 23049.70205828522 13.602310143168097 0.25080971378416683
0.6984301636699456 13.087779985291402 20320.87322677745 14.15507990656635 0.25385992171600874
0.7173495953536889 13.082063639268044 17936.35353043801 14.723683388386927 0.2569061678193901
0.7365095093840194 13.077573330435117 15848.204254297027 15.31375533560517 0.2600009623526391
0.7559111398659215 13.074190001838458 14018.911631089655 15.928080299880179 0.2631617068747013
0.7755549088276351 13.072056234426572 12414.92441120453 16.563708232363954 0.26634717748558395
0.795439441484562 13.070947703307919 11005.659633467512 17.219834947220207 0.2695465924082559
0.815565164311505 13.070861410549615 9766.609872158058 17.903006941128268 0.2728179014809297
0.8358983739587194 13.071303310719076 8674.224605026122 18.613882617098913 0.27615949188554495
0.8564540030455071 13.072581605278964 7713.604726343538 19.343994782799292 0.279491038214343
0.8772295410847611 13.07448098776388 6865.06943440857 20.104136833447832 0.28289344438956476
0.8981973180514068 13.07681692076895 6115.819858842733 20.895559713860706 0.2863684301889122
0.9193824297166383 13.07972676043076 5453.443394572876 21.712875315283643 0.2898655976025033
0.9407510162357822 13.082892300966462 4867.102458695934 22.559345008907346 0.2934100387256511
0.962293578599538 13.086255083995933 4347.520839127968 23.44062198197966 0.2970378741825913
0.9840301553669142 13.090007869116416 3887.272807166485 24.357162192964235 0.300743279515129
1.005918118480648 13.09377710827123 3478.472155234193 25.300524864122778 0.30444361807283216
1.02795822655081 13.097647789483828 3115.5170200676016 26.282724604600116 0.3082304188522945
1.0501502645555094 13.101511854313564 2792.666547077243 27.305260356975026 0.31210557317146786
1.0724763134319726 13.105305761647935 2505.30888655175 28.364448369120257 0.3160362512536405
1.0949243518537979 13.10900721838265 2249.6389501609283 29.460330712747812 0.3200157332830997
1.117494329628506 13.112524957309816 2021.531718275598 30.60121751179172 0.32408434252967894
1.1401669101873966 13.11587577696904 1818.0285380530197 31.78896019413124 0.32824280085309177
1.1629130623594461 13.11887053078796 1636.430285083488 33.017934043205116 0.3324522814142625
1.1857548363194585 13.121545972462817 1474.0135192961939 34.29264130524365 0.3367355275532745
1.2086496835814748 13.12385496049818 1328.8257204909116 35.61982433311638 0.3411244407818936
1.2316053565990015 13.125780828672584 1198.8596167240808 37.001502941999455 0.34561800024201333
1.2546040830135199 13.127245188576476 1082.4625132122414 38.43395437108452 0.35017264124942576
1.277617243771032 13.128153504334042 978.1033172327159 39.919389094876934 0.3548061070025009
1.300624411015449 13.128493103323384 884.5691202257613 41.46625535450212 0.35955672150461443
1.323659591391293 13.128329405319636 800.5205489663542 43.07701157647122 0.36442664913194944
1.3466554916178304 13.127443261255435 725.0205880556867 44.75424688967733 0.369417817962905
1.3696218336676387 13.125960213559052 657.1760608409647 46.49017371980797 0.3744627184992654
1.3925233924804965 13.123683229897683 596.1241763822263 48.29781267647978 0.37963611062204394
1.415352186744025 13.12066000671679 541.152129156198 50.180878395234465 0.38494483719687655
1.4380972504093807 13.116839747207488 491.634173973729 52.14256331857807 0.39039172124562044
1.4607561941261709 13.112219068157989 446.97209752672717 54.18625195978932 0.39597835161723116
1.4832999211830304 13.10681588200949 406.6708607089749 56.31033862423369 0.4016736744289849
1.5056775046357997 13.100417145889516 370.29986102405985 58.51975851522999 0.40750307941676245
1.5279179906017526 13.093171273052207 337.4511633955093 60.823034138729994 0.4134931831122426
1.549971884380249 13.084897191776253 307.75002506628414 63.224418219208154 0.41964709396962896
1.5718369843815592 13.075655067627482 280.8681720676947 65.72842799950207 0.4259656412880765
1.5934913633685992 13.065414128647248 256.54189927436187 68.33992866641522 0.43245433286889895
1.6149045943981188 13.054124980543877 234.5128740918158 71.0639767199583 0.439128125601363
1.6361062611549746 13.041878191719864 214.53113227158326 73.90601285577125 0.445994168573182
1.6569858375460798 13.028302291675304 196.4126942684255 76.86879499353452 0.45304244701801055
1.677588386627128 13.013604721157877 179.95024124733092 79.96004080686673 0.46028264878781555
1.697869087154038 12.997737540438333 165.0102877662488 83.18861228637805 0.4677441865317437
1.7178542981010958 12.98090308205467 151.43561766718886 86.56157860617675 0.4754375730325051
1.7374580460561797 12.962620484730639 139.08619929040015 90.08646476911832 0.4833676130039224
1.7567336228819757 12.943361027227157 127.84869724140114 93.77132807245755 0.49154195442247955
1.7755578984893663 12.922522671125513 117.62189496854978 97.6248302554973 0.4999797035568627
1.7940113948723073 12.900650071518188 108.29316832257727 101.65621453078879 0.508696847661544
1.8120258639681899 12.877410145732165 99.80183984934364 105.87536681840453 0.5177006297131527
1.8295828259646139 12.852740867939168 92.03928921192312 110.29290447525548 0.5270037625774702
1.8466689567209937 12.826775833820752 84.95971476114573 114.92024243148944 0.5366299057560346
1.8632595293464285 12.799455436835647 78.49151484075239 119.76963063522636 0.5465987809972942
1.8793444093140224 12.77084127135957 72.58440599098444 124.85224589935386 0.5569114560719255
1.8949109772872366 12.740759900424305 67.18334783634282 130.17861791993033 0.5675786574201217
1.909910689232223 12.70917049784456 62.229882486171185 135.76816691121658 0.5786451906591089
1.92434628422162 12.676282572032234 57.70103299019997 141.63721890285115 0.5901295337206935
1.9381838139092777 12.641852166014939 53.55082049894904 147.80337108227457 0.6020500087160963
1.9514230933969767 12.606024486721259 49.745657062443925 154.28557301265892 0.6144420339809344
1.9640310712062443 12.568745842127482 46.26011070167428 161.1043081931198 0.6273376083806418
1.9759937159725096 12.52999583457973 43.05898456705247 168.26621344289836 0.6407002030058966
1.9873114249992196 12.48979307687749 40.11728285732854 175.808571960536 0.6546214113527552
1.9979307801336763 12.447936971282315 37.41147065300025 183.7574131748512 0.6691417112749642
2.00785778783831 12.404708350421148 34.92895864601005 192.1353977162593 0.6842676478658328
2.01706987512225 12.359901495104626 32.643341944633974 200.96103432505387 0.7000133299413002
2.0255779771270057 12.313718363332088 30.54192183538637 210.28178271410152 0.7164777860283984
2.0333070926635926 12.265808308339205 28.60511218691322 220.1228287973634 0.7336588939227977
2.0402976235648533 12.216525813818722 26.82336126982318 230.51577817274543 0.7516015442612084
2.046516346840858 12.165698068229096 25.17896103855591 241.51592262792468 0.7704090392872921
2.051957053629643 12.113401042655248 23.663492258817026 253.1401799273361 0.7900315378983476
2.056585793031607 12.059604307889467 22.268408412948187 265.4644884081746 0.8106426043849749
2.060419254835431 12.004316243769638 20.978715629493884 278.5089646613286 0.8321962406335833
2.063430917121969 11.947609030329929 19.789968802584525 292.35595940161454 0.8548437510376358
2.065602752095701 11.889384602520607 18.69279276210126 307.04421381990215 0.8786005861751301
2.066967028509046 11.829777869024994 17.679200029166573 322.65049299405024 0.9035637126058996
2.0674662926112513 11.768716920884799 16.743446872621536 339.24934211244795 0.9298441020283716
