M[M_sun], R[km], Lambda[1], P_c[MeV/fm^3], rho_c[fm^-3]
0.23841724892012095 16.20908015294055 2780876.1263280716 3.453507347168396 0.169602847481901
0.24851234498129612 15.86312290646884 2277981.756459742 3.6373292489174185 0.17200111709529364
0.2588972157573278 15.557298747761442 1874711.7879550557 3.828430313017486 0.17441973466989655
0.26957155300207614 15.286309393606292 1549679.1596663308 4.026170812510672 0.17683871449774063
0.2805378063058185 15.045172718999416 1286383.7403237084 4.230465419747666 0.17923973790468115
0.2917879719151036 14.83016058481867 1071908.2910494867 4.442851239943462 0.18166449197822615
0.30333610134875744 14.638060229076192 896406.6165713583 4.663681751625846 0.18411642807712408
0.3151666885906731 14.466180599024458 752242.4316703717 4.893328987588437 0.18659710753076944
0.3272895810770006 14.31205990958196 633292.4766616465 5.129879315382794 0.18906198788633752
0.33969781245452657 14.173657639387885 534736.4703857239 5.375092337647366 0.19153349498389224
0.3523957824619228 14.04938862974882 452845.4427171544 5.630139694398857 0.19403556990369314
0.36538603988663576 13.937690633632405 384546.05231968546 5.8954438045275435 0.19657281019757097
0.3786684360678039 13.83721690496871 327366.1092478668 6.169212908920354 0.1991079596879829
0.392235640970628 13.746912020836835 279370.18601592316 6.4523708265083455 0.2016510335066076
0.4060915163459992 13.66564151910304 235928.9025014067 6.746929949730428 0.2042269847155367
0.4202393412162295 13.592591535117275 204890.67576354803 7.053452184518495 0.2068374643541723
0.4346778744381252 13.526898674275094 176027.08765243503 7.369163044959725 0.20943996882680746
0.44940307183982864 13.46810559504174 151543.85413076458 7.696232873998068 0.21206468629764677
0.4644182521807231 13.41531719228705 130727.39564101743 8.036584032345985 0.21473278660568207
0.47971744257928417 13.368052167711701 112982.46098897056 8.390813997507456 0.21744436782849902
0.49531592914387546 13.325968917668996 97816.85182283972 8.754041435600149 0.22011670238611653
0.5111861060134739 13.28831502498071 84833.62742719172 9.132037341667116 0.22283804333545862
0.5273472207534026 13.25500083918764 73697.6779892457 9.525494948375979 0.22561025544451002
0.5438017712136975 13.225429271634365 64122.025942788896 9.932483565685374 0.22840110868391364
0.5605285008763053 13.199463764276766 55884.37172137525 10.352380554254148 0.23119297063588437
0.5775462118637454 13.176629893129506 48771.27708716856 10.782008609239254 0.23392235947474524
0.5948584192525428 13.15674551195287 42620.31635510203 11.219394455642815 0.23655177169473235
0.6124567745162467 13.139569418715977 37297.1161877387 11.68475668837289 0.23934936825969286
0.6303250636884785 13.124762665136004 32685.351817027422 12.180323604589999 0.24232854492038505
0.6482655531427729 13.112327089673496 28720.02334281322 12.739056124616864 0.3366032541981388
0.6594959074478037 13.09906425606303 26446.194580174684 13.49335786128334 0.8953631829001353
0.6623872776288147 13.07837886375062 25570.34873280813 14.310449801768096 1.5006358638645594
0.659223202407483 13.050744305606724 28513.205519952593 15.196693964120467 2.1571340540411117
0.6518293409292637 13.018848119442268 24577.653908094395 16.159202871408883 2.870126457834705
0.6416410719497837 12.986434981685978 25893.249195438497 17.20593986661383 3.6455120368143112
0.6300675556298235 12.955237802592515 26930.795071052613 18.34583434922088 4.489905372887116
0.6179122331227175 12.928559268568492 4803.148627040607 19.588914371953354 5.410734891247343
0.6054582285444131 12.906564414141403 35719.45582476175 24.022565616185975 7.001006193578565
0.5913738331197829 12.884033720502982 37495.99651647206 30.158504876068 7.864691050757147
0.5710200123845605 12.846544073188204 42358.39977374149 36.98354571960616 7.891885127596814
0.5464456588149721 12.792822935378044 48928.31968828217 44.01470414833164 7.919747147002761
0.5196692506790676 12.722884985409431 57523.479000422456 51.255927858011674 7.948309005249338
0.4919636061103782 12.636903095801134 67862.42158456685 58.56978350150733 7.977093772677362
0.4643758200065261 12.531816491660358 79821.36346405448 66.0847417346494 8.00664741903004
0.43743538758817435 12.405069132303247 93120.78167975592 73.85303295699343 8.037129709398034
0.41176975274254346 12.251907471602816 106924.46610832411 81.87841316197344 8.068569308025884
0.3878168208589512 12.06755805709786 119934.84822960869 90.16138533383823 8.100980316115473
0.36611514013314794 11.847083810212434 130504.35567081203 98.7070938531911 8.134365070095805
0.34651909504112005 11.584397976790818 137193.18789183855 107.41831398107294 8.16831471372681
0.32985010841969514 11.27951899648546 137996.71054871252 116.36335251735927 8.203126602749936
0.31599823877524963 10.933541208948482 132501.74848700277 125.60582758809174 8.239040739656184
0.3050047661050623 10.551703943445771 121376.88900126827 135.15079969284827 8.276056620050804
0.296811492847756 10.144360710295835 106214.02394657329 145.00618488250853 8.314197482149996
0.2912843547709832 9.723277389462597 89231.1640763372 155.1799090600044 8.353508014490878
0.2881706159298545 9.300557524281608 72444.84986214996 165.5818657845994 8.393620861015911
0.2873673366042439 8.892152979076009 57376.77898244995 176.2902094859071 8.434837103286812
0.28852556299973053 8.504735044704658 44692.93408072222 187.35361601356752 8.477323195017487
0.291377250075139 8.14259576517797 34472.17050909302 198.78239002043142 8.521120100553944
0.2957447306969199 7.811718537019469 26530.902423936288 210.58739336979966 8.566271808761385
0.30138639912923737 7.511967355547059 20475.495144199656 222.77967423087745 8.61281218106092
0.30811958608274975 7.242608923076874 15893.794461248255 235.32536980060073 8.660594803045424
0.31580029668473325 7.002477584739095 12442.106413195885 248.22105842030442 8.709593602839456
0.3242715630259805 6.790068555744128 9837.486907610855 261.55036599320107 8.760129771025952
0.3334308407905518 6.596654384860898 7825.303785414201 275.3278453130772 8.81224840907735
0.34315465981818466 6.427390025433018 6297.439293246506 289.56836735742024 8.865995147087961
0.35339605320870265 6.276284575463514 5103.887527821718 304.28788111930356 8.921419128744082
0.3640586914891729 6.141602195437896 4172.931970091124 319.5033713121437 8.978572793226899
0.3750563803342801 6.022452054724941 3430.2134978049316 335.2332034743991 9.037513196792373
0.38639619500009464 5.914496178148275 2846.9865712880833 351.4473778670258 9.098102785612742
0.3979958741698781 5.818215207986467 2371.750260580314 368.19576100290055 9.160522611292555
0.4097975417108932 5.732240995634867 1984.6836006434548 385.52672497020757 9.224946869574634
0.4218063009610951 5.654445032486223 1673.5659777196977 403.4630258031071 9.291446022984221
0.43394772446585406 5.584549552592247 1414.6306194691433 422.0290464440895 9.360095782350086
0.44620996756366565 5.5213494917150925 1202.974298449363 441.2505328247165 9.43097594348053
0.45856122192795173 5.46412562555048 1024.6768576307259 461.15492411912584 9.504171610020645
0.47098974634776297 5.411919409946038 878.1210168627304 481.7714032303741 9.579769868158241
0.48346461452205886 5.364448885029041 753.9980787102503 503.1310654163512 9.657855674784527
0.49596181179551124 5.321011181351346 648.9958432251686 525.2672977624645 9.738530608877404
0.508437008276604 5.281461768476063 561.6163962041601 548.2152335228894 9.821917172842541
0.5209082111461402 5.244884243052767 486.840052568823 572.0124656081507 9.908131839232054
0.5333433067506349 5.211210341873602 422.8071917370116 596.6988862022499 9.997281924281141
0.5457161116457216 5.180042589412361 368.770199177104 622.3177362071651 10.08948648338704
0.5580202818599875 5.151221293347474 322.0847331046635 648.9144882334771 10.184910687387582
0.570236546326223 5.1243681248620785 282.2226605202742 676.5377009283667 10.283690427551425
0.582352008760751 5.099173978023181 247.9587218657051 705.2396001520957 10.385970178450677
0.5943291140821771 5.0757627964807215 218.2282974289075 735.075928710877 10.49194071857859
0.6062169905860475 5.053437370019767 192.48004839763541 766.1058739310906 10.60175576382755
0.6179177821326708 5.032400641293848 170.19300771366707 798.393445842737 10.715620306269415
0.6294595601944167 5.012591072636993 150.9537562910304 831.9986366067312 10.833711486099675
0.6408500793143465 4.993489776472693 134.03235323210387 866.9193303035686 10.955917847410564
0.6520390281880286 4.975261303496048 119.2178258075022 903.3061099094573 11.082796835827462
0.662990184510243 4.9579010117357125 106.37307780381035 941.2428667949462 11.214573141406909
0.6738093852308722 4.940726599799599 95.02868886823244 980.8183867189085 11.351514410769894
0.684369596358178 4.92424993414052 85.07859020843146 1022.1292734393205 11.49393061515683
0.6946614906143075 4.9082285345718635 76.33740191612146 1065.1474053035736 11.641536626296254
0.7047592736446201 4.892377500932326 68.56041658108887 1110.0914695529668 11.79515219465635
0.7145624307963332 4.876894849692818 61.735425857516226 1157.0907903433379 11.955143584844539
0.7241117163219788 4.861547410040374 55.68561800663438 1206.1969970465468 12.121581531141018
0.733371387285485 4.846341322564759 50.33445962697109 1257.5137650602685 12.294716246620217
0.7423548466324278 4.831215831779428 45.580343141808534 1311.2836645991517 12.475376840419958
0.751037207514761 4.816041345993934 41.34469334806586 1367.5259792128697 12.663443004332636
0.75940885126844 4.800872030452495 37.55832846570355 1426.4721344616084 12.859660595660008
0.7674678401927025 4.785594514606409 34.19770323312143 1488.28714752687 13.064472248125028
0.7751802878820425 4.77034354484101 31.1958549581805 1553.0965183602427 13.278155039451384
0.7825987407458309 4.754686086816418 28.478082506683045 1621.16720923632 13.501519128906475
0.7896592238774757 4.738919803907526 26.065594297494766 1692.6432680022615 13.734886187792872
0.7963610803614181 4.722998970587424 23.888950543857817 1767.782595070756 13.978956355400099
0.8027237005781799 4.706722308803482 21.93363612785587 1846.8678009831426 14.2345733555437
0.8087078322557937 4.690191087866783 20.182395317610222 1930.0428535840408 14.50191963181654
0.8143238234735682 4.673362468419878 18.59686445391032 2017.7199629120967 14.782266770731612
0.8195527802362383 4.656196070335853 17.168177625442645 2110.1925519276297 15.07637118468815
0.8243980343225178 4.638636708229788 15.873216181676929 2207.7066248402202 15.384704804396664
0.8288603573313705 4.620716451964837 14.70475686662149 2310.7042547760243 15.70854607894615
0.8329161455095044 4.602398912362726 13.648178682111505 2419.587988418344 16.0489261105025
0.8365691912878422 4.583720640910576 12.694945146373257 2534.787242505096 16.40691160028017
0.8398360692073368 4.564518273420234 11.820132502930068 2656.7740604250007 16.78369926837535
0.8426752136760012 4.54491682795786 11.031664272375656 2786.067347005133 17.180584795747354
0.8451048588743147 4.524897143086106 10.31510410473465 2923.2381179571444 17.598988538232767
0.8471178599988026 4.504400953712653 9.66440094860734 3068.9144043743872 18.04046644836299
0.8486994372959776 4.483476834802242 9.07007617963959 3223.78801218815 18.50672407137357
0.8498640011187278 4.462011068222616 8.52895347653592 3388.621032741096 18.99961537850005
0.8505927425488554 4.440166592370646 8.039982508060936 3564.254069234931 19.52121297221816
0.8508968847404218 4.417782947886583 7.589841359721632 3751.546544140729 20.073395874279004
