M[M_sun], R[km], Lambda[1], P_c[MeV/fm^3], rho_c[fm^-3]
0.23841724892012095 16.20908015294055 2780876.1263280716 3.453507347168396 0.169602847481901
0.24841542756843624 15.86623644412212 2282195.7783123464 3.635568311542005 0.17197871730588715
0.25869733942564027 15.562869191992545 1881634.7824990586 3.8248068458197655 0.17437540842372742
0.269262674129664 15.293556497543271 1558145.3194851386 4.020331016984293 0.17676727567962675
0.2801144528625156 15.053917489953768 1295428.3481459594 4.22246583213048 0.1791461951385763
0.29124575625572624 14.839808796922593 1081247.849737438 4.432580234997848 0.18154892242697393
0.3026683406582408 14.648372832777143 905503.9787156386 4.651021840905753 0.1839793146150925
0.3143694735518088 14.477019049712492 760997.302031154 4.878157896668588 0.18643902309973293
0.3263558791933394 14.323199981058785 641549.2192133944 5.111309033860243 0.18886848351646787
0.33862690725902933 14.184931234891039 542454.5486486208 5.35365680837075 0.191319608871678
0.35117823155206884 14.060683344154702 459999.5312080255 5.605703115135401 0.19380070885815526
0.3640130069021114 13.948824843399732 391126.1162546179 5.867860495716508 0.1963173839637333
0.3771394042397032 13.8481580669214 333367.77252570516 6.137042876550215 0.19881005959677073
0.3905448432244585 13.757482450503813 284841.24199586286 6.416635264209858 0.201332525198055
0.40423161638106814 13.675914189648145 243966.78079915125 6.707467077363805 0.20388959611090346
0.41820593825429203 13.602477759615008 209401.94923335686 7.009664876162327 0.20647324214438664
0.4324646160514555 13.536539380403244 180122.72836692765 7.31979503384131 0.20903301269751492
0.44700388994711765 13.477149668609046 155237.47794284992 7.642469782434439 0.21163724228511635
0.4618295773969905 13.423913186430301 134055.58034566173 7.97822305278525 0.21428596009647877
0.4769342070569045 13.37621530053393 114729.51786440035 8.325170138575757 0.21694227526440196
0.49232776889928614 13.333579369599201 100515.27312644955 8.68317247430399 0.21959530572255873
0.507995768392169 13.295446475127564 87266.89270547617 9.055777973673782 0.22229647595180588
0.5239451990876103 13.261588267681352 75888.3575260874 9.443591761114295 0.22504861866705445
0.5401824383609704 13.231564709481198 66092.62107745146 9.841268114586978 0.2277756146864044
0.5566855036576861 13.20510171396965 57658.331947906736 10.254839727513748 0.23054840061521348
0.5734726035512369 13.18177896608366 50369.78925098746 10.685339009234553 0.23337179969016675
0.5905375600705095 13.161381480356964 44064.432386456676 11.129862191511844 0.23620004721909862
0.6078631454247015 13.143717645097805 38605.460985634 11.589077258848713 0.2390450920733331
0.6254711954527549 13.12845784027616 33864.94620714039 12.067140680393537 0.24194948232285068
0.6433426576464428 13.115461677160665 29745.642531912737 12.563820718559562 0.24490276540514916
0.661478788122739 13.104463444062032 26161.09105525712 13.073915401249529 0.2478342882359558
0.6798795484746288 13.095267996037075 23034.18391705397 13.604972394817604 0.2508244474729499
0.6985268626529433 13.087740063080274 20307.118789292264 14.157898011138439 0.25387501947806285
0.7174452675237375 13.081899996521845 17923.734151957557 14.726772274820146 0.2569227162728586
0.7366157997205706 13.077467669066099 15838.020022756325 15.317018649145513 0.2600178940785496
0.7560208546737139 13.074179831367497 14009.74646500788 15.93152641664097 0.2631789772039335
0.7756683129787035 13.071995680042098 12407.670271591947 16.567474709914542 0.26636605331361285
0.7955554352066251 13.070939954057808 10997.96547333503 17.223805581804758 0.26956583844884724
0.8156815171594649 13.070743181486957 9759.067123101899 17.907191831501564 0.2728375732603821
0.836025073049838 13.071359935172326 8668.876886819067 18.618445643337445 0.2761809411560856
0.8565825590190957 13.072579312398847 7707.676055691726 19.348797863059673 0.27951294476289285
0.8773661202018402 13.074509686829753 6817.848282378727 20.109191915663082 0.28291575047161327
0.8983421198614163 13.07682115412196 6110.714249160062 20.90087930259335 0.28639119188872214
0.9195295326859042 13.079749983389467 5448.995944140064 21.718658106466428 0.2898903412741631
0.9408930209165625 13.082804625876191 4863.037511141302 22.565424347565965 0.2934353168365765
0.962451617415099 13.086271104641423 4344.196452354787 23.447013618847016 0.29706371440765517
0.9841881163110217 13.090025659381103 3883.9577403762605 24.364099517487023 0.30077132585611027
1.0060787764195152 13.093819016183103 3457.026498638493 25.30781241485259 0.30447217729574416
1.028125139971409 13.097666240615723 3112.9216181996517 26.29038056559382 0.3082595914514053
1.0503363283383942 13.101629845869498 2790.2108502205037 27.31330469161721 0.3121354259355675
1.0726529057794414 13.105293575188924 2503.1566206297653 28.37316139912507 0.316068585566035
1.095111718252076 13.109021390079217 2247.6243708715156 29.469480887750382 0.32004882258534273
1.1176704963430215 13.112511685554086 2019.750380453381 30.61082840002207 0.3241181053230783
1.1403553322807851 13.115832003470752 1816.3526478380538 31.79905678799034 0.3282773837009009
1.1631124155001655 13.1188674242812 1634.8913581810139 33.02885205581002 0.3324896777851141
1.1859534642836707 13.121523997488312 1472.6191879152327 34.30410706101909 0.336773863376944
1.2088561309089385 13.123876857790165 1327.591474535892 35.63186917823268 0.3411637746190861
1.2318210527740459 13.125822280237289 1197.733629152148 37.01415928680828 0.34565824251892396
1.2548160069378453 13.127271146898748 1081.433100917541 38.44762330047986 0.35021610315332513
1.2778356603559506 13.12822166821051 977.1962747568446 39.93374833602158 0.354850744356627
1.3008449598944347 13.128504336355912 883.7263169226777 41.48134540417241 0.35960261737521115
1.3238776180736502 13.128337994464921 799.7667464788624 43.09287558114017 0.36447387528233405
1.3468733491672211 13.127437576981253 724.3388226632283 44.77092978206757 0.3694663013040843
1.3698376173796218 13.125859345099894 656.5084062156137 46.508167591975585 0.3745150117721004
1.3927451728980915 13.123714189853532 595.7322637430489 48.31673420819481 0.37969000328138414
1.4156078281088254 13.120659434765038 540.5846942950797 50.19393492426514 0.3849675436145247
1.4383693011030287 13.11694457335316 491.13660657787386 52.15785032064214 0.3904255869479106
1.4571585041017956 13.110764269946074 453.05795635877786 54.36395752351546 0.7425595755049452
1.4626129688020595 13.09351530671039 437.63734250761235 57.30552377276411 1.2450173563645741
1.4590915949914491 13.064460807004817 434.61711533235666 61.034862654015114 1.7033253107259676
1.4500761830683329 13.025408770410593 438.153492399661 65.51138585487884 2.120189401610962
1.4372451821047574 12.977066844112395 445.7115892086056 70.71946720341955 2.5054331919889954
1.4217105179735405 12.920852789025005 456.05342328604513 76.65840050640762 2.890510765607655
1.404211725600734 12.858055448237938 468.46275160693494 83.37127134860381 3.327176655681716
1.385318746419402 12.790569487019921 482.6771593696859 90.93770931642622 3.8165672934510866
1.3639044886752052 12.711875596765669 499.05527769435 99.16443052225989 3.8656414852632017
1.3406871105168487 12.619882718429679 515.533587291252 107.69002457498958 3.9141229658813628
1.3168367429059318 12.516619383930642 530.3978018302062 116.57133105244777 3.9641994875338438
1.2930742248604343 12.40372879291865 542.4305648010335 125.82269587130186 4.016146899354313
1.2698442386075612 12.28230036702194 550.8046838822052 135.46188615790874 4.070088583048686
1.2474808425595876 12.15342738670182 554.8489624911816 145.5077958212384 4.126119512092742
1.2262324733068266 12.018150154669772 554.1447270306105 155.9808797571842 4.184319112241725
1.2062563221780787 11.877265511173677 548.4743380058873 166.903992379125 4.24479042715038
1.18770979742412 11.731792085440881 537.8947300211684 178.30188335989558 4.307661931552628
1.1706580300831078 11.582603639873437 522.6644020364158 190.20074996561087 4.373033120676777
1.1551790970373168 11.430625700036247 503.17619022614383 202.62983194922748 4.44104651921072
1.1412608404304339 11.27671188902222 480.16948383442514 215.61993044584568 4.511846845785853
1.1289161054969274 11.121708301258376 454.28925702447185 229.20444473428324 4.585567439885088
1.1181018500215816 10.966468566526007 426.4120872804546 243.4200530268553 4.662402620520706
1.1087789141888829 10.811674005353263 397.03085840447693 258.26801553962065 4.742253795799831
1.100855564356817 10.657967741313948 367.36790484063994 273.811790942158 4.825486314334132
1.094285708838557 10.506101157697936 337.71922417117565 290.10708214838485 4.91232071449157
1.0889513683792365 10.356416337357704 308.7785292761097 307.20214081807154 5.002996325230671
1.0847633074037788 10.209434893317608 281.01623878860653 325.15050668584837 5.097739424258116
1.0816185349989291 10.065590347955075 254.72071916729098 344.0089172537095 5.196792151458877
1.0794103163954767 9.925128397879524 230.12309680610377 363.7731231740867 5.300027712626032
1.078036638024837 9.78825678616073 207.38575895242232 384.5504405731845 5.407972868656684
1.0773858557882614 9.654990473643322 186.5289068651527 406.43223917661066 5.521066265165415
1.0773659398520927 9.52558093585652 167.55294182334083 429.4850994690693 5.639552291813638
1.0778778186416977 9.399937150186851 150.39343058331292 453.7061713193976 5.763258023979201
1.0788146248085124 9.27806155871577 134.95289755725722 479.27868072199266 5.893134273918024
1.0800981237581635 9.159928483610015 121.1236555177804 506.2665761489988 6.029370791403589
1.081638489685521 9.04535027529855 108.77082013265236 534.719879533237 6.172059291955574
1.0833529905758774 8.934309998225892 97.5364920142517 564.8414096491234 6.322208849898978
1.085186475817867 8.826668671349838 88.02175937143706 596.6252661797587 6.479502966078818
1.087043560236948 8.722243427030985 79.36197893703104 630.326961555752 6.645249046220563
1.0888779863944456 8.620863228930354 71.63701914436264 665.9649238321343 6.819173185547143
1.0906274797053603 8.52245954067447 64.85130911698528 703.8038452239065 7.002631769507132
1.092231489768602 8.426776747954369 58.81808281189484 743.9053747696576 7.195517003849156
1.093651262986431 8.333659441575584 53.45553439113961 786.5215218600731 7.398968104950826
1.094828105947548 8.243068413917737 48.701268806985446 831.8499397336134 7.613740745855756
1.0957375925947523 8.154739337283738 44.49083407032221 880.0325944532325 7.8400791301051145
1.0963289554732198 8.068622681528613 40.75738934760302 931.3771826248658 8.0793272826461
1.0965805214384405 7.984456474960136 37.42976811957089 986.1354690364121 8.332331461655526
