M[M_sun], R[km], Lambda[1], P_c[MeV/fm^3], rho_c[fm^-3]
0.23841724892012095 16.20908015294055 2780876.1263280716 3.453507347168396 0.169602847481901
0.2484288212948477 15.8657950677722 2281539.265246474 3.635809462006898 0.17198178483100435
0.25872589655449396 15.562023766060648 1880444.6183346175 3.8253029158357506 0.17438147689915326
0.26930410094210894 15.292536310206158 1556921.5406795084 4.021130267385846 0.1767770529918299
0.2801747869411316 15.052619700491281 1294171.7852459552 4.223560371200158 0.1791589940748574
0.2913184420728431 14.83855122474284 1079938.4061956871 4.433985177969595 0.1815647308731425
0.30276027587026966 14.647076840265346 904306.332477291 4.652753099120497 0.18399806504807284
0.314479713547014 14.475462784602918 759776.1482188175 4.880232029739462 0.1864606357937795
0.3264826572581084 14.321660463776679 640445.5066287216 5.113847092542883 0.1888949303662628
0.33877412902969334 14.183395091383368 541378.2488600825 5.356585740202064 0.19134883408157397
0.3513454979782531 14.059096096412839 458996.3654956829 5.6090412988797 0.19383279228996178
0.36420065087607556 13.947289271638645 390172.715689192 5.871627651315529 0.19635226847934853
0.37734847930322835 13.846706167609483 332547.84212148044 6.14143504316296 0.19885073182300605
0.3907760496897141 13.756066094631706 284084.0823293053 6.421513109205577 0.20137600105401024
0.40448620395828533 13.674514879281315 243267.59838827822 6.712852484996318 0.2039356387595387
0.4184830646593975 13.601130880233134 208780.52366023365 7.015826828817394 0.20652592387998853
0.43276405950824376 13.535222613764246 179563.44863930912 7.3265284772763515 0.2090885186013392
0.4473311941157339 13.47588070606829 154727.7355507626 7.64980111348109 0.21169553010801917
0.4621841742981231 13.42271708043254 133593.84220259773 7.986179699347042 0.21434687820708845
0.4773198112096912 13.375071598496275 115564.36202898352 8.334125774757933 0.21701084189373368
0.4927370866725811 13.332477054581378 100139.23018868029 8.692829160068555 0.21966635182859137
0.5084342530476583 13.294528948514564 86929.20411103951 9.066167076542667 0.22237025573004499
0.5244109958706288 13.26075069547451 75587.43331968563 9.45474753968653 0.2251251174668789
0.5406699972206389 13.23078234525105 65823.07826185225 9.853688003967717 0.22786078190493847
0.5572143383466113 13.204298039535576 57411.70239722058 10.268118307959421 0.23063614822981107
0.5740291762951463 13.181022404234483 50144.71415811948 10.69951452239887 0.23346199039714616
0.5911244243524536 13.160729456292865 43863.2283685746 11.145553999546598 0.2362998852457037
0.6084836987215319 13.143033713407464 38423.51393248359 11.605771932837452 0.23914775619228817
0.6261252070841451 13.127892899166326 33700.58286148625 12.08488590469056 0.24205499626881377
0.6440267772956023 13.114893458686273 29598.15522573909 12.583374859927215 0.24501903525787605
0.6622029122384482 13.104025028863546 26027.663139656368 13.094643862119685 0.24795318048441645
0.6806350756270441 13.09489741915381 22916.149529687522 13.626928674247381 0.2509459600234306
0.6993172535385188 13.08755290582858 20202.088068030054 14.181140381820663 0.2539995385557466
0.7182796028035702 13.081732136425305 17697.032815319904 14.752249589587441 0.2570592088785423
0.7374735970470234 13.077300699222103 15750.381203098976 15.343935488806622 0.2601575522958448
0.756920057388547 13.074049340456385 13931.094388111105 15.959951955629116 0.26332143274186337
0.7766059450538747 13.07197876722096 12335.430671222419 16.59854484720121 0.266521762344234
0.7965251664801708 13.070854685316524 10933.92230064984 17.25656084045528 0.2697246062790628
0.8166929943365443 13.07079976607937 9701.594701607608 17.941715622209696 0.2729998581319298
0.8370813597285994 13.071514954561477 8616.826197764503 18.655047351114728 0.2763487920842943
0.8576706296322391 13.072674967130212 7660.572408266943 19.388425416385317 0.27969368355420576
0.8784807676166024 13.074558578299385 6817.313363303504 20.150899868386958 0.2830997912005112
0.8995018929850034 13.07699829769479 6072.494096971259 20.944770953636716 0.2865789974946476
0.9207322220861532 13.079911422120324 5414.009905357556 21.766374967973345 0.2900945143657452
0.9421368611990044 13.083034107256344 4831.3481539086915 22.615589708775083 0.2936439062303354
0.9637310710193027 13.086564768105807 4315.517105475152 23.499757614252 0.2972769487856898
0.9855033139631303 13.09023363748903 3857.833055371055 24.42019541694081 0.3009936901271898
1.0074402089508314 13.094048642195704 3451.8677052372605 25.367955707764636 0.3047078731793982
1.029526620901236 13.097887773783349 3091.24264592212 26.353566261534088 0.30850035691229494
1.0517707734583868 13.101846896457582 2770.741727291421 27.379697763673512 0.31238181259227754
1.0741290115316446 13.105557233475848 2485.4770548130036 28.44507880317903 0.3163354731823979
1.0966241001553652 13.109300636915577 2231.5271318573855 29.545008883886716 0.3203219505518856
1.1192219011735514 13.112767038836166 2005.0447130940413 30.69016178528216 0.32439680138446314
1.1419430423579837 13.116109133645379 1803.0806413923901 31.88240213952292 0.32856285815375824
1.1647326567680178 13.119044936379172 1622.7288810943085 33.11898492886304 0.3327984008530013
1.1876027431545748 13.121717987843336 1461.6523530779393 34.39876490785773 0.33709035245942653
1.2105420249084686 13.12401841313082 1317.519669012693 35.731311144653375 0.3414885138813619
1.2335405113549383 13.125983797966107 1188.6421715991007 37.118653329565674 0.34599049312268587
1.2565654786587135 13.127324812037132 1073.111176325629 38.5604863944128 0.35057496409996036
1.2796066889483186 13.128207267566008 969.6066491729457 40.05231538491206 0.35521932367747655
1.3026678615640226 13.128513743568197 876.7242576758723 41.605951289816076 0.35998160191986456
1.3257246039283097 13.128312470484993 793.4107542072898 43.22387711783248 0.364863858669351
1.348758369595802 13.127478021462577 718.5672337244223 44.90869857658218 0.369866681005162
1.3717537500883894 13.125775240343623 651.2423076578528 46.65677475082325 0.3749468896153164
1.3946744367274713 13.123400561357654 590.7021961811354 48.47300859089883 0.3801351068912564
1.41753514240524 13.120296040160348 536.1677589629041 50.36519051670809 0.3854596037859004
1.4403181326603423 13.1164712126522 487.0794665439641 52.336546350622896 0.3909230195246644
1.4629998460891118 13.111776586690626 442.79807222832386 54.39048848196466 0.3965259718924344
1.4855432534568498 13.106209299533221 402.8616151203234 56.53046771069164 0.4022639075059212
1.5079540781085952 13.099773207224201 366.8228619942845 58.75154846286321 0.40811348261423264
1.530195036804593 13.092346965069495 334.2495759299753 61.067214539750964 0.41412504504961106
1.5522660744145687 13.083946227147871 304.8037169073579 63.481766203157875 0.4203013430828724
1.574142000786853 13.074616170019748 278.1770592500953 65.99976548744867 0.42664267819853313
1.5958045676975092 13.064210695494529 254.05834223179002 68.62613873726225 0.433157098244306
1.6172236115073737 13.052806782613953 232.2373648917103 71.36601460745567 0.43985825778650883
1.6384253412811096 13.040421092392586 212.43913872143722 74.22489771341338 0.4467527762479934
1.6593105654101188 13.026690339184558 194.48135298159087 77.2086769854328 0.45384398519547586
1.6799090652527875 13.011849463472291 178.17139849921398 80.32277584981402 0.46113151104895894
1.7002042857003403 12.995950758646181 163.3868189707608 83.57188923708638 0.4686283662170396
1.7201494127277681 12.978744850002053 149.931861692477 86.96676172440648 0.47635935501385634
1.7397613232681204 12.960454949984912 137.70518510467588 90.51501337955702 0.4843285145472568
1.758983163078544 12.940819954382981 126.57127589932 94.22480254608918 0.4925441510335482
1.777824075420646 12.9200365036135 116.44763740262017 98.10491445814645 0.501027220557653
1.7962204451493362 12.897784105602339 107.21465785548159 102.16472811154613 0.5097926598881312
1.8142099922687271 12.874345715490229 98.79589048380208 106.41426146026166 0.5188467203060846
1.8317672407671834 12.849729227446876 91.12280654135223 110.86427590647811 0.5282035094871534
1.8487998477058165 12.823376005259759 84.10545156431884 115.52635694195004 0.5378880813703535
1.8653680545538005 12.796014500840197 77.71091734394835 120.40790194704488 0.5479005697268784
1.8814052450891157 12.767068554810194 71.85867336338902 125.52572345723372 0.5582620087235041
1.8969025404532227 12.736642941246616 66.49992697213347 130.89440587477978 0.5689992675906117
1.9118487427045954 12.704863405064156 61.608652344031746 136.52932705259033 0.5801406499870502
1.9262377635519872 12.671767266441925 57.12426162640697 142.44705369314073 0.5917031687814974
1.9400133991034825 12.637141472950795 53.01699905329032 148.66545124529515 0.6037082881476915
1.9531959162225467 12.601007579774091 49.25052860831027 155.2037754175521 0.6161917226271205
1.9657401390325804 12.56357947741937 45.79832793747623 162.07176604529562 0.6291461714755895
1.9776263788534068 12.524352567432079 42.626570213004314 169.2977626970274 0.6426105930819036
1.988844993166009 12.483822652965895 39.7167104884768 176.9094028176624 0.65664260582838
1.999392556596306 12.441836717144657 37.04384717846743 184.93286742154677 0.6712817569034918
2.0092293000138737 12.398289777114663 34.58786795715328 193.37862416757633 0.6864911646054991
2.0183696096156245 12.353337906447152 32.328091776438505 202.2903661846045 0.7023719856703806
2.0267609633752914 12.306708124844192 30.2447762427245 211.70405816327434 0.7189816907135166
2.0344025279110376 12.258628162506094 28.331706144149777 221.63182245754055 0.7362719320408543
2.041282785951607 12.208944768035392 26.566089607138306 232.13255174654265 0.7543805230964055
2.0473968128271993 12.15786016314826 24.939807848335434 243.23514011467842 0.7733180664366568
2.0527081571705774 12.105243499852515 23.44351320669395 254.9848341310449 0.793130816530046
2.057226500391108 12.051124193494507 22.061190529567266 267.4306657792669 0.8139006196406721
2.0609436244645862 11.995556003750478 20.786235705842223 280.62131353418516 0.8356688826751942
2.063830915682655 11.938518144343892 19.611322728760335 294.61184502956536 0.8585034389087726
2.0658865027601117 11.879964502202903 18.524837698607282 309.4719396784462 0.8825123693227391
2.0671047010400088 11.82000991825204 17.52295601114959 325.2486555290364 0.9076935278724382
2.067469052472581 11.758688790790153 16.599240973998707 342.0334356594527 0.9342128166993652
