M[M_sun], R[km], Lambda[1], P_c[MeV/fm^3], rho_c[fm^-3]
0.23841724892012095 16.20908015294055 2780876.1263280716 3.453507347168396 0.169602847481901
0.24841161766404513 15.866359004693466 2282287.4631655086 3.63549623479741 0.17197780046243627
0.25868824225304354 15.563166170858423 1881897.6138467747 3.824658585763346 0.17437359474323874
0.2692493759524635 15.293785242102443 1558367.650411664 4.020092160765183 0.1767643537269804
0.2800977618690779 15.054248658955181 1295844.7041025627 4.222138747665929 0.1791423703932234
0.29122414997779067 14.840155041562895 1081521.9082851876 4.4321604150614435 0.18154419860472734
0.30264013622096425 14.64891389820041 905946.999297108 4.650504540737411 0.18397371198340265
0.3143380268403318 14.47743629211087 761328.3394442683 4.877538178179727 0.18643256556512108
0.32631934493393333 14.323596895947471 641880.9757403551 5.110550750771669 0.1888605821235321
0.3385824798582367 14.185402670209939 542770.7094156684 5.35278179089948 0.19131087784933495
0.3511286598549225 14.06113282453079 460286.4278669711 5.604705883498802 0.19379112442073093
0.36395909908105517 13.949240726206229 385688.73435795243 5.866735169967895 0.19630696325170857
0.3770764880298175 13.84855727607071 333622.2141596597 6.135730934265156 0.19879791078318274
0.3904743789747587 13.757986691945879 285081.3170868054 6.415178318495129 0.20131953955335252
0.4041557332933655 13.676307204284127 244168.0507249368 6.705858603848245 0.20387584443489865
0.4181214730439838 13.6029437469082 209597.98311441974 7.0078245948356 0.20645750862293416
0.4323725849436537 13.536881887667173 180284.62397848742 7.317784165819754 0.20901643647643509
0.44690828867016125 13.477545029601174 155388.76668305302 7.640280458239102 0.21161983604058002
0.46172220101434336 13.424236649281893 134195.94292516191 7.975847095664336 0.21426776916420953
0.47682329541512425 13.376525141795033 116100.22556353245 8.322496055662988 0.21692180180521356
0.4922045705120236 13.333810069466553 100624.28548463836 8.680289184674065 0.219574092802747
0.5078637839217077 13.295748500169633 87363.88701840819 9.052676127061785 0.2222744477210671
0.5238088090855405 13.261839683968793 75969.43378289376 9.440261145196969 0.22502577955110195
0.5400319408798111 13.231815791649998 66172.89108766992 9.8375603542685 0.22775018936870345
0.556531591488121 13.20534220996065 57730.31359163477 10.250875776139306 0.23052220600209866
0.5733009898735737 13.181957246513408 50434.90366738472 10.681107468707 0.23334487681073598
0.5903552053962065 13.161515722326381 44123.8285953245 11.125178360184458 0.23617024667121775
0.6076852009201171 13.14387996780688 38658.03635079625 11.584094274070276 0.23901444914239658
0.625275185470351 13.12859194312268 33913.60364874641 12.061844330594848 0.2419179899755517
0.6431413676198477 13.115546752170738 29788.33467008648 12.557984900595534 0.2448680653545327
0.6612647339450319 13.104597879814737 26200.55187412623 13.067729345303663 0.247798806870257
0.6796555753701439 13.095330369201843 23069.775169266875 13.5984201586013 0.2507881854579514
0.6982899377133126 13.08787775714632 20340.297768531946 14.150962229944106 0.2538378616042322
0.7172036886855885 13.082076730483042 17821.884895685806 14.719170137125202 0.2568819884492153
0.736355404925963 13.077498873450658 15863.58294957185 15.308987264040502 0.25997622317883406
0.755753219448246 13.074202395497164 14032.844719695015 15.923045173595334 0.2631364731711733
0.7753888876089068 13.072084232159852 12428.106737337797 16.558205124541146 0.2663195984769498
0.7952603935072768 13.070909327679459 11016.805989005421 17.214033597955602 0.2695184727208222
0.8153804763123169 13.070788100722394 9776.618973277724 17.896892600319468 0.2727891599959305
0.8357117392286393 13.071312004119086 8684.375687439444 18.607215921959753 0.27612815396632706
0.8562553185606091 13.072600140741915 7722.441385380134 19.33697741976723 0.2794590324606141
0.8770308759727684 13.074477513464355 6872.958572092202 20.096751352180817 0.282860855176552
0.8979963582985991 13.076782374027692 6122.325212564419 20.88778785118745 0.28633517558709565
0.9191671583079444 13.079711763881644 5459.8274383840335 21.704426876717648 0.28982944803678196
0.9405311068982232 13.082904984692343 4872.965291915718 22.550463397837042 0.29337310866426797
0.9620677190064286 13.086213952905725 4352.858900567844 23.43128419504268 0.2970001232087707
0.9837830543939357 13.089876598482084 3891.8338844287937 24.34702738444233 0.3007023063280378
1.00567575313723 13.093752475983404 3482.677773766096 25.28987849390822 0.304401895953641
1.027709514103457 13.097587856552556 3119.4588747027683 26.271540116664195 0.3081878010041782
1.0498999025832074 13.10146605373322 2796.151430503547 27.293508597092483 0.31206196204250153
1.0722124033032323 13.105227411058083 2495.8603229142886 28.351719980405463 0.31598901582615363
1.0946500147484293 13.108922723883811 2252.5053507663392 29.446963835619417 0.3199673953401399
1.1172106087009552 13.112467959496614 2024.1890354464456 30.587177729174513 0.3240350211487082
1.1398851745595793 13.115817886204095 1820.4063640059378 31.77421100963256 0.32819228195434785
1.1626343069840028 13.118830973756744 1638.5193677561363 33.00198524748706 0.3323976536078207
1.185456979729738 13.121485692758352 1475.9833022526443 34.27589252507278 0.33667952790563815
1.208352859889023 13.12386123100288 1330.6222211485995 35.60222979608798 0.3410669837827981
1.2313007057617962 13.125745087943828 1200.4784471288788 36.98301532238363 0.345559216768646
1.2542817812506668 13.127197819013174 1083.9927730970612 38.413988048091376 0.35010915607176085
1.2772967561274047 13.128156985820892 979.5160515767882 39.898414621229925 0.35474090543659936
1.3003033979504204 13.128452284784482 885.7698923642523 41.44421359990547 0.3594896822609541
1.3233197907660437 13.128288538870986 801.6360953838158 43.05383954274229 0.3643576674358117
1.3463212895060181 13.127479126960772 726.0732055113771 44.72987897149212 0.36934700062118947
1.3692745698655342 13.125930235654456 658.1346132827827 46.46389148811806 0.37438633783479974
1.3921780536205886 13.123714067955227 597.0058524094346 48.270175763258614 0.37955739465063765
1.4150130228423567 13.120714154256925 541.9366517911828 50.15180471324894 0.3848636371109224
1.4377554406906006 13.11696304878999 492.36807104014355 52.111965531237516 0.3903079172572756
1.4604140880327818 13.112410741757921 447.65668692573183 54.15403834812323 0.3958919771201629
1.482948174661127 13.106966133914405 407.29103774669267 56.27562177250479 0.40158058798344876
1.5053176238501562 13.100522983724932 370.86837819627596 58.483204377338964 0.40740681655947597
1.5275581876092084 13.09329503680507 337.95972019609377 60.784527883685634 0.41339354105738724
1.549593358375079 13.084973377268376 308.22167382610036 63.18383754426233 0.41954392677091756
1.571485124223099 13.075912199456765 281.30526157300335 65.68564356324619 0.4258588862548612
1.5931328937329896 13.065677521538293 256.9468910302641 68.29480151534042 0.4323435268473908
1.61453542834447 13.054315314960279 234.87794165759195 71.01635656078507 0.43901301086803524
1.6357202981383534 13.041936786405639 214.85424620883185 73.85573935269709 0.4458745709680975
1.656609091404927 13.02857113103199 196.7316713620777 76.81465364042936 0.45291364803302914
1.6772093719603989 13.013868394574494 180.23264649835073 79.90286356378402 0.4601488442249733
1.697511259328559 12.998088021932398 165.267068592472 83.1282006439275 0.46760482321518787
1.7174725716820314 12.98113159845783 151.67398421276306 86.4977180261675 0.4752922917280215
1.737094505068307 12.962957586445409 139.30876114837147 90.01892578645473 0.4832161755447967
1.7563561580582046 12.943589726545053 128.0472285283288 93.6998653577868 0.4913840189826141
1.7751938711453157 12.922953381332341 117.80884968949562 97.54917909047937 0.49981463692678285
1.793661449850591 12.901100469843243 108.47077813517379 101.57608888147509 0.5085241823296753
1.811667684808459 12.877750540237551 99.94964273123087 105.79045992886162 0.517520054550919
1.829238595756614 12.853230014197969 92.18432131823535 110.20288698472102 0.5268147468161202
1.8463336091077207 12.827366100455894 85.09560717598099 114.82475821406557 0.5364316991270204
1.8629453609637476 12.800199753717104 78.62289047320178 119.66829456389095 0.5463907676418358
1.8790311172240035 12.771444347101996 72.69953011228503 124.74616089494297 0.5566987193855675
1.8945984667131095 12.741427193750074 67.28576121047467 130.06587711165625 0.5673549029719246
1.909597418617643 12.709852450520511 62.328440604309655 135.64828937485058 0.5784096660037511
1.924033799652927 12.67694545159099 57.79287359817558 141.50968597420382 0.5898817173878651
1.9378838883736735 12.642683177810836 53.643288875096616 147.66762203542166 0.6017888846792478
1.9511493677675735 12.606901899667234 49.82710680912841 154.1409991247457 0.6141665399407656
1.9637752062564704 12.569620550122508 46.33131024274978 160.95024910179626 0.6270467303393961
1.9757492941885948 12.5309300404858 43.126103621630236 168.10381547859527 0.6403994481382772
1.9870627975013657 12.490658013154526 40.178274569431295 175.6352831910582 0.6543032423068124
1.997701551316395 12.44890232867119 37.47218223000556 183.57239528426004 0.6688048655584491
2.007637676867212 12.405689567824412 34.98418114507164 191.9397243226111 0.6839176850205095
2.016863818504718 12.360961528307598 32.6973023585646 200.7518299016212 0.699642135037384
2.0253776008922015 12.31467143705 30.586990622229916 210.0579745324307 0.7160837734937806
2.03312847191161 12.26693540007001 28.649126214721083 219.8853915959737 0.7332477374850674
2.040143668025795 12.217731571320007 26.86389526508204 230.26140990544403 0.7511643253193401
2.04638003701234 12.167010089835673 25.21749052157183 241.24423868732055 0.7699472146136084
2.0518284112036485 12.114674478209043 23.699680020009385 252.85001536595254 0.7895440206048818
2.0564911044766307 12.060951782243384 22.299469404918707 265.152978613485 0.8101228588459498
2.0603302396102974 12.005712125349024 21.009597383922998 278.17676075448173 0.8316501067689893
2.0633639539057036 11.949020811475053 19.81746639909434 292.00121524298623 0.85426825515318
2.065575137138083 11.890907622251515 18.719084929722765 306.6624961834247 0.8779855263600927
2.066936143310003 11.831302096797618 17.705020104515896 322.24201893254207 0.9029144374383588
2.067470505316704 11.770291255567065 16.767199457787182 338.81036022385354 0.9291529047334585
