M[M_sun], R[km], Lambda[1], P_c[MeV/fm^3], rho_c[fm^-3]
0.23841724892012095 16.20908015294055 2780876.1263280716 3.453507347168396 0.169602847481901
0.24840479479350797 15.866540134836281 2282548.1640613363 3.63538139361064 0.1719763396391073
0.2586744532608192 15.563548914329852 1882349.7925827827 3.8244223687207253 0.17437070507590932
0.26922994058805577 15.294266845661932 1558926.9174224874 4.019711614718725 0.17675969846813203
0.28006968456109893 15.054823650145616 1270195.8984587528 4.221617654190777 0.17913627701348964
0.2911898199889841 14.840909250438536 1082223.415560396 4.431491602709465 0.1815366731148849
0.30259802922036694 14.649529630626372 906492.4666498362 4.649680459984001 0.1839647867573413
0.314284344245735 14.47817462446081 761957.3992255181 4.876512057377432 0.18642149172978686
0.3262581422867683 14.324284546852635 642413.1541931992 5.109342858906154 0.18884799575783684
0.33851282498156776 14.186141239901461 543298.1879042163 5.351387991939681 0.19129697036718823
0.3510478081290109 14.061906464649056 460773.4556840387 5.603117459124027 0.1937758580037175
0.3638713388270971 13.950017270585784 391816.0816865847 5.864942764928818 0.19629036526950927
0.37697603653986717 13.8492707290207 334018.88543587236 6.133641371286961 0.19877856106681827
0.39036664190439613 13.758711308552972 285453.0116911059 6.412857870456497 0.20129885757908567
0.40403706022075137 13.677110127625534 244501.0987268661 6.703296891057403 0.20385394302093304
0.417989017812798 13.603639390030535 209895.39031939136 7.004893815217014 0.20643245186485493
0.4322263171264852 13.537476870492227 180556.59337134566 7.314581800500956 0.2089900383662987
0.4467484898314341 13.47812235713221 155643.5245455212 7.636793987796377 0.21159211682146029
0.4615552699402386 13.424811024278169 134413.49086308852 7.972063511944342 0.21423880108453355
0.4766372823347932 13.377059772029678 116306.4997891331 8.318237898731027 0.21688920027227376
0.4920087078501876 13.334414754241992 100805.13308220347 8.675698006185849 0.21954031461407636
0.5076594706009748 13.296313108668741 87535.11263489633 9.047737052861988 0.22223937214199485
0.5235893073745639 13.262413074113349 76126.26910597384 9.434936162397785 0.22498912491626777
0.5397947835226501 13.232290618397274 66312.55771577451 9.831656874849184 0.2277097072914157
0.5562817428853455 13.205671653643357 57846.54723945483 10.244564539987048 0.23048050004416223
0.5730390695319545 13.182309928904159 50541.56838270217 10.674370345219435 0.23330201233568612
0.5900800276522797 13.162002885950777 44221.23397955471 11.11772145718226 0.23612280264955524
0.6073912932378137 13.144094425454012 38741.03016514374 11.57616128447281 0.23896566511772782
0.6249678982274611 13.128852741991585 33990.43494612792 12.05341264940979 0.24186785479900802
0.642813977315656 13.115774490456854 29858.367354623468 12.548694807521507 0.24481282602015195
0.6609177826925585 13.104669159110015 26262.32728196376 13.05788192408617 0.24774232500904111
0.6792969302006212 13.095526930843757 23126.806136530176 13.587990053497759 0.25073046216849487
0.6979139388547351 13.08799378812129 20391.596950328127 14.139921822976923 0.2537787135374708
0.7168125214023753 13.082223392316216 18000.046019524074 14.70706956716082 0.25681716064692206
0.7359397710708258 13.077546568767147 15905.558594208105 15.296203722395337 0.25990989568053335
0.7553233506376256 13.074318043598073 14071.466868164993 15.909545882564144 0.26306882102335216
0.7749422037516925 13.072133278277727 12462.126084787982 16.543451738978515 0.266245661392503
0.794807075916298 13.071026576211233 11047.561676215624 17.19848092899112 0.2694430874664453
0.814897030510209 13.070712413330542 9804.286640032367 17.88050113306686 0.27271210915351124
0.8352149366804476 13.07127654739388 8709.298574741208 18.589344403481896 0.276044145894761
0.8557400608774576 13.07253920318293 7745.056061188574 19.31816619427731 0.27937323563812994
0.8764946054646392 13.074413324450942 6893.106431638254 20.07695367474121 0.28277349584221606
0.8974412492354134 13.07678366859286 6141.678528376041 20.866954800358187 0.2862460341754317
0.9185961363414226 13.079628974199961 5476.671432839983 21.68178113999102 0.28973255042171225
0.9399378131421813 13.082745606051507 4888.248681403623 22.526656980232985 0.2932741207152945
0.9614548593616582 13.086143012877024 4366.703206399601 23.406255482915547 0.296898936678959
0.9831549075313143 13.089805421523304 3904.4128542366275 24.3198634995644 0.3005924876832333
1.0050269949393724 13.093643617666864 3494.2098127961835 25.261344004367217 0.30429007198456065
1.027045726717272 13.09743391026453 3129.495578600253 26.241563899645094 0.30807357835300797
1.049214372034514 13.101372622535068 2805.6463224512377 27.26201257321856 0.31194507936511356
1.0715023828774566 13.105069603370968 2517.1738894263704 28.31760795234357 0.31586242507974804
1.0939364116003267 13.108798974835205 2260.087358351172 29.411141321978636 0.3198378522460864
1.1164662656605377 13.112285260619142 2031.2271044442568 30.54955256531183 0.3239028449539938
1.1391292151642582 13.115689215545839 1826.8188381019847 31.734685465226764 0.32805689908109037
1.1618575649580807 13.118693612791056 1644.3342012692485 32.95924682631979 0.3322512659908227
1.1846692414007034 13.121406587473766 1481.300893581761 34.23101122403718 0.33652946700461644
1.2075455050370556 13.123761984663965 1335.41034296736 35.5550830595028 0.34091302065225604
1.230472834336142 13.12566216363304 1204.9069409570654 36.933476439144734 0.34540170229766287
1.2534426873212539 13.127140209598645 1087.9632114019491 38.36048932661511 0.3499390508481334
1.2764476163261589 13.128151241443833 983.1716931352171 39.84221574672223 0.3545662047656087
1.2994383046401579 13.128480052734448 889.0995737112881 41.38515627452477 0.35931006142320443
1.322438968021984 13.128355576027852 804.7426069658543 42.991755119759574 0.3641728459889255
1.3454324573645635 13.127529222556912 728.8499951932677 44.662940855681846 0.3691478614741266
1.3683682841928821 13.126020758393226 660.6826003533221 46.39347882608696 0.3741817065852093
1.3912526648614874 13.12378267376173 599.3377580837807 48.19613540311587 0.3793465115167193
1.4140921751530209 13.120895911226995 544.0604267403695 50.07391694287393 0.38464610382248726
1.4368160539127788 13.117086096654527 494.3023308057945 52.02999659712336 0.39008341332427254
1.4594594661543259 13.112567468155444 449.4377554407263 54.06774277637064 0.39566059242829377
1.481969659302458 13.107122375881191 408.9325394313341 56.182625020435715 0.40133123538765125
1.5043596046707408 13.1008594479101 372.3777595821301 58.385288420326155 0.4071489614891666
1.52658846797725 13.09364057078457 339.3290515558748 60.68138543591087 0.413126640902406
1.5486241145068866 13.085402867648463 309.4862192425486 63.075141339273785 0.4192675912246458
1.5704987567918887 13.076384697172925 282.4747257952169 65.57104751416185 0.4255729480470236
1.5921369712561382 13.06607004881509 257.99859634564103 68.17393383168177 0.43204674615470035
1.6135445705441689 13.054838578791554 235.84948113865508 70.8888151294993 0.4387046982100012
1.6347260204713014 13.042587247020313 215.75781547648543 73.71954966478495 0.44554758275319895
1.6556191549836448 13.02921692138051 197.54482567085057 76.66965827555815 0.4525687128817752
1.676243859417846 13.014732560952828 181.00015599789114 79.74974226251217 0.45979051409791766
1.6965317033904233 12.998948877984974 165.9792086524612 82.96642239964218 0.46723161779061023
1.7165016070587993 12.981987865559255 152.31314368689146 86.32670898454819 0.47490325021538016
1.736129160553064 12.963977078535464 139.89904078068923 89.83807219654125 0.48281066146907137
1.7553834518229876 12.94467529549752 128.59855109302387 93.50851106907338 0.49096111839875933
1.7742493883628425 12.924071467797985 118.30793342193083 97.34661613214794 0.49937265582969265
1.792731649431185 12.90240075236021 108.9402426499003 101.36155231678917 0.5080618706048189
1.8107414711630374 12.879083792632965 100.38282557220936 105.56312944836583 0.5170365809645329
1.828321971437633 12.854620369881413 92.58107617810418 109.96188187800412 0.526308692232007
1.8454157665184296 12.828754346045876 85.46433439196451 114.56912625443223 0.5359010569920767
1.8620432101581335 12.801553445942195 78.95528729452349 119.39700603951187 0.5458338915412548
1.8781521338105183 12.773083491050325 73.01925431259984 124.45853506986684 0.5561160407042302
1.8937293932690376 12.743054526715163 67.57504536864084 129.76407345700125 0.5667559192388383
1.9087604301645102 12.711742950346395 62.60319228237883 135.32739388779223 0.5777791992683942
1.9232333447604482 12.678972040423437 58.04646368442725 141.16831220914332 0.5892183750222627
1.937116764017342 12.644752103593968 53.8697897424595 147.30427120463958 0.601089950595174
1.9504020463621117 12.609044216196917 50.03887373039871 153.75404425255786 0.6134291746900917
1.963058427158657 12.571970297782096 46.53184170194891 160.53792530788897 0.6262682242707158
1.9750464513124844 12.533145522072365 43.3040262438824 167.66918463868726 0.6395945283150469
1.9863975662921507 12.493145115068508 40.35000768621851 175.1715267856611 0.6534517564690416
1.9970416979660055 12.451546891506043 37.63403816955571 183.1193163514233 0.7051950858492237
2.005732207965187 12.409779262233394 35.327281385459834 191.70164975482297 0.9127780480617655
2.011588149530326 12.36651971816915 33.43493902010523 201.2245040419863 1.1195978698228148
2.0147114888420252 12.32077666618997 31.866363237384924 211.68732547543527 1.3278611118635482
2.015281274657083 12.271705198839797 30.54897635691699 223.14691575517432 1.5380896975502654
