M[M_sun], R[km], Lambda[1], P_c[MeV/fm^3], rho_c[fm^-3]
0.23841724892012095 16.20908015294055 2780876.1263280716 3.453507347168396 0.169602847481901
0.24840006109883558 15.866792667007532 2282879.503587588 3.635286176895725 0.17197512844648238
0.25866419110505123 15.563702055821064 1882619.7580115113 3.8242265251151726 0.17436830930097974
0.2692123906950511 15.29471466980027 1559487.5778008287 4.0193961237400195 0.1767558390346052
0.280048228402611 15.055229815605037 1296901.8092859695 4.221185659336482 0.17913122550389343
0.2911608145403781 14.841311998970252 1082642.9407467307 4.4309371673258795 0.1815304345969581
0.3025605010084232 14.650082878366877 907038.3688930775 4.64899733431056 0.18395738814860232
0.31424400868699515 14.478772597351744 762424.8885021902 4.875657992957547 0.18641224176491764
0.32620636597551306 14.324945342284442 642901.1343129422 5.108341650107549 0.1888375630523635
0.33845571126558255 14.18679921107003 543717.4812192462 5.350232726397353 0.19128544299820027
0.3509844366281342 14.062487400521057 461154.9246370841 5.60180092017386 0.19376320468956112
0.3637961274590137 13.950731522003968 392205.4292893429 5.8634572084322345 0.19627660875814673
0.3768944510160179 13.849921352711032 334343.9520601988 6.131909605348101 0.19876252461322666
0.3902728571584546 13.759189810713066 285745.65322690405 6.410934815025769 0.20128171753446072
0.4039334215523358 13.67764791964527 244778.55989922912 6.701173954780634 0.20383579293541748
0.41787822895024757 13.604089029762227 210137.84998048126 7.0024651372589775 0.2064116878348129
0.43210703141209694 13.538036363091141 180790.11782239488 7.311928144848917 0.20896816344348607
0.44662144756510436 13.478661870232576 155843.36912054813 7.633904992219668 0.21156914783240893
0.4614148683438685 13.425242211952478 134589.01973686475 7.968928409792012 0.2142147979447428
0.4764861130535816 13.377481717058922 116470.02779204653 8.314709726022905 0.21686218768429283
0.4918477972588505 13.33483765266375 100960.62886745008 8.671894009609565 0.2195123278750755
0.5074857135358257 13.296714396187559 87666.65062728351 9.043644922145294 0.2222103112595863
0.5234036299003757 13.262706012786598 76244.89650728031 9.43036835139384 0.22495668591867937
0.5396007787194093 13.232634210017247 66420.08641130383 9.826766078187244 0.227676169508965
0.5560734605414616 13.205939091825794 57945.44472274127 10.239336072344623 0.23044594924518935
0.5728223321789678 13.182532255214873 50628.14982003257 10.668789202300815 0.23326650270582308
0.5898389123330792 13.162090655135374 44300.33086252663 11.111544336923185 0.23608350115571833
0.6071450354289532 13.144328168107668 38812.406981356515 11.569589954134218 0.23892525463471811
0.624708680195005 13.129078754180037 34055.47027568647 12.046428402684187 0.24182632613646407
0.642543235408777 13.11587104702393 29913.921253146735 12.540999891168497 0.24476707168227085
0.6606374509808016 13.104892097363441 26314.16728995147 13.049725580646294 0.2476955426638946
0.679003450148543 13.095782659605591 23175.418980589246 13.579351302323564 0.25068265276201046
0.697600588125084 13.088123036275153 20433.752742122797 14.13077781160577 0.25372972525319315
0.7164817142525814 13.082203405383263 18037.5669556172 14.69704800375963 0.25676347095025875
0.7355996635996097 13.077595439134704 15940.13386189661 15.285616785316781 0.2598549652809165
0.754967961352571 13.074356793136769 14003.890453413844 15.898366452390805 0.2630127949356936
0.7745772450770535 13.07221389785824 12490.358081578082 16.53123436537887 0.26618443361670063
0.7944200967294145 13.070978079827084 11073.151531605276 17.185601970000015 0.2693806619366618
0.8144996544275324 13.070803766745719 9827.26862970673 17.866927898062908 0.27264830588469513
0.834792088538176 13.071223430823217 8730.291141700964 18.57454637339307 0.2759745852711196
0.8553116029251424 13.07245829086234 7763.3802633505375 19.302590433617446 0.2793021955683
0.8760420819165902 13.07429722389342 6867.971815706491 20.060561515633886 0.28270116371576776
0.8969752754189954 13.07665017186786 6120.092650241401 20.84970577544508 0.2861722282579412
0.9181231136711167 13.079511693708376 5490.397969380617 21.66303229660184 0.28965232701226185
0.9394451396181541 13.08267742217507 4900.694112210407 22.50694765262435 0.2931921686153157
0.9609532838242305 13.08605031418059 4378.3044460412275 23.38553471071157 0.2968151663665398
0.9826292482075726 13.089694871896018 3915.0678616904347 24.297376316463343 0.3005015760929094
1.0044768750347097 13.093473330412245 3503.664764249708 25.237722752699984 0.30419750253059236
1.0264830362172304 13.0972962976847 3138.267799946229 26.216749761219713 0.30797902550547407
1.0486530091947888 13.1012551662665 2813.21034605974 27.235940978977748 0.3118483269067449
1.0709346807422573 13.105074983401108 2524.2016002664213 28.289372518071062 0.31575764254693706
1.0933393441869714 13.108697923369231 2266.5875657284273 29.381490801616593 0.3197306286105115
1.1158644187490192 13.11224559460811 2037.0566319891993 30.518410752145744 0.3237934445969396
1.1385048914242455 13.115597790552009 1832.138423567801 31.701971553264062 0.32794484740758195
1.1612212225589906 13.118676708308316 1649.2223844396315 32.923875819565076 0.33213011323767405
1.1840062079759714 13.121333805834269 1485.732738585751 34.19386768354744 0.33640527735270315
1.2068722118845723 13.123683846649588 1339.4991932884404 35.51606566846798 0.3407856048414406
1.229820407796558 13.125823243006328 1208.6034075713533 36.892480449437485 0.34527135092094685
1.252766942988423 13.127273299632975 1091.3867424035352 38.316219068616235 0.3497982885657996
1.2757478668190734 13.12813961542946 986.2096844352433 39.79571235866506 0.35442164363038847
1.29873388345167 13.128527367083601 891.9191308431884 41.336288917551705 0.35916143302627773
1.3217240048053474 13.128358524193873 807.2041176998449 42.940384407717005 0.36401991858989136
1.3446948905358207 13.127586889016309 731.1838612836897 44.60751750951551 0.3689828696365993
1.367613075764765 13.126058549917134 662.8155162696141 46.335222408276806 0.37401240346231507
1.390491052293687 13.123872202778857 601.2675817160018 48.13487937493302 0.37917204095539725
1.4133219840800526 13.12104269419426 545.8656884784208 50.00947975256086 0.38446613675142033
1.4360551964447403 13.117292717414413 495.9086038773568 51.96218510007143 0.38989768506080896
1.458664787158714 13.112703554196766 450.9133536711479 53.99630169914665 0.39546890764183174
1.4811780928526599 13.107350863353393 410.30202353354247 56.10569790577486 0.4011249703805288
1.5035623927925401 13.101089628405248 373.6086362551613 58.30429474149085 0.4069356700973666
1.5257849146504276 13.094009008624427 340.502283194052 60.59607135154296 0.41290587493426056
1.547835140557162 13.085803341471875 310.51930433145986 62.98523651753613 0.41903902852524005
1.5696632371361143 13.076614385894622 283.4365865763432 65.47626609252022 0.4253364509770369
1.5913168456882973 13.066456858851213 258.8845533028787 68.07396873454104 0.4318012900503369
1.6127277245995872 13.05533712583704 236.67148031313613 70.78333425724465 0.43844971370991576
1.6339138017295354 13.043152337172636 216.51187649626576 73.60595449358244 0.4452729831284323
1.6547973740679136 13.029717678324346 198.22599993051355 76.5497554669339 0.45228347139515723
1.6754055454411956 13.015169545971728 181.6251605061473 79.62312467065608 0.4594942072000503
1.6956986764359712 12.99949644251389 166.54782917456942 82.83265159424607 0.4669230225870679
1.7156877485740083 12.982762158444501 152.85587959939062 86.18531118945829 0.4745815735860919
1.7353240605526588 12.964781941727269 140.3938863482691 89.68854073020555 0.4824753785786848
1.7545843666760155 12.945494894602508 129.05358208357399 93.35030428292217 0.4906114751130876
1.7734600910502996 12.925103807805913 118.73421562105813 97.17914964081294 0.4990072532695415
1.7919276699956626 12.903175019550671 109.31244799058685 101.18419475843575 0.5076796771132864
1.8099686041723493 12.880159721787008 100.73801690458787 105.37520380591724 0.516636911355203
1.827571403659652 12.855881236003302 92.91700601785313 109.76266133666945 0.5258903755018544
1.8446642444148145 12.829915100147153 85.76486629635203 114.35782503893049 0.5354624368435206
1.8613138981465525 12.802926765295854 79.241065481066 119.1727744994127 0.5453736096846467
1.8774224507804083 12.774334480841667 73.27039853379256 124.22045940330597 0.5556331769963262
1.8930370095494493 12.744610816943574 67.81954807519683 129.5146382237825 0.5662608700740844
1.908102128515938 12.713341209018225 62.82069430506743 135.06219387489634 0.577258158016366
1.9225803950642486 12.680597656944101 58.25015204085835 140.88620374683498 0.5886701943654657
1.9364657649897252 12.646405097330646 54.060956405765424 147.00401805563044 0.6005123898964926
1.9497587750312453 12.610776939433984 50.22151830795181 153.43430456239315 0.6128198919190655
1.9624475620987618 12.573744562403077 46.69539247498665 160.1972436120232 0.6256249852152965
1.974475402790614 12.535191423921457 43.46169689569006 167.31008402059987 0.6389294875965974
1.9858445906615236 12.495176588609308 40.49215450865977 174.78838608059036 0.6527482861116631
1.9965402576212536 12.45359186536399 37.76194878699034 182.66824557505538 0.6671587601161001
2.006559339143505 12.410584743379824 35.250838900311265 190.9770740721222 0.682186351455954
2.0158554366791623 12.366087610938896 32.94484545239601 199.72961830078603 0.6978284079147546
2.024433741350736 12.320073795840436 30.81996035290741 208.9644977097852 0.714158716191496
2.032286579953839 12.272590615148323 28.86452026271603 218.72296881596145 0.7312312487044127
2.0393616270996113 12.223525929774572 27.06482478946617 229.01880380034507 0.7490284813628815
2.045681329139282 12.172990757221736 25.403562899635403 239.91228223114229 0.7676746385902309
2.0512231681647304 12.120932352663095 23.87200522348893 251.43276300452786 0.7871628372098279
2.0559698890835194 12.067511316684419 22.46430628504566 263.6316142885082 0.8075845042432424
2.0597955061157394 12.012947121724052 21.177109529785454 276.6345791540398 0.9138719787567896
2.0622461713864655 11.957582362492113 20.038992705368976 290.6237286827626 1.050369355442482
2.0632206415883756 11.901000849246092 19.03291139749042 305.72675578216155 1.189273460366985
