M[M_sun], R[km], Lambda[1], P_c[MeV/fm^3], rho_c[fm^-3]
0.23841724892012095 16.20908015294055 2780876.1263280716 3.453507347168396 0.169602847481901
0.24841118917892047 15.866464393525174 2282459.3125053444 3.635517782351885 0.17197807455547853
0.2586895983016147 15.563092279380326 1881800.1278146366 3.8247029081165973 0.17437413694313564
0.26925251145200296 15.29375939187365 1558428.7550637631 4.020163566117817 0.17676522723598875
0.28010324102879014 15.054115645760367 1295717.7944309856 4.222236527679275 0.1791435137787772
0.29123039961100367 14.840029011094426 1081425.6205903494 4.432285916676896 0.18154561075139228
0.3026470925401187 14.648770336895886 905789.8766272605 4.650659181887926 0.18397538682803533
0.3143494781723954 14.47723972792826 761246.6505877227 4.877723434573605 0.18643449595706038
0.32633011602764267 14.323478039737356 641793.3468671953 5.110777426795719 0.18886294411255986
0.3385964453240493 14.18522194796106 542713.167035672 5.353043360549744 0.1913134878206049
0.3511439905883357 14.060999731086516 460197.2993071535 5.605003984327133 0.1937939894809942
0.3639760753503574 13.949123953536073 391298.5212115251 5.867071559122847 0.19631007827375113
0.37709504768246177 13.848476870199256 333545.1546062816 6.136123103769155 0.19880154234095265
0.39049476746040745 13.757841619250135 285017.45509959833 6.41561382951158 0.20132342122942767
0.40417894269296756 13.67627968443023 244113.1270665041 6.706339406059936 0.2038799550628783
0.41814653776199073 13.60281749168886 209542.8509196225 7.00837468262997 0.2064622116093677
0.4324018104913301 13.536870787132575 180248.827472777 7.31838524019051 0.2090213913225753
0.44693809266480283 13.477564830623663 155349.24029197244 7.640934870817638 0.21162503895451754
0.46175531901002687 13.424166252573073 134155.402630531 7.976557289898831 0.21427320659197452
0.4768553058184876 13.376451559135152 116066.30940216148 8.323295353352421 0.21692792143170153
0.4922398257685512 13.333755672095085 100595.39282797123 8.68115100952846 0.21958043341499014
0.5079026538914267 13.295659147971087 87333.92464391855 9.05360327316267 0.22228103198869653
0.5238510220415155 13.261773078891627 75947.93302469773 9.44125666424216 0.2250326061487855
0.5400769869370291 13.231744790696007 66149.56679877594 9.838668588891922 0.22775778889374482
0.5565775722267143 13.205218297047765 57707.91054759071 10.252060577646855 0.23053003541628073
0.57335428091726 13.181858485815965 50415.07369918187 10.682372243060579 0.23335292384873713
0.5904131410021717 13.161521382797115 44107.53068445333 11.126578304369328 0.23617915371777767
0.6077428332541958 13.143819185373964 38640.00664273231 11.585583622634367 0.2390236079111304
0.6253337097767646 13.128548601024255 33902.55934804367 12.063427330170985 0.2419274025661699
0.6432031020875617 13.115527825909547 29778.374624630906 12.55972911828092 0.24487843655568087
0.6613215729795094 13.104430081228603 26187.204832795243 13.069578231503531 0.24780941152821145
0.679720182532306 13.095323548805306 23058.524187968174 13.600378477004988 0.25079902337175397
0.6983322128477171 13.088048680700735 20343.690495502276 14.153035169267477 0.2538489672051268
0.717274555249948 13.081989741365133 17944.139955210758 14.721442206753334 0.2568941608742401
0.7364015746554909 13.077669467703616 15866.426623033383 15.306374853133569 0.2599439922377652
0.7558380410819346 13.074163076051049 14025.688850664108 15.917742352201884 0.2630865058125892
0.7752166831168421 13.072077870299484 12441.040989074967 16.56789534662972 0.31168944216338496
0.7898047990755523 13.066241829693189 11348.758091564412 17.310459363212725 0.4532974491942506
0.8000891864879638 13.053364863707207 10583.920547723385 18.13970426097 0.5887281246100637
0.8070178052152617 13.032927579924838 10024.347132944991 19.08795187650149 0.7272631879438802
0.8113738652195738 13.005186291318237 9595.884760646444 20.161445663226527 0.8509067853979557
0.8139161089642841 12.970632359070283 9244.659682309662 21.34017439617805 0.9657686144073482
0.8152196010112288 12.929351766336836 8933.817621839567 22.62973765778875 1.0723089116706312
0.8156251213050525 12.88205956025108 8646.612531759085 24.02672806692093 1.1714307365911836
0.8153816162393028 12.829159420586613 8369.984616872549 25.528661459685434 1.2651980247684358
0.8147068719496172 12.77077326061549 8095.453615345895 27.14012792623402 1.3545674667502665
0.813795794030618 12.707233843500825 7814.734281971977 28.860533952510426 1.438165783029453
0.8127776387671177 12.638739803279755 7525.776938943414 30.675054188170687 1.5181408786118957
0.8118386011845624 12.566096759985717 7224.645597812528 32.602917884314074 1.5978372689670255
0.8109936162339058 12.48914048817466 6912.722553664459 34.648536191475245 1.6771297169609647
0.8103483202256954 12.408258592356223 6590.34832180386 36.801766191489115 1.754555926796954
0.8099651819211751 12.324010661703268 6259.978709957921 39.06124021894094 1.831074579902451
0.8099200837018998 12.236636021763713 5921.015555832448 41.449165852017394 1.9122963674457125
0.8102021734103635 12.146663273777227 5580.905518379573 43.972964539662385 2.003334899716521
0.8108120238309535 12.055184090809052 5243.789051005554 46.628340135814675 2.1223134609947816
0.8116841824275947 11.962087468034808 4913.895863914775 49.42357447146613 2.214768580780352
0.812944317661082 11.866393490888575 4585.4814107334305 52.35908016312302 2.270914669142754
0.814805783955309 11.76676665058412 4252.249979171285 55.42667310405198 2.2931412886368454
0.8174475863003511 11.664402351061966 3917.9686445589246 58.59142331184547 2.3158587886954822
0.8209722199834377 11.560457532171677 3586.6318179755567 61.853418268172696 2.3391591620957572
0.8253778237219984 11.45578000459957 3264.185512404228 65.24609597407854 2.3633199120973276
0.8306852452366255 11.351278890851614 2955.0481923503494 68.77309279879444 2.3883655328610387
0.8368862562344105 11.247571594975955 2662.8350462523103 72.43859056632503 2.414318420496318
0.8439445515879339 11.145277949685427 2389.4804112179895 76.21019266330403 2.4409177387092873
0.8518348555487978 11.044871543679504 2136.331485011909 80.12843533310706 2.4684628387667282
0.8605102438324012 10.9466245915149 1904.3261872396276 84.20387470928468 2.497022257587107
0.8699101587452776 10.85085312792121 1693.3593265084696 88.44231599010452 2.526627012383146
0.8799935573949907 10.757941391845595 1503.0870247022463 92.85011765122267 2.5573113389314917
0.8907120600706065 10.667798143796594 1332.00960395466 97.41859807533973 2.5889917907523663
0.9019960275057678 10.580681562517263 1179.4071765566741 102.1561904887687 2.621715615043696
0.9137973895445752 10.496508700106709 1043.6875283366262 107.0884671334361 2.6556620694298245
0.9260537135605381 10.415325118173092 923.3634175354142 112.22394399498776 2.690877079002422
0.9387150810724427 10.337094738059793 817.0508822119253 117.57181002826573 2.727407929822764
0.9517222742260756 10.261700635362118 723.257336423284 123.14201631663545 2.7653020047310415
0.9650278650913054 10.188974712438794 640.6015981682231 128.94542039419088 2.8046120696936683
0.9785697525828162 10.118932714755145 567.8753915781614 134.9934176124624 2.8454115516943337
0.9923080816479547 10.051340400566438 503.86754233367895 141.2907963311192 2.8877075153967637
1.0061896245980126 9.985977403305503 447.59198608217235 147.85300436380317 2.931587874305454
1.0201582322206553 9.922966631908531 398.2098487001179 154.70223325447688 2.9771607581316477
1.0341883429933443 9.861861830990389 354.6804911005685 161.85407407820068 3.0245305085051415
1.048209026232988 9.802639430406062 316.42488221700137 169.32503583103735 3.073791351745681
1.0622079358624634 9.745123782318847 282.7114387541808 177.13274352628773 3.1250153304648745
1.0761245638880583 9.689114406588098 252.9963854858495 185.29638871323704 3.1783020134698217
1.0899318277310652 9.63453898156106 226.77586277256938 193.8366290949956 3.2337763496018024
1.1035856508442263 9.581241591764739 203.61309316289726 202.77543502238933 3.2915223935825124
1.1170392175730375 9.529086077129575 183.15735421260163 212.13687756566 3.35167891838255
1.130269868032017 9.477842600084388 165.03917303924158 221.94657240375977 3.4143786976263315
1.1432511447390137 9.427535759333908 148.97100075892797 232.23217183653134 3.4797392039688066
1.1559520966708805 9.37785664404051 134.69100688303402 243.01807353447123 3.547900737490142
1.168321998656847 9.328819450525234 122.00347861049877 254.32908107529954 3.618908281089636
1.1803546952393282 9.280282297912908 110.71481579770409 266.2099181415175 3.6930693827808456
1.1920002059252373 9.232110777305788 100.64333719332406 278.6984467923979 3.770527207015305
1.2032549580641416 9.18429335782727 91.64929646036735 291.834902773997 3.851501186967884
1.2140794200207077 9.136597380459593 83.61030810652107 305.6634792257789 3.9362026920778446
1.2244571809305524 9.08906166485935 76.39602497159856 320.2314660815942 4.024846441316112
1.2343699303617561 9.04159492838565 69.95464958611441 335.5536408870591 4.117382003893004
1.243780051183127 8.994015607174479 64.16233780262702 351.71845800170894 4.2143398308271705
1.2526809476216103 8.946386579398139 58.95480200383289 368.7868177034067 4.3160242832523
1.2610395870670832 8.898539674530909 54.266953699119945 386.81216256421544 4.422611321854622
1.2688519734972663 8.85052070466989 50.04475340530217 405.8390235624335 4.534221868638651
1.2760951867177972 8.802220877517385 46.24018327404942 425.9791332430428 4.651501716405574
1.282768814327393 8.753516660269726 42.719921583266434 447.29383097835677 4.7746333566683905
1.2888406577659912 8.704477711580637 39.67026231506275 469.85892592713674 4.903902224460078
1.2943068659943822 8.65504958668604 36.84029787231394 493.80600075906665 5.040025863103704
1.2991440694116214 8.60516078556195 34.27960584834459 519.1793686797855 5.182918798338974
1.3033475702029147 8.554782559872525 31.955612446838103 546.1583017267532 5.3336579860098405
1.3069114098428185 8.50392779762095 29.846332657670505 574.7987130641275 5.492097809864073
1.3098237975008928 8.452582206961367 27.92675599174934 605.2953318627842 5.659408967338414
1.3120885627236567 8.400687924437763 26.17969857476788 637.7478205327176 5.8356838229108465
1.313673346122083 8.348260513918587 24.55302200420763 672.3438846310046 6.021816111450608
1.3146100434450005 8.295288699971778 23.135546362665412 709.2662607516481 6.218600480428013
1.3148668081195176 8.24178996658463 21.78707652842398 748.6687210503031 6.42634995265564
