M[M_sun], R[km], Lambda[1], P_c[MeV/fm^3], rho_c[fm^-3]
0.23841724892012095 16.20908015294055 2780876.1263280716 3.453507347168396 0.169602847481901
0.24839887409088532 15.866842290721616 2283090.4611813547 3.635272061373958 0.17197494889170697
0.2586632663394207 15.563740896833975 1882816.0225260318 3.8241974926371665 0.17436795414369619
0.269209314221208 15.294814202737939 1559516.1056917324 4.019349355388892 0.1767552669125652
0.28004415288053447 15.055350646691762 1296994.3035604444 4.221121621751249 0.1791304766836862
0.29115500930453564 14.841464744194242 1082760.1019817647 4.430854981138131 0.18152950983634436
0.30255584209535935 14.650176576157548 907081.0001250249 4.648896073762872 0.1839562914438492
0.3142385379328329 14.47883022693901 762491.1544248181 4.875531396818049 0.18641087066243908
0.3261989898189238 14.325044609762909 642945.9422759312 5.108193245801061 0.18883601666321595
0.338446420440897 14.186895992817687 543767.3063492789 5.350061490070828 0.19128373438295324
0.3509753080672944 14.062553243294452 461202.20509050303 5.601605782896724 0.19376132921654843
0.3637856533827681 13.950765857861835 392239.11719449784 5.863237023125047 0.19627456980393182
0.3768806055122198 13.849978358347755 334395.81245566084 6.131652933452904 0.19876014778686507
0.39026154791535206 13.75933351117166 285779.4186502044 6.4106497960610795 0.20127917718242735
0.40391945055169637 13.677647064895478 244813.2156033443 6.70085931623739 0.2038331029269943
0.4178611294016025 13.604242861033894 210184.0119101425 7.002105193526856 0.20640861048878498
0.4320893933635139 13.538076904358979 180816.22970517346 7.311534864319722 0.20896492150770088
0.4466008638269787 13.47869978203704 155864.86767926015 7.633476840105727 0.2115657438046227
0.4613930464676925 13.425350894582879 134631.82985770007 7.968463791412977 0.21421124070821287
0.4764642699118085 13.377549793763245 116496.32777249785 8.314186867699824 0.2168581845479324
0.49182444339250353 13.334900827832257 100983.46848701726 8.671330283771482 0.2195081804349866
0.5074588189842594 13.29662326390711 87677.06541877861 9.043038505546223 0.222206004700804
0.5233764063405311 13.262707844155676 76259.51096884503 9.429691460039246 0.22495187887280987
0.5395729565847864 13.232624895829892 66434.16174586293 9.8260413346832 0.22767119970718191
0.5560421941127063 13.206088104060212 57962.677795363204 10.238561301742756 0.23044082940030441
0.5727905771831662 13.182634820251097 50641.88463034865 10.667962182434502 0.23326124085000424
0.5898174228096921 13.16224245821835 44311.800444880806 11.110629027595685 0.23607767756440312
0.6071089974503738 13.144373239462091 38823.592966519755 11.568616244806945 0.23891926679630507
0.624666635050152 13.12904827053165 34061.71699868642 12.045393522980271 0.2418201726926231
0.6425001564442214 13.115921257880391 29924.286922706153 12.539859738569783 0.2447602922808005
0.6606001254364984 13.104934128477858 26321.973662159155 13.048517074294596 0.24768861103311252
0.6789593376775972 13.095855351843966 23182.761251284992 13.578071335168694 0.25067556904484345
0.6975577331751576 13.088084762660092 20439.666390597205 14.129422999403792 0.2537224669589283
0.716432277848381 13.08223455912873 18043.643219388985 14.695563209227023 0.2567555162864132
0.7355486283078991 13.077616647485428 15944.983440923228 15.284048244788737 0.2598468268970401
0.7549149587698258 13.074357529896245 14107.19723087253 15.896710149915064 0.26300449432052303
0.7745215788421167 13.072162800240333 12494.797588567682 16.52942433399076 0.26617536258395186
0.7943677831414643 13.071036010881333 11077.310131220265 17.18369394686224 0.26937141356842825
0.8144393817822188 13.070816282310394 9831.325714216773 17.86491704244505 0.2726388535204283
0.8347321090388212 13.071262504458378 8733.489804176581 18.572354126752888 0.2759642802479137
0.8552498510144403 13.072463852187163 7766.025722518977 19.30028299888453 0.27929167150285406
0.875974865133336 13.074306709675596 6912.934312210292 20.0581331673039 0.28269044837330953
0.8969113248755958 13.07671515767913 6159.483576156511 20.847150521639414 0.2861612947209733
0.9180505774025107 13.079528644345984 5492.289978012173 21.660254939838687 0.28964044313099113
0.9393740143470043 13.082693982857451 4902.556889605808 22.504028050602827 0.2931800288040793
0.9608757717964274 13.086076956543064 4380.050555005728 23.38246531833504 0.29680275737155704
0.9825569264498806 13.089680264028507 3916.444001646612 24.29404536037406 0.3004881096434206
1.0044007979005454 13.093433101164608 3504.935881283646 25.234223854074163 0.3041837906773915
1.0264043554964684 13.09726334975839 3139.220230597536 26.21307421210003 0.3079650200369158
1.048567929235269 13.101251547119597 2814.490975198506 27.232079220166327 0.31183399580542515
1.0708483158035684 13.105001217083881 2512.3397480025337 28.285190373324856 0.31574212248392475
1.093247522522624 13.108693009183261 2267.658027477022 29.377099114846548 0.31971474718192133
1.1157731994374502 13.112220473450071 2037.9164772194983 30.51379824204442 0.32377724097227234
1.1384196661798711 13.115674210465798 1832.8956253525753 31.6971262578772 0.32792825130445125
1.1611218318751195 13.118619700115028 1649.988723065265 32.918637139926574 0.33211216971501806
1.1839082397301144 13.121284107018475 1486.3654722417273 34.18836655302033 0.33638688428956803
1.2067794232782918 13.123689845102884 1340.0867310795209 35.51028709000919 0.34076673422400156
1.2296968737281244 13.125635240738236 1209.1687093143055 36.88640891840199 0.34525204580269253
1.2526496192896601 13.127066958357888 1091.8110004858686 38.30966282470952 0.349777442248259
1.275642941550919 13.128140973577912 986.6483041420757 39.78882549363935 0.354400235017644
1.2986251950641916 13.128522995477816 892.310407253476 41.32905206647588 0.35913942239094115
1.3216178918477088 13.128406727687493 807.6389213729718 42.93277694110438 0.3639972716372592
1.3445851555471091 13.127587277789454 731.5285571877266 44.59931016005415 0.36895843687021973
1.3674999551510385 13.126082846705232 663.1183628680132 46.32659565306277 0.37398733263487527
1.3903869091322496 13.123944847727476 601.565900122719 48.125808567964164 0.3791462053139029
1.4131970839277825 13.120992020146117 546.1201780362591 49.999938026806966 0.38443948760007607
1.4359387616635344 13.117343792423787 496.1722194262033 51.952143873681024 0.38987018324147726
1.4585484285822674 13.112722985582343 451.1168578699047 53.98547856493691 0.39543926426262027
1.4810718805501226 13.107456800813553 410.505442258018 56.09430745737843 0.40109442912170246
1.5034443858778432 13.101138458600355 373.80529281194765 58.292302366089025 0.4069040889853931
1.5256658302889483 13.093946038041578 340.65784118182097 60.58343948998846 0.41287318765681724
1.5477078917484843 13.08583058795479 310.6784292515174 62.97192517185742 0.4190051874359387
1.5695628297246655 13.076660712367719 283.5537267258915 65.46223296803925 0.4253014357518479
1.5911967133440659 13.06649831993334 259.00444181780676 68.0591683993741 0.4317649490401518
1.6126071634008667 13.055361529708271 236.77303803874017 70.76771757878069 0.4384119626858105
1.633784448193621 13.043145459210471 216.61114973379148 73.58913709522406 0.4452323295405211
1.6546920619974306 13.029886515846082 198.33333390593208 76.53200459202834 0.4522412431437516
1.6753095562022247 13.015456419298395 181.72475701224732 79.6043800904763 0.4594503416650683
1.695599834538026 12.999699962815546 166.63062661556478 82.81284845433558 0.4668773388224127
1.715587333256798 12.982982585919757 152.93509962397505 86.1643794092981 0.474533954282816
1.7351903377589137 12.96482093889721 140.46428060427485 89.66640536451301 0.4824257461530086
1.7544525783974787 12.94560145531133 129.13115467852046 93.32688521706602 0.4905597180467031
1.7733332546242164 12.925094471243456 118.79417323450753 97.15436044213354 0.49895316461819794
1.791806271878702 12.903320050326275 109.37171329176911 101.15794204977693 0.5076231043092986
1.8098375104109805 12.880183187270163 100.78633996905673 105.34738746151078 0.5165777531298694
1.8274413347896596 12.855936798730957 92.96332735635038 109.73317387006504 0.5258284586908277
1.8445601319301264 12.830169882883569 85.81170931658696 114.32655024873151 0.5353975164733724
1.861215452225445 12.803126294793707 79.28042098338105 119.13958674332135 0.5453054849151177
1.8773237009121424 12.774604754152616 73.3115550390876 124.18522355801429 0.5555617118560435
1.8929337735333533 12.744823617255191 67.85697005878045 129.4773942059059 0.5661864589822264
1.9079976503057134 12.713572414627873 62.85569242101257 135.02294511465666 0.5771810455647016
1.9224613354146227 12.68076517847386 58.28323591661681 140.844453787867 0.5885890676961661
1.9363680305379147 12.646642238636721 54.09048287439669 146.95958412467078 0.6004269177131203
1.949669387209661 12.61097911170679 50.24420972774354 153.38698827993915 0.6127297279620247
1.9623611369899239 12.574024339334773 46.71864404265582 160.14682981227185 0.6255297992240159
1.974381772138999 12.53544735047551 43.4844821837915 167.25694554490124 0.6388310771559689
1.985757306080989 12.495417520261555 40.51289896910486 174.73169208514432 0.6526441923813187
1.9964790328838788 12.45398375279646 37.780514857642565 182.60772306450252 0.6670485721317526
2.006495447394721 12.411019734810143 35.27160008293378 190.91242685465073 0.6820697687318344
2.0157889056785083 12.36638985544536 32.960979812697964 199.66120081685494 0.697707013629886
2.0243781205098488 12.32048450167773 30.837429367831884 208.89131581573474 0.7140298800455263
2.0322285729639122 12.273051826684732 28.882577892719873 218.64464261943715 0.7310945844371208
2.0393192332432646 12.223983457971842 27.078708795126186 228.93565201563885 0.7488855565566176
2.045629988338779 12.173376369667931 25.41663326207536 239.80328894588305 0.7674543735598525
2.0510938500468154 12.121711845596419 23.89837168268722 251.41034403581332 0.8816973275714126
2.0543506532054585 12.071059524376631 22.65394218683889 264.21734533355954 1.163893974082328
2.0548225735975945 12.019560350794073 21.656962511712923 278.4745543913154 1.4311841446335525
