M[M_sun], R[km], Lambda[1], P_c[MeV/fm^3], rho_c[fm^-3]
0.23841724892012095 16.20908015294055 2780876.1263280716 3.453507347168396 0.169602847481901
0.2484295999775933 15.865736126842 2281504.7844510195 3.6358237299308978 0.17198196632439378
0.25872454508718273 15.562157579854416 1880652.909117891 3.8253322677723895 0.17438183596440707
0.2693068851263984 15.292426050037783 1556830.7368191385 4.021177560625493 0.17677763153488504
0.2801775677787923 15.05257778023124 1294102.4199294867 4.22362514030416 0.17915975144904173
0.291323406407735 14.838432338474405 1079851.5520321943 4.434068318945878 0.18156566637705576
0.30276598249473624 14.646983909960744 904233.8843547913 4.652855555146326 0.1839991747004802
0.31448455153960936 14.475415532852045 759748.5823951921 4.880354782417728 0.186461914890148
0.3264915643992041 14.321518447174405 640362.653364025 5.11399730949744 0.18889649564340197
0.3387829308512049 14.183293115666068 541327.0843786403 5.35675909852634 0.19135056387035226
0.3513556272090193 14.058999090206708 458941.33906132664 5.6092388881366535 0.1938346913290611
0.364212830238096 13.947151930895686 390129.43846030446 5.871850640532999 0.19635433339826
0.3773606484677712 13.846519286088483 332491.27420139627 6.141695042698385 0.19885313946389452
0.39079043204839276 13.756018883852436 284054.034445751 6.421801870191542 0.2013785747583904
0.40450203119567435 13.674402357197897 243228.806550517 6.7131713049127635 0.20393836451669445
0.41849995733366413 13.601056066239305 208746.69424955227 7.016191640928676 0.20652904284831997
0.4327831230685128 13.535082415410354 179520.82825749688 7.3269271385181085 0.20909180489203977
0.4473490753632504 13.475809051181391 154696.7233547458 7.650235188914283 0.21169898122921604
0.4622051139276498 13.422606829865659 133557.38697995906 7.986650815182908 0.2143504851898011
0.47734034347918614 13.375089598618096 115540.93274203628 8.334656071090253 0.2170149019773854
0.49276103383487174 13.332373009145664 100119.45360087113 8.69340098773739 0.21967055887541703
0.5084609192763092 13.294457262699163 86907.928532984 9.066782295496443 0.2223746248000745
0.5244377144860985 13.2606456123418 75567.79228230599 9.455408181258539 0.2251296477008779
0.5407013807862787 13.2306165552202 65804.1934461258 9.854423548220387 0.22786582577096562
0.5572438666206787 13.204245806094576 57397.65969391743 10.268904732027615 0.23064134508321935
0.5740601352730001 13.1809749420165 50132.65067550376 10.700354094040009 0.23346733211275084
0.5911584089195799 13.160688805394262 43851.72380632779 11.146483431506246 0.2363057986912741
0.6085224184618239 13.143027186531091 38412.22726894014 11.60676079583793 0.23915383721841543
0.6261632023792117 13.127872640062623 33691.163050975985 12.085937026605464 0.24206124628961223
0.6440683621306038 13.11489033130492 29590.61243834088 12.584533201343978 0.24502592281092184
0.6622460379833719 13.103960105453876 26019.520086569955 13.095871804808313 0.2479602235962107
0.6806803788936151 13.09497762936904 22910.567667673393 13.62822939128376 0.25095315857658484
0.6993653780856551 13.087467091846028 20194.513164658485 14.182517329423204 0.25400691543858833
0.718326802880214 13.081688680902449 17821.182402601244 14.753759035134848 0.2570672956081598
0.7375231825036539 13.07724771877018 15746.094046410853 15.34553026837256 0.26016582682115913
0.7569726386216622 13.074045458655467 13925.98081137959 15.961636172479567 0.26332987325085505
0.7766616558710723 13.071985163959038 12331.25641337629 16.60038587317799 0.266530988707399
0.7965882691041257 13.070943464512554 10930.441347848042 17.258501772619443 0.2697340141604533
0.8167509854657012 13.070817409930042 9698.436637564106 17.943761408835883 0.2730094746952629
0.837132740335694 13.071355143540996 8613.217549963756 18.657203352918746 0.27635862547362633
0.8577354037829586 13.072686671053834 7657.586192794458 19.39077385785306 0.27970439464880353
0.8785484779790667 13.074565667056243 6814.901392433215 20.153371671353216 0.2831106982911233
0.899572298415645 13.077001282112619 6070.3069935189515 20.947372247206918 0.2865901280286678
0.9208043856342076 13.079923214873968 5411.901510042614 21.769203154928473 0.29010661574156843
0.9422130583982107 13.0831039885867 4829.659395416082 22.618563104367972 0.2936562697171952
0.9638059746087888 13.086573600452017 4314.022385735273 23.502883940921492 0.2972895879556613
0.9855859702738565 13.09025981328277 3856.3458052003925 24.4234826100451 0.30100657232644995
1.007518548630795 13.094052968316857 3450.5353242675355 25.37152096371075 0.3047218450806691
1.0296031776049857 13.097891438657763 3089.9142444271065 26.357311978702374 0.30851462975216737
1.0518451883708337 13.101740694221387 2769.516818056114 27.383633733750145 0.3123964190938003
1.0742126718067548 13.105628744002733 2484.5025930874167 28.44934256937892 0.3163512961450422
1.0967135128191956 13.109313645908012 2230.5731808384276 29.549486845243546 0.3203381439707795
1.119310001169452 13.112764698797507 2004.2797997282419 30.694865505550712 0.32441332542800927
1.142028878349373 13.116028885622526 1802.2050863100233 31.88734388226535 0.3285797846083189
1.1648300583706281 13.119128894287018 1622.0610110760108 33.1243295045969 0.3328167070909056
1.1877060962128851 13.121737243455742 1461.002987438193 34.404377973906 0.3371091197796526
1.2106389002265499 13.124034103455635 1316.9910595333986 35.7372080881964 0.34150777103369684
1.2336375126005041 13.125892465800357 1188.0351941972683 37.124850061683915 0.3460101963319149
1.256663250516835 13.127336476956145 1072.6463399085521 38.56717992788516 0.3505962469451715
1.2797139062610219 13.12817321237286 969.1007782252013 40.059347431266005 0.35524118360309304
1.3027757080438989 13.128528004684188 876.3380082860506 41.613341737984626 0.3600040797155118
1.3258315456358374 13.128310373034022 793.0618221174466 43.23164716052953 0.36488698960082533
1.348860282848122 13.12732369543067 718.1858471030262 44.916870286257634 0.3698904293923689
1.3718668133186338 13.125761944401836 650.9043006105004 46.665590016242504 0.374972508285683
1.3947868835657542 13.123362705914914 590.3914924770978 48.48227900077315 0.38016151104546686
1.417648220930039 13.120298488483359 535.9244871716286 50.37494370262529 0.38548684352578605
1.4404329133927842 13.11641893596088 486.84246532672194 52.3468117154146 0.39095113523452885
1.4631125252393906 13.11174265749764 442.58605149691215 54.40129690809632 0.39655495257243073
1.485660630459004 13.106173245744817 402.66941961310295 56.54209486501935 0.40229503554801216
1.5080681357563976 13.099680247514343 366.6306457617733 58.76381669074093 0.4081457901651006
1.530324576060101 13.092316890109322 334.07614742415194 61.08013915247197 0.41415848987482834
1.5523864352153045 13.083902455542713 304.65480103171274 63.49538841012249 0.4203359744667684
1.5742650378208969 13.074554192786424 278.03916964722436 66.01412887646524 0.4266785174944486
1.5959352304633503 13.064244299752168 253.94107221361418 68.64129014310252 0.43319430127976094
1.6173387200805556 13.052685479935889 232.11179828761146 71.38200469592057 0.4398969114743898
1.638542083925588 13.04032939926487 212.32741543358293 74.24178054502285 0.44679293947721094
1.6594183463332612 13.026550056376335 194.381134726504 77.2265100727872 0.45388571768079583
1.6800250290077803 13.011769489385111 178.08936648071932 80.34198313053247 0.46117645938262036
1.700332921037102 12.995967748511694 163.30793184013672 83.59218533099121 0.4686751871748049
1.7202714362840177 12.978695525558344 149.86371409671432 86.98821902573027 0.4764081698653119
1.7398797731244262 12.960326367842557 137.63538625314823 90.53770933406462 0.4843794039380577
1.759120891237518 12.94090930653293 126.51792613646629 94.24881996947624 0.49259723049385906
1.7779573846277854 12.919992061847813 116.3854387125106 98.13034272893113 0.5010827036287491
1.7963512473936156 12.897769422077719 107.16152630045998 102.19166382493212 0.5098507045209142
1.8143351362021893 12.874215837558037 98.74405897819214 106.44280823041142 0.5189074319595063
1.8318668383143946 12.849478029112387 91.07128933179978 110.89454500573721 0.5282670675446806
1.8489125541022875 12.823193979081768 84.06026991297826 115.55831187415384 0.5379541736541082
1.8654691100741587 12.795733922799545 77.66435346054165 120.44149173759575 0.5479686963483321
1.8815126182970845 12.766777300792697 71.8171055985598 125.56140753566496 0.5583335674951077
1.8970127684565652 12.736542613595576 66.47114802219139 130.9323344661909 0.5690745437144217
1.9119589076956733 12.704662872955195 61.57238063066704 136.56966280212373 0.5802198980580019
1.9263335145411211 12.671574950596494 57.09784012078315 142.48997205008763 0.5917865658299493
1.9401082563067003 12.636882355119946 52.99004301756169 148.7111419322 0.603796177800603
1.953308750279049 12.6009533793157 49.22746605061281 155.2524444473458 0.6162844643237194
1.965816976007657 12.5631555729356 45.77230383785677 162.12303345793907 0.6292419863724127
1.977708376210379 12.524168064026695 42.60736454649122 169.35244659326818 0.6427118655827344
1.9889399352089627 12.48358048577414 39.69618154564694 176.96776440582954 0.6567497613635183
1.999479113162993 12.441562090493937 37.02530993518216 184.99519068749876 0.671395223363995
2.0093057823383833 12.397977418978662 34.56972269228655 193.44454440120282 0.6866090632737554
2.018428945295577 12.35291335484522 32.309238369493855 202.36085852421135 0.7024970614063418
2.0268179966518742 12.306240339839695 30.22751475156753 211.77948627813106 0.7191144813134592
2.033837148163223 12.260293207623217 28.424954298609457 222.79786043638714 1.8797832881972618
