M[M_sun], R[km], Lambda[1], P_c[MeV/fm^3], rho_c[fm^-3]
0.23841724892012095 16.20908015294055 2780876.1263280716 3.453507347168396 0.169602847481901
0.24841565766955817 15.866158113309774 2282208.496492954 3.635561976064088 0.17197863671621194
0.2586961282452281 15.562912385737189 1881512.7009662255 3.8247938137375668 0.17437524900092818
0.2692608463741174 15.293556317401132 1558141.2590508151 4.020310021206251 0.1767670188361188
0.28011437606993167 15.053879888054123 1295509.759720533 4.222437080624868 0.1791458589343251
0.2912443286641242 14.839840801241243 1060504.9840473793 4.4325433313896765 0.18154850718684326
0.30266623792397934 14.648442732975171 905543.5049320523 4.650976367933481 0.1839788221189924
0.3143674137005652 14.477024224101832 761032.0871758409 4.878103420069315 0.18643845544759463
0.3263512451092937 14.323282433966995 641591.375175082 5.111242375779016 0.1888677889319518
0.3386230048127443 14.185024819443537 542517.0982042053 5.353579887740958 0.1913188413490177
0.35117378530460835 14.060681044615231 460019.1655915634 5.60561545004241 0.19379986630506404
0.36400934872011703 13.948879668923784 391145.50859858113 5.867761569058869 0.19631646788568913
0.37713403653319644 13.84818695513372 333397.7748647234 6.1369275429504055 0.19880899158759038
0.3905379546370164 13.757545046259802 284860.24208824243 6.416507182003707 0.20133138361123748
0.4042241122455256 13.67597730353071 243993.2076089425 6.707325672760241 0.20388838716945992
0.41819846940315 13.602587841490227 209427.35109125203 7.009503090497911 0.20647185895466189
0.43245459071793707 13.536486579517414 180133.05497628593 7.319618249628747 0.20903155540933915
0.4469951503605067 13.477215410863497 155256.07276302515 7.642277307581858 0.21163571201182094
0.4618196031762461 13.423965312376964 132572.04693360507 7.978014168175187 0.21428436082275437
0.4769253748753009 13.376229439669562 115992.1767124017 8.324935040524213 0.2169404752938997
0.49231460345922173 13.333616882569498 100530.28879151103 8.682918981135046 0.21959344072425616
0.5079840311479212 13.295479051227067 87271.32268788833 9.05550526304592 0.22229453925622195
0.5239343793756897 13.261654822481832 75893.73430749231 9.443298934874093 0.22504661066234302
0.5401681003162088 13.231618804062913 66102.46768682344 9.840942125141455 0.22777337927081448
0.5566740151008979 13.2050793174847 57662.76703348696 10.254491210627856 0.23054609754332192
0.5734609754695692 13.181818650135426 50376.242275010954 10.684966962439866 0.23336943256856393
0.590523531648385 13.161429250852636 44069.96424880384 11.129450372011481 0.23619742704644914
0.6078489489676752 13.143665568179035 38607.023184229314 11.588639133166577 0.23904239781364414
0.6254542932669378 13.128412320596828 33866.86337834404 12.066674998597081 0.24194671335678497
0.6433231612957996 13.11537675695709 29748.93856036067 12.563307596025362 0.244899714354205
0.6614601819717447 13.104449184069335 26163.70348033285 13.073371479291579 0.24783116846237624
0.6798603147793592 13.095259372576816 23037.62808690525 13.60439627124179 0.25082125903452107
0.6985068134350545 13.087737737549551 20310.061909483255 14.157288158641217 0.2538717522437727
0.7174247892399714 13.081955510155678 17927.53116052222 14.726103820013975 0.2569191350815475
0.7365918907125372 13.077418045823798 15839.826826001192 15.31631244532811 0.2600142299349344
0.7559979273135479 13.074172191050659 14011.668080899153 15.930780650972684 0.2631752397743815
0.7756421755097583 13.072026405188241 12407.782643974444 16.56665961112934 0.26636196841883003
0.7955311333237648 13.070965063262404 10925.810947849051 17.22294629941197 0.26956167342598786
0.8156540395796832 13.07078714586107 9760.742113824326 17.906286179809065 0.2728333160926271
0.8359978194781291 13.071351059374221 8669.953381485333 18.61745815356369 0.27617629929469667
0.8565520286094864 13.072599831044673 7709.28322129182 19.347758420229173 0.27950820392917847
0.877339006554069 13.074481266952233 6860.658157348164 20.10809793383232 0.28291092316170263
0.8983102854767804 13.076843519977528 6112.260936652792 20.899728075338068 0.2863862659648369
0.9194967205771222 13.0797493189198 5450.169781266289 21.71740662880836 0.28988498639426474
0.9408568980990252 13.08283092972603 4864.208737598529 22.56410868944666 0.2934298462823357
0.9624147649580773 13.086292422788372 4344.8971436767315 23.445630371214648 0.2970581221891232
0.9841580050630659 13.090115308548425 3884.8395330730377 24.362598165561636 0.30076525616340755
1.0060444312539785 13.093803619332121 3476.2286885163658 25.30623526405523 0.30446599659075047
1.0280908478356692 13.097639070800692 3113.338541325387 26.288723680157325 0.3082532779847287
1.0502875198546406 13.101546775209961 2790.782882264971 27.311563750639692 0.3121289652520399
1.072612540788878 13.1053408104982 2503.7154354626005 28.371275728422543 0.3160615877862115
1.095068073495891 13.108984624361835 2248.043603194668 29.46750060497086 0.3200416613916606
1.1176310022813363 13.112518934482754 2020.196131423644 30.608748403950088 0.3241107983524876
1.1403143070392396 13.115856461063531 1816.8054233155576 31.796871669136504 0.3282698992329881
1.1630726288068083 13.118852514276185 1635.1346706939582 33.02648914909872 0.33248158435832836
1.1859084359442438 13.121567060713627 1473.0011627176784 34.30162560327671 0.3367655666079984
1.2088096091080116 13.123879839202456 1327.894216879731 35.629262384612915 0.34115526183250855
1.2317761959170563 13.12579066233728 1197.9413246551549 37.0114201420946 0.34564953309912455
1.254770625178009 13.127267553539065 1081.6651478824192 38.44466498777581 0.35020669686416167
1.2777872633634144 13.128202443173535 977.3982338157807 39.930640612721184 0.3548410836409883
1.3007984197729874 13.128497230122642 883.9069801580414 41.47807950459979 0.359592684253224
1.3238167778683114 13.1282777370224 799.9377223317244 43.08944216603544 0.36446365422015886
1.3468419220598564 13.127542176912328 724.506548158866 44.7673191254832 0.36945580811795287
1.3697937352926441 13.125910756908624 656.6758220661012 46.504273174715486 0.3745036939288692
1.3926916628632597 13.123594859359947 595.6658030600332 48.30945111741059 0.379656232358793
1.414860515400197 13.120497375532748 542.1896149532379 50.27556850274917 0.5168828057831087
1.4264559862442476 13.109613891738944 512.9018847720043 52.63814894783502 0.9439059210971514
1.4286291110195617 13.086902033966545 500.0434527774719 55.59655830178629 1.3365443429233188
1.4246869306368175 13.053400707783068 496.0345866491125 59.230739701288066 1.6868978321295283
1.416632767976369 13.0107022978089 497.1676401671079 63.427014491640996 2.0206127165029257
1.4056182493751535 12.960183331266048 501.70452004234915 68.20270314618863 2.371452828678657
1.392344938174898 12.9031481268019 508.751463071849 73.64177500502312 2.8267598123399926
1.3771904635977124 12.841966308522894 518.7105470147866 79.77416953336503 3.236122171536697
1.3593564984833455 12.768713749261616 530.4956270417173 86.46120788162249 3.321309363907793
1.3399676700887875 12.682775529346683 541.6970367612073 93.4268481789834 3.3460577404001666
1.320157673693253 12.58582937153607 550.2071124316996 100.62445555923715 3.3692154959809804
1.3005665605701926 12.479507413183338 555.1181740111648 108.03506145088424 3.3923630495928148
1.281715713495891 12.365218897484887 555.572754383649 115.71042882604175 3.4162030108296313
1.2639102586940665 12.24402714127449 551.1702632360785 123.65931816505454 3.4407893909465295
1.247380995415771 12.117068743715778 541.7327163612701 131.89227659180452 3.466160232552921
1.2323035132845297 11.9852669143025 527.4195190107473 140.42064060531666 3.492346584907811
1.2187988634496698 11.849673504083073 508.52373590055936 149.25666675519417 3.519370414967056
1.2069527408503837 11.711214978969583 485.57664748224175 158.4138843040785 3.547263551676762
1.1967923184636935 11.570837200822867 459.45471416317065 167.90692938993504 3.5760687255379677
1.1883377626767437 11.429476313829234 430.8354721206763 177.75130765699657 3.605813487703073
1.18158744706606 11.287940723669996 400.51352786098596 187.9640586868035 3.6365437245636705
1.1764834595567466 11.147053779286113 369.4665865762203 198.56311009815525 3.6683049081581434
1.1729766044852183 11.007472767693107 338.3676056430463 209.56776937371382 3.70113544361376
1.1710043015799645 10.86985731645876 307.84458550716266 220.9990391139768 3.7350993253530116
1.1704794582036377 10.734807665754506 278.51102773858736 232.84475726406743 3.7701155365728116
1.1713046474673912 10.602720492013333 250.6348449436035 245.15381798671706 3.8063462946738724
1.1733797256158003 10.473933994418804 224.63546916480175 257.9559157725786 3.843848343254736
1.1766070336322008 10.348855376491564 200.62637865852437 271.27785841633573 3.882696809493404
1.1808914226896892 10.227532110418384 178.672167483479 285.14902096771937 3.922958168609001
1.1861105281329523 10.110198785606741 158.77135503568925 299.60033402338723 3.964703434420042
1.1921770365599083 9.996877860924464 140.85161827261638 314.6086472701966 4.007828617264495
1.1989738281971996 9.88767752915772 124.8641873332765 330.2484705811716 4.052543461278135
1.2064053212592014 9.782481549414952 110.63273814074009 346.57051002868036 4.098983938956132
1.2143822496064336 9.681231718098187 98.02652889660203 363.60394438468273 4.147200365827104
1.222816326285799 9.583780662272813 86.87647683736074 381.3267560657852 4.197082417359642
1.2316257873934287 9.48998429202049 77.04994045709486 399.85756376486876 4.248976219567979
1.2407227214370382 9.39980799865358 68.4091144983798 419.21589125512196 4.302895540734495
1.2500447326277244 9.312902063505524 60.80503119149924 439.41351876258653 4.358828897565356
1.2595031965235701 9.22920948747182 54.0083813229222 460.5751528735155 4.417127642045275
1.2690356629151882 9.148529604117357 48.2592793870848 482.65443552464876 4.477578091997962
1.2786003789533238 9.070721457396644 43.10639162015938 505.8156724438232 4.540657921222091
1.2881119588048933 8.99549080032428 38.575557688833484 530.0215656860489 4.606159810899312
1.2975222499190087 8.922715388136176 34.523677778316944 555.4314682624286 4.6745497186256
1.3067992096628798 8.852282397383659 31.084358767290375 582.0361516003824 4.745693895122932
1.3158834362267533 8.783922536274549 27.995820319880274 609.9676759599458 4.819938553779029
1.3247255240827434 8.717433370573836 25.259241671807597 639.3123489974204 4.897475853234067
1.3332913567649862 8.65277583271404 22.845996057137807 670.0993186503373 4.97827823563889
1.3415461388874819 8.589809638060537 20.709880363670372 702.4833711619424 5.062745291089694
1.349454855377046 8.528223096405979 18.78589506402283 736.5632378750146 5.151066374463091
1.3569796960815887 8.46808825430473 17.135072939525248 772.4475805362977 5.243455435844775
1.3640980857752496 8.40910728116544 15.635424344575396 810.249667356498 5.340128363845443
1.3707794094796275 8.351236128720455 14.280194741341045 850.1006619831114 5.441343053045834
1.3769916858330609 8.294361096355912 13.114214146442608 892.1599604905863 5.547439724322875
1.3827127078220087 8.238357326060779 12.034911828746967 936.5853976842984 5.65873111184245
1.3879364375442362 8.18321012739651 11.099645506727782 983.5499507921388 5.775558190157139
1.3926339144656015 8.128639003259186 10.247266107273902 1033.2383465438343 5.8982732144071806
1.3967775412324286 8.074717521267447 9.481206567883765 1085.8449093713223 6.027239453769164
1.4003529213271755 8.021329018537456 8.794899004891189 1141.610448900827 6.162954140308152
1.4033535666166936 7.968384844645189 8.175635138979795 1200.7861100487562 6.30590536977523
1.4057734998111413 7.9159003418066 7.6189202816020405 1263.6476020880364 6.456631450966156
