M[M_sun], R[km], Lambda[1], P_c[MeV/fm^3], rho_c[fm^-3]
0.23841724892012095 16.20908015294055 2780876.1263280716 3.453507347168396 0.169602847481901
0.24836637727190908 15.867914707498937 2284438.57185274 3.6347045879522337 0.17196773041516267
0.25859904794805694 15.565462189269251 1884945.7210972807 3.8230304555796315 0.17435367765957807
0.26910796276585053 15.29721450579494 1562238.2049501464 4.017469599060378 0.17673227166044644
0.2799085850125199 15.058011800550496 1299857.3359841197 4.218548040064551 0.1791003826386815
0.2909826778736396 14.844501318028941 1085701.1989359614 4.427552375115623 0.1814923488479109
0.30233948759555307 14.653553749229092 910056.6446005175 4.644827385415961 0.18391222541862146
0.31397624647433603 14.482365521906981 765371.1551726359 4.870445326818522 0.1863557858611961
0.3258982400628399 14.328598638254082 645662.2677952693 5.102231603556875 0.18877389569728184
0.33809992040216424 14.190543660990178 546280.4748250941 5.343183302230754 0.19121510305422754
0.3505793441787661 14.066278294500355 463568.0425726871 5.59376827104743 0.19368600254306045
0.3633411250604443 13.954299414899857 394398.9656673615 5.854176429417194 0.19618879688599797
0.37639090131642966 13.853550114560491 336362.151124921 6.121346135367464 0.19866470504517209
0.3897158774874329 13.762853907709275 287600.43972571334 6.39920571017611 0.201177176928235
0.40331879294129147 13.681086121729967 246463.0195246328 6.6882270253851015 0.20372510290752333
0.4172090526571281 13.607525811893659 209040.7742610105 6.987655781552836 0.20628507495649034
0.4313785181764146 13.54120132931999 182166.80915669433 7.295748510132601 0.208834789597379
0.4458323123943429 13.481745197609458 157093.02554020655 7.61629213500932 0.21142911662997693
0.46056167982875174 13.42818280844998 135722.0551410541 7.949816931894655 0.21406847560713185
0.4755698971541261 13.38027398901227 117487.4500652945 8.293205318460716 0.21669754446829784
0.490861461864042 13.337337162149758 101875.39667592493 8.6487105416522 0.21934176261460617
0.506427602107377 13.299025979971526 88492.31795545983 9.018707635722022 0.22203321536541587
0.5222829830821004 13.265000975085895 76987.41204032405 9.402536544216698 0.2247590341495673
0.5384123687421581 13.234626446096668 67083.15777671554 9.796968904327853 0.22747184060232303
0.5548108673264582 13.207960563158862 58547.079718228015 10.207484365794809 0.23023546655978155
0.5714907100329295 13.18447492830153 51175.03185978066 10.634791866077212 0.23305019704169083
0.588427947324955 13.16374439572777 44788.65280441754 11.073922498795628 0.2358441348527664
0.6056508210473153 13.14579025169083 39255.01452576401 11.529570477925164 0.2386791543353761
0.6231275371352892 13.130244342465382 34452.68215810914 12.00389773145801 0.2415734367465968
0.6408876928490208 13.117038240863241 30274.424885126264 12.494149067617014 0.24448849446161738
0.6588994644288105 13.10584941309464 26637.512484460476 13.000069327535742 0.24741072925592256
0.6771754849455341 13.096460472693144 23464.300501567177 13.526762294980552 0.250391609626495
0.6957070634936444 13.088840756741893 20539.297432069776 14.074040770952253 0.2534204107333121
0.7144911922331387 13.082756243381315 18274.122766841647 14.636055765686226 0.25643671008173097
0.7335256180046934 13.078123581963984 16154.559855457941 15.221188638803717 0.2595206793766671
0.7528049529544246 13.074615797582524 14294.604394056381 15.830337868068098 0.2626718674134981
0.7723199406937975 13.07237629180537 12664.85595283088 16.45690213960172 0.2658119151848417
0.7920786698508268 13.07107281790049 11229.995439828697 17.10725055524165 0.26900088523429394
0.8120567513107124 13.070676138018431 9969.097298374909 17.784359022968914 0.27226017703170374
0.8322696475739253 13.071136652964192 8858.86219479002 18.48454219005365 0.2755515055040259
0.8526901354212705 13.072356511332455 7830.913377921366 19.207863160448973 0.27887015040224733
0.8733286891421992 13.074044263617441 7015.551287205422 19.958835819246072 0.28223698425751254
0.8941835548061153 13.076381017537955 6251.920804793074 20.73642114072184 0.2856271115772558
0.9151505753498521 13.079098350787815 5578.878331604991 21.55356323694563 0.30044484063433247
0.9355480104341264 13.081248024323763 5000.053682138745 22.40344090571605 0.33226152387733576
0.9552574952521724 13.082256449712663 4501.404508031253 23.300641958094207 0.3638765707842819
0.9744233208493887 13.08172389653926 4065.6824785274507 24.242690562047 0.3931395618874818
0.9931295239475636 13.079496734829636 3681.59614605267 25.230788114144243 0.42175922864399573
1.0114795137815216 13.07578532565861 3340.3097112832097 26.26933643316114 0.45012975122858895
1.029521862750643 13.070446823857598 3035.875693767863 27.360116523686973 0.47810262551637994
1.0473138568855458 13.06343887688264 2762.2639037222452 28.495603790703928 0.5045264067547641
1.0649202829340285 13.054910451486577 2515.653871700348 29.685522609676493 0.5302226260430258
1.0824261794262091 13.045071329972345 2292.546468376806 30.93213168962744 0.5553517980133963
1.0998552304673317 13.033823866038487 2089.875605579062 32.234139791788394 0.5799592234882578
1.1172499008549444 13.021433169864387 1905.8504528128196 33.58684194257867 0.6036435334034126
1.1346142905923347 13.00769585156507 1738.1967448767996 35.001107985631215 0.6271097777538259
1.1520046251286744 12.992949255458669 1585.2858242639456 36.47912237960271 0.6503353032080931
1.16943559256013 12.97719244072517 1445.8637358069884 38.020367777673464 0.6731674620150904
1.1869372856730742 12.960586897970527 1318.548487051629 39.61848184242597 0.6952511357810358
1.2044926459216836 12.943014066110607 1202.3609360003663 41.286544018958615 0.717198717363502
1.2221381297203846 12.924689599595677 1096.2872734546615 43.027032991289445 0.7390108471986438
1.2398464838436816 12.905563491116634 999.455703612026 44.84248299911653 0.7606955161181241
1.2576659685059883 12.88580255464708 911.0646951655056 46.725793818669054 0.7819392006299289
1.2755622937935402 12.865321731998653 830.3943789447947 48.68525673160145 0.8030186700137733
1.293557028973672 12.844297897193501 756.8365948655738 50.728048472187595 0.8241010013341825
1.3116286380541509 12.822658574519515 689.6873247713962 52.857286938660884 0.8452026453780577
1.329794269516575 12.800534563761373 628.5025573331685 55.076248109728546 0.8663443942016468
1.3480178250470614 12.777922928799669 572.7876907157308 57.383278538894515 0.8874285046177111
1.36629648960611 12.754687436466506 521.953798074031 59.78019394961973 0.9084665016570821
1.3846161356300282 12.731014800505452 475.77254931559196 62.27838222411668 0.9296711694800822
1.402977355066748 12.706901629455933 433.71706015781166 64.88204654426819 0.9510671827643175
1.4213270530353361 12.682230787265082 395.4548474999413 67.595654036913 0.9726819975957804
1.4396877207336396 12.657117149675992 360.6447563308591 70.42395515112239 0.9945397957438777
1.4580116352366606 12.631463096715418 328.9922336049627 73.37202934213208 1.0166529683014456
1.4762913485635423 12.605301922392096 300.20628773341156 76.44532699650759 1.0390215237196856
1.4945049249804738 12.578687656092598 274.0696749932761 79.64280599651809 1.061640978194776
1.5126433377055812 12.551530626079742 250.28176686642337 82.97784832931649 1.0846679477454737
1.5306514860297524 12.523831325107382 228.68819322406702 86.45767924530078 1.1081474718530018
1.5485290024481855 12.495491963012839 209.0535981873483 90.08935216636478 1.1320534344737918
1.5662419100129028 12.466591111359346 191.21053495117675 93.88061424943989 1.1564668638441529
1.5837743476161112 12.437069641406415 175.00162444075622 97.83967805988807 1.1814564471883233
1.601094324349804 12.40695564752116 160.26629633279566 101.9753127979831 1.2070329247472285
1.6181736063415177 12.376099553274726 146.85448868809942 106.29701270762203 1.2332270593289452
1.6349852990127725 12.344522050936723 134.68062924370656 110.81498036148228 1.2601143753625887
1.651514097494932 12.312203314011368 123.58928168968025 115.54007269232369 1.2877423655302542
1.6677355362244102 12.279190645991411 113.50788930804052 120.48412553837323 1.3161990516189732
1.6835986601632325 12.245265473591363 104.33224011970354 125.65973677878497 1.3455583347779385
1.6991011893008496 12.210695029835769 95.99075848320827 131.08048603978304 1.375860332347414
1.7142104404584466 12.175107721052013 88.3768052085199 136.7611226497969 1.4072109117459315
1.7288760206099063 12.138588909354336 81.45056676728528 142.7112943088412 1.4395738406342629
1.7431299380422793 12.101276699639271 75.13503391987133 148.94935580354013 1.4731006148421302
1.7568900395681988 12.062821947539337 69.36528603337086 155.49690730428136 1.5078591352208088
1.7701728316807857 12.023627165602665 64.1171742111475 162.37354146977532 1.543968840785688
1.7829101469472113 11.983283366545853 59.32208734113795 169.60071800690844 1.581515353044261
1.795103579459693 11.94183400255995 54.93955876783986 177.20138179713263 1.620598721840096
1.8067267346598703 11.899457613356097 50.94218234610441 185.18601607280385 1.6612195930059757
1.8177644764153829 11.855890218905301 47.283488933286634 193.59034169666572 1.7035663295390997
1.8281791390245319 11.811204784051915 43.93750544060138 202.44738614059776 1.747806465998196
1.8379731995233228 11.765531557835667 40.87973589149765 211.78511469743864 1.794038439679595
1.8470740922879978 11.718472348776105 38.077536571556465 221.61976834851433 1.8422831933455488
1.8555239129926981 11.670322362157695 35.50658490141906 232.00782940825908 1.8928497738040218
1.8632670098550876 11.621081808339405 33.156500300303456 242.9797736892574 1.9458365519473824
1.8702822496958522 11.570524481385004 31.001467178237256 254.56853306799408 2.00135723402508
1.8765754505457781 11.518765401209466 29.020945297506803 266.83978543790425 2.059743211341026
1.8821216600255626 11.465781187549528 27.203310488573816 279.8116344859952 2.1209753262277196
1.8868967462550976 11.411604608226552 25.53566814555286 293.57131610313036 2.185516097427912
1.890874293641055 11.356127345833572 24.004894075895283 308.1441072818178 2.2533553296034623
1.8940910327700502 11.299485799243042 22.59540592344694 323.6225339657362 2.3249751197414548
1.8964690525529078 11.241603283463137 21.30184656550993 340.05280001252436 2.4004729958026956
1.8980598026644402 11.18252556908046 20.11167949645088 357.5233787672283 2.480241443081102
1.8988123513524169 11.122248369297417 19.019428904591877 376.1201566183219 2.5646389368067557
