M[M_sun], R[km], Lambda[1], P_c[MeV/fm^3], rho_c[fm^-3]
0.23841724892012095 16.20908015294055 2780876.1263280716 3.453507347168396 0.169602847481901
0.2484189095774986 15.866152375313785 2281895.6128006 3.635645613483208 0.17197970061581505
0.258705776982022 15.562637644009717 1881311.5932298203 3.8249658584928956 0.17437735364208007
0.26927581643516924 15.293248418952063 1557773.4022519202 4.0205872040752135 0.1767704096426069
0.2801344065358885 15.05344434076409 1294956.4474523643 4.2228166587572415 0.17915029751168113
0.29127025250949606 14.83948718500226 1080859.9830836237 4.433030540517791 0.18155398927361083
0.30269806463079396 14.647970821544993 905139.6322752236 4.651576719640401 0.18398532424233216
0.3144045914637412 14.476511563523722 760581.9216925666 4.878822650503713 0.1864459499075914
0.326397276871764 14.32268260759136 641207.6900160493 5.112122446994206 0.1888769593705221
0.33867352445395466 14.184367062530265 542119.7622443499 5.354595465849383 0.19132897490114315
0.35123343338302626 14.060214016108377 459681.2719619379 5.606772900843698 0.1938109906159759
0.3640735458252157 13.948364389105052 390829.4544214852 5.869067723069179 0.1963285630988469
0.3772065076289471 13.84766964880803 333106.57354339084 6.138450346919213 0.1988230930170197
0.3906195170179713 13.757130595290283 284617.4057364415 6.418198331586076 0.20134645669693543
0.4043134652445772 13.675442752919135 243742.34191352528 6.70919274756051 0.20390434976224223
0.4182938148377703 13.602027910710307 209200.50480005346 7.011639308043765 0.20649012258864913
0.43256090859266116 13.53607012300323 179938.39171001522 7.321952533847278 0.20905079765241763
0.4471078919106211 13.476741264276505 155077.3198557968 7.6448188008605475 0.21165591818027715
0.46194316867042384 13.423594832695489 133908.4178622756 7.9807723699359805 0.21430547831724692
0.4770570820639346 13.375861911441474 115846.62930861846 8.328039428881178 0.21696424328105818
0.4924569763741403 13.333227855812964 99349.46219579571 8.686266305366212 0.219618067636434
0.5081338595449226 13.295153346451013 87158.29127262425 9.059106386420877 0.2223201131760656
0.524095644817759 13.261284458227657 75785.58512302302 9.447165722073468 0.22507312647905753
0.540337486709375 13.231290342037028 66007.25667373781 9.84524690954886 0.2278028985767542
0.5568505289120261 13.204880164668545 57580.71629898354 10.259093521482919 0.23057651056833017
0.5736542121694094 13.181565983963688 50296.70295783835 10.689880042879803 0.23340069169782354
0.5907249186781218 13.161185706726519 43999.281379477085 11.134888769865524 0.2362320284708636
0.6080672823175638 13.143425161715555 38544.336033422325 11.594424979382591 0.23907797795163171
0.625680299818027 13.128235689544713 33811.35579255812 12.072824805720769 0.24198328040184852
0.6435625735227708 13.115205642887306 29697.343954919936 12.570084030780396 0.24494000735690796
0.6617163983021758 13.104256665429297 26116.22151086838 13.080554725657564 0.24787236941391086
0.6801249132437907 13.095240431566525 22997.47587474016 13.612004853900485 0.2508633671834612
0.6987799653888976 13.087678837411978 20273.487896576404 14.165342255147714 0.2539149013993505
0.7177105884849423 13.081854785099212 17892.287313582623 14.734932020464635 0.25696643143495107
0.7368917513107077 13.077406827176363 15809.87488491457 15.325639275489971 0.2600626222606985
0.7563088520253172 13.074185348571435 13984.739092799602 15.94063006148292 0.2632246004240815
0.775970292833074 13.072054205968303 12383.741551935938 16.577424917737822 0.2664159191124134
0.7958671279272447 13.070959772882265 10977.624072988265 17.234295254492743 0.2696166828824117
0.8159980293260909 13.070737346146315 9741.03773831103 17.918247660967523 0.27288954304202934
0.8363607797191676 13.071332491652052 8651.729539699829 18.630315569384155 0.27623599197523213
0.856929089519193 13.072587788379732 7692.593173191368 19.361487349201724 0.27957082071523465
0.8777270113065484 13.074554396044192 6846.0973387199165 20.122547338036174 0.28297468267776965
0.8987158727170824 13.076860090471754 6098.400361353831 20.91493371407469 0.2864513285480055
0.9199154576668591 13.079762288627402 5437.672281703167 21.733936726483606 0.2899557161329761
0.9412908248306475 13.082923204861967 4853.034551106413 22.581486663851692 0.2935021045310264
0.9628655062833876 13.086433318990773 4334.95909837937 23.463901267198114 0.2971319880976736
0.9846154466761542 13.090179310619616 3875.6841318004886 24.382429473315906 0.3008454305328713
1.0065167860119864 13.093915695099573 3468.11620225038 25.327067980062623 0.30454763803687906
1.0285735756699423 13.09770300097441 3106.0187847063994 26.31060981126041 0.3083366738287359
1.0507939448548613 13.101749981663735 2784.220857945448 27.33456039351844 0.3122143064748356
1.073117790384109 13.105353673870036 2497.4358411779663 28.396184679140156 0.31615402564003253
1.0955859547058246 13.109063790996627 2242.4887685437993 29.49365958003527 0.3201362587334634
1.118176351241647 13.112650375573137 2014.9839025224264 30.636224814546495 0.3242073222483116
1.1408623139248166 13.115917746066835 1812.0575709028212 31.825737001096993 0.3283687687523607
1.1636308392389536 13.11896663782754 1631.013377274181 33.05770373163532 0.3325885005294999
1.186483816784109 13.121680875177244 1469.156126346252 34.33440658282487 0.3368751700110608
1.209393796117416 13.12389795694793 1324.3974023468786 35.66369942723676 0.341267719984928
1.2323718736506335 13.125883276807667 1194.834564271609 37.04760595964237 0.345764589990509
1.2553783328238186 13.12730682493943 1078.8158081995773 38.483747031319254 0.3503309626330123
1.2784013639201508 13.128182427482516 974.748059899468 39.97169691517287 0.35496871188353835
1.3014251789554918 13.128475967398467 881.473901161713 41.52122591843652 0.35972391259702874
1.3244608625999117 13.128261587741248 797.7186007010562 43.13480212666199 0.364598687987905
1.347478143437604 13.127414005510472 722.4857693605769 44.81502118111192 0.36959443845757883
1.3704465095200469 13.12582013546924 654.8296720874642 46.55572532831997 0.37465322269518053
1.3933748502615853 13.123568209253067 593.9643659443105 48.36674448879345 0.3798324434948089
1.4162219667682436 13.120583376874576 539.2188488323882 50.25339533199184 0.3851473702472402
1.4389768421732159 13.11672470078348 489.84637098700136 52.21888341265601 0.3906007536244458
1.461643657382222 13.112076555504792 445.3329527363348 54.26660419240846 0.3961938004080322
1.484178981891915 13.1065836765014 405.18012221410703 56.39693892509408 0.40190587619233614
1.5065648244850727 13.100145280951402 368.927981695493 58.61094397533856 0.40774321017731263
1.5288245916332432 13.09285660106389 336.03017978576986 60.91909147898529 0.4137417492414585
1.550884134845456 13.08455235196882 306.5813077856067 63.325652828797296 0.41990446009520227
1.5727496769007592 13.075277973441338 279.8124116587753 65.83516285561188 0.42623196437437577
1.594397469765685 13.064969944790027 255.57273356253717 68.45251076277205 0.4327307689809343
1.6158219103033162 13.053675150694014 233.61143507180887 71.18278138439356 0.4394153184100811
1.6369978811155546 13.041160950196778 213.6963861910882 74.0314405124566 0.4462925533371958
1.657901414146654 13.02764626294775 195.64408234951185 77.00387944908906 0.45336380471899734
1.678506510710677 13.012932283608725 179.24911624513896 80.10270384008874 0.4606165047725543
1.698804224931937 12.997089005283838 164.3598764304462 83.33934973255761 0.4680919219942573
1.7187645410378518 12.980094883494955 150.84357291932042 86.72092636278578 0.475800085398402
1.7383659816311947 12.961748233304773 138.53832434709682 90.2549960466428 0.4837454977076147
1.7576042088270338 12.942294762872727 127.34985000129409 93.94965573968874 0.4919360656550868
1.7764704640090259 12.921676225652908 117.15738852679985 97.81361565046956 0.5003916227777893
1.7948779984441097 12.89952374210198 107.86786822799868 101.85617228021412 0.5091277430297558
1.8129015379049183 12.876304774777624 99.40492149471483 106.08726335962002 0.5181512792718956
1.8304321967402244 12.851467202381144 91.67176690063079 110.51756276655132 0.5274754926570441
1.847511783330721 12.825566202424461 84.62776214204544 115.1585523555427 0.537124590720541
1.8640908567125063 12.798049421364055 78.18152758101978 120.02255459510266 0.5471179600110094
1.8801506231511391 12.769251694131427 72.29319978639354 125.1170266797492 0.5574424320203679
1.8957163485791093 12.739246021093573 66.91428954428213 130.46002164819436 0.5681371538235289
1.9106740886760907 12.7075493798596 61.987999510576856 136.06739556053546 0.5792330883306863
1.9250923678529723 12.67444181046886 57.4681575091607 141.9555688450556 0.5907481372144736
1.9389167268064624 12.640072895799168 53.34341865403201 148.14224390309246 0.602701857410445
1.95212265667104 12.604106031429867 49.554088458991764 154.64649036378526 0.6151297832049749
1.9647246335989825 12.566781123592559 46.0783820666687 161.48474436781265 0.6280490725864342
1.9766467838477038 12.527844140411117 42.88862350128041 168.67165423419328 0.641451063966726
1.9879109667814798 12.487408388562388 39.95953423311532 176.24122195045274 0.6554157838613361
1.9985056460505246 12.44551343319262 37.26815761194563 184.21936843826956 0.6699827523829724
2.0084062261803757 12.402196060085998 34.794286930128024 192.62397196015408 0.6851414653499436
2.017600428198985 12.357375348112726 32.5193332113607 201.48341925937626 0.7009402062583556
2.0260437045687287 12.310916979537748 30.42507112694543 210.84066103038143 0.7174616868862513
2.0337374565937885 12.262884684191112 28.49409654165602 220.7157606389321 0.7346856401208213
2.0406825212861945 12.213527351608123 26.72241379229534 231.15102369175304 0.7526934311407854
2.0468628570501224 12.162632590930038 25.08598747786833 242.1913914685213 0.7715519762402867
2.052265742043326 12.110214922392805 23.579435334186392 253.86488815174667 0.7912491496922631
2.0568447796460188 12.056274603505063 22.18104842935851 266.2371261444604 0.8119232384776538
2.060630652111184 12.000936174553361 20.903797562068032 279.338751508955 0.8335603868357901
2.063588310533706 11.94402222414193 19.71941339581595 293.24208756115985 0.8562813028521338
2.065717751467571 11.885654779104387 18.626181660440544 307.9977780970156 0.8801370597667619
2.06701962014506 11.825947177339728 17.617861039134482 323.67094684713715 0.9051857381122057
2.067468728756771 11.764761744814088 16.68666228691766 340.3427608757472 0.9315598613992823
