M[M_sun], R[km], Lambda[1], P_c[MeV/fm^3], rho_c[fm^-3]
0.23841724892012095 16.20908015294055 2780876.1263280716 3.453507347168396 0.169602847481901
0.2484183188054156 15.86612523611803 2282113.009890036 3.6356168650247147 0.17197933492455025
0.2587032526101429 15.562686847474442 1881411.7511556714 3.8249067214080825 0.17437663021205127
0.2692693999459614 15.293392178778754 1557916.8007933337 4.020491926723477 0.17676924410498315
0.28012766960072355 15.053575156386282 1295182.3035228648 4.222686183288938 0.1791487718035074
0.2912621997808815 14.839571531697953 1080855.0360054781 4.432863066533829 0.18155210485302342
0.30268674105639465 14.648149515955934 905257.3225786973 4.651370351895488 0.18398308917159728
0.31439303137650054 14.476666933293131 760756.873196925 4.878575416533074 0.18644337370250583
0.32638053509771453 14.32294060087751 641320.8318034976 5.111819920905793 0.18887380701550602
0.3386551334747511 14.18468006804852 542269.533790673 5.354246355884952 0.19132549144281263
0.3512130259343355 14.0603563986763 459795.34520843683 5.6063750179687375 0.19380716654604338
0.3640507114302561 13.948537270277512 390942.01602570445 5.8686187184647505 0.1963244052381685
0.37718144846769547 13.847936157676145 333210.0310201138 6.13792686046579 0.19881824544147397
0.39059277091500816 13.757245818679042 284700.3675120234 6.417616969011538 0.20134127505718047
0.40428543768366887 13.675731520271475 243828.47429814318 6.708550902392053 0.20389886229433152
0.4182619097607452 13.602241976682885 209279.61277115226 7.010904930818635 0.2064838440160972
0.4325264402966353 13.536329379676095 180012.4833208392 7.321150060025183 0.20904418260690336
0.44706853152668896 13.476904777990569 155141.0792273347 7.643945086543016 0.21164897170560784
0.46189880516552556 13.423709831063679 133968.86671335268 7.979824148439102 0.21429821849219616
0.47701300907622773 13.375943246753277 115896.17470074922 8.32697218153085 0.21695607216378782
0.49240759334325707 13.333310577559288 99392.76267065795 8.6851155314256 0.21960960116984313
0.5080858589414444 13.295360913137527 87201.88882448866 9.05786835013591 0.22231132107498527
0.5240388080966143 13.261385596028036 75825.72287320156 9.44583634333476 0.22506401049693536
0.5402825997623415 13.231465701316425 66039.10315278311 9.843766931589709 0.2277927498868256
0.5567940385157515 13.204959443144501 57609.21602540667 10.257511243397595 0.23056605454645454
0.5735837950622231 13.181595261460593 50324.70466945952 10.68819091041682 0.23338994471115346
0.590657615069669 13.16126821401133 44022.53901010446 11.133019007908022 0.23622013224172003
0.6079906314134081 13.143619364480521 38569.89061243423 11.59243574872141 0.23906574515131668
0.625603986282885 13.128248012772616 33828.328119658734 12.070710427702872 0.24197070820979324
0.6434794007177842 13.115283009768314 29714.666424861567 12.567754180370938 0.24492615395578488
0.6616341026623499 13.104455236446796 26134.025689014506 13.078084990550217 0.2478582037524151
0.6800295460225352 13.09518780925155 23010.362883340425 13.609388863311844 0.25084888951708445
0.698685866070665 13.087734312575705 20286.859145155602 14.16257306985236 0.2539000657182736
0.7176103517720207 13.081867057883757 17773.80955548077 14.731896640018352 0.25695016963538003
0.7367856254974531 13.077393744534609 15819.491736637403 15.322432432006405 0.26004598353008607
0.7562012406766139 13.074188654908816 13993.774800193367 15.93724351794766 0.2632076286480586
0.775856397436251 13.071975131899276 12391.534667538841 16.573723409472205 0.2663973688801258
0.7957519473192554 13.070929322266014 10984.88146367383 17.230393042142992 0.2695977684908503
0.8158800532130367 13.07069733681569 9747.09774746001 17.914134812818872 0.27287020990914307
0.8362336954206016 13.071360113707845 8658.395937353675 18.625981326313713 0.27621622376377153
0.8567979446292786 13.072590796397597 7698.547136704124 19.35676668511033 0.27954929006167495
0.8775940610970109 13.074537799120932 6851.075457011303 20.117578909310865 0.2829527589633611
0.8985774323239284 13.076835637492975 6103.056520400185 20.90970522179595 0.28642895663587314
0.9197715481554061 13.079756340398536 5441.829534515548 21.728252735140213 0.28993139521059236
0.9411434911246841 13.082898608164324 4856.842597978584 22.575511087124273 0.2934772578659792
0.9627144090724549 13.086344006171574 4338.09419221062 23.457618612065637 0.29710658846593746
0.984450772303228 13.090037091005328 3878.6373055817603 24.37561015324238 0.3008178612624106
1.0063588756149247 13.093888125093194 3470.6971371943127 25.319904264575033 0.3045195641125836
1.028404075205256 13.097690153720103 3108.592705378161 26.303083812212424 0.30830799644214585
1.0506193905404124 13.10161531018297 2786.326248011521 27.32665247190332 0.31218495994351947
1.0729463327920374 13.105355941858846 2499.7110097698164 28.387619038140485 0.3161222382926012
1.0954067047679592 13.109012613030266 2244.272708730283 29.484664025298585 0.3201037285764509
1.1179905390756757 13.112587261345574 2016.765457985477 30.626776158455726 0.3241741293720812
1.140677283933647 13.115968830527157 1813.7673580847077 31.81581065424997 0.32833476903452496
1.1634403789031658 13.118899693093153 1632.4383924056353 33.046969347387495 0.3325517331223973
1.1862880211841862 13.12161373871033 1470.4689189005578 34.323133454927245 0.336837478239864
1.2091936237332561 13.123880028705981 1325.5794220103135 35.65185671149715 0.34122904622463296
1.2321587129124991 13.125845131396126 1195.9848017910228 37.03516176383406 0.345725022265292
1.2551720383080294 13.127302668233664 1079.7521776415886 38.47030661727045 0.35028822731945103
1.278184373924531 13.12815571885507 971.5005731651461 39.957577449153334 0.35492481989799146
1.3012086071256943 13.128503071404662 882.3387073053693 41.506387546329286 0.35967878219514277
1.3242322442847223 13.128250900920234 798.5062758649367 43.119202385254546 0.3645522485327332
1.3472488468573947 13.127398247558533 723.1441847761794 44.79861584783236 0.3695467617506897
1.3702188770495856 13.125856786133278 655.4597515006042 46.53802999552413 0.3746017970288659
1.39315338073654 13.12360445447879 594.5215958080345 48.34813648473675 0.3797794438307895
1.415988704855377 13.120605153667363 539.7091418662502 50.23381931355745 0.38509269625100184
1.438739581889895 13.11673310070036 490.3185154423862 52.19828049438774 0.3905443244878155
1.4614022737216137 13.112134520583531 445.783113271037 54.244912530856546 0.39613563846156863
1.4839423877033 13.106632114133804 405.5764557458649 56.373559976889005 0.40184319011683084
1.5063312696513338 13.100266526187191 369.3109680334569 58.58632690530943 0.4076783827833227
1.5285753765735475 13.092896162704958 336.51645017933987 60.89315884377235 0.4136746437528189
1.5506369933144213 13.084645675950133 306.8985353819811 63.2983221410319 0.4198349779956715
1.5725032070771985 13.075350930765087 280.09095643419755 65.80634687554691 0.4261600632070781
1.5941586104934968 13.065131096222439 255.8360454641553 68.42211576152013 0.4326561365460864
1.6155744394768186 13.053723911932883 233.84614062153156 71.1507059772241 0.4393377808292162
1.6367482605906913 13.041310232434034 213.92615588325435 73.99757653312956 0.44621199299072123
1.657650628540828 13.027823688219259 195.85118058385507 76.96740728154631 0.4532770396514444
1.6782600995441572 13.013135793414241 179.44580896634497 80.06418493922601 0.46052636393306595
1.6985460790399132 12.997278392418234 164.5391200113265 83.29865014811816 0.46799803232597736
1.718522506766634 12.980335829253345 151.00713303534283 86.67790131809133 0.47570220444245437
1.7381279753446293 12.962044343007182 138.69010023127115 90.20949068084167 0.48364346453060003
1.7573625418336285 12.94253198935495 127.48259248333785 93.90150447361347 0.49182964944318225
1.7762342874123802 12.921982766961523 117.28261572099929 97.76263980538654 0.5002803963219729
1.7946540559197222 12.899867808911296 107.98631746244779 101.80217877484675 0.5090113906931087
1.812658886334151 12.876537739422961 99.50917246494406 106.03004510878388 0.5180295907377486
1.8302032861829056 12.851785940686272 91.76856577374758 110.45689740761831 0.5273481095347397
1.8472883103029074 12.825933501666697 84.71742920433451 115.09419943627917 0.5369910066001641
1.8638670522955174 12.79842196609777 78.26322437760494 119.95425406036277 0.5469777589629164
1.8799399028993713 12.76969024548531 72.37492290261883 125.04552372306838 0.5572990441574598
1.8954866471872978 12.739592411555654 66.98286393472442 130.38402825282466 0.5679863312375649
1.910481199501867 12.708114532843155 62.05382669326664 135.98658691069645 0.5790743227272195
1.9248851884174767 12.674995321936398 57.538557256688755 141.8695946045279 0.5905810758819122
1.9387204361708967 12.64057598680276 53.39902689106003 148.05072529060286 0.6025258141151582
1.9519323140887739 12.604607193135303 49.60379591942809 154.5490161368857 0.6149440403369613
1.964527879697695 12.567256708440533 46.124604240403535 161.38207199583402 0.6278571857284775
1.9764860497141732 12.528452376796889 42.93286906256769 168.5621516018142 0.6412482692466908
1.9877461506502847 12.488084874373438 40.00247128421953 176.12436785729068 0.6552012324195553
1.9983573720257224 12.446207051400393 37.306171804115415 184.0945963277425 0.6697555908320688
2.0082596057711095 12.402853566876974 34.829510220353995 192.49200818535536 0.6849054474772676
2.0174458822121464 12.358002666393475 32.55198635766617 201.34231967517962 0.7006898509086021
2.02591691697651 12.311654298840452 30.45601998610686 210.68970045008936 0.7171959219779972
2.0336311716865643 12.263717920876188 28.524802383801735 220.55559891723823 0.7344082972168156
2.0405721752041326 12.214322043090405 26.750081193618744 230.97942760894196 0.7523984845322663
2.046766265328819 12.163432193007303 25.110451815882556 242.00892647726891 0.7712432336772013
2.0521807046418536 12.111107381094152 23.600225022040597 253.6691164794532 0.7909202257349105
2.056773650587078 12.057175776937251 22.208582070300203 266.0285010507502 0.8115776015851661
2.0605688097001633 12.001778811424893 20.922759482870372 279.1145824897769 0.8331918592831554
2.063547158225723 11.945009626478253 19.73970249874648 293.0026922048191 0.8558929355204076
2.0656864018826697 11.88666018046166 18.64445598973981 307.7401561049084 0.8797219546742195
2.067005968912722 11.827004865106169 17.634855246243276 323.3952464846175 0.9047475085746798
2.067470675006823 11.765854763164986 16.701933582476446 340.04733943911987 0.9310962950921413
