M[M_sun], R[km], Lambda[1], P_c[MeV/fm^3], rho_c[fm^-3]
0.23841724892012095 16.20908015294055 2780876.1263280716 3.453507347168396 0.169602847481901
0.2484205159787766 15.866127945357619 2281863.432464388 3.6356611709409123 0.17197989851256093
0.25870768201155286 15.562607505481303 1881061.439099432 3.82499786126792 0.17437774513531193
0.26927800606385516 15.293161203767223 1557594.1652119167 4.020638765070547 0.17677104039355543
0.2801366127023675 15.053445755910914 1295002.9781207286 4.222887268401192 0.17915112318191875
0.2912750643947833 14.83926819002055 1059982.57454821 4.433121173431913 0.18155500907695718
0.3027031765693449 14.647834477887907 905024.4814361604 4.651688401785646 0.18398653381844374
0.3144113081336838 14.476467970372262 760542.7087802354 4.878956449642143 0.18644734410928615
0.32640609238419666 14.322556207530297 641090.9068911609 5.1122861708573195 0.1888786653911296
0.33868337932315923 14.184359322389314 542063.5094890839 5.354784401773944 0.191330860124962
0.3512436967953513 14.060112466860067 459599.53276586323 5.6069882338521415 0.19381306019105662
0.364084694598269 13.948236247934457 390784.0653324977 5.869310724673808 0.1963308133359418
0.37722035363640793 13.847578930380548 333054.6866815897 6.1387336608072305 0.19882571655286543
0.3906335969009721 13.756951392799245 284559.0141725909 6.4185129704702355 0.20134926104902487
0.4043312285278981 13.675426266481304 243711.64076669328 6.709540122459746 0.2039073196507858
0.4183113371835024 13.601977390296023 209159.61721848027 7.012036766302355 0.20649352066586002
0.43258071114269864 13.535979375101357 179893.87275571178 7.322386849977403 0.2090543778576396
0.4471288844014934 13.476626947944547 155039.92401867674 7.645291676824598 0.21165967778549374
0.46196621381990405 13.42345718161473 133879.37173429437 7.981285574170128 0.21430940753944605
0.4770867659716891 13.375877343422069 115822.9690303915 8.328617058929193 0.21696866576368112
0.49248393510717564 13.333145535240938 100372.53589061223 8.686889146508166 0.21962264999925407
0.5081635114723204 13.295122892726994 87138.49678846214 9.059776461055822 0.22232487181197416
0.5241309984233541 13.261332359538184 75769.49174811726 9.447885239013598 0.22507806044059298
0.5403686455561014 13.231275766571706 65990.57205577931 9.84604794528271 0.22780839153915564
0.556883914212701 13.204786862473593 57031.55834407653 10.259949931810683 0.2305821699054623
0.5736878110409601 13.181476785577352 50283.096718515124 10.690794293343341 0.23340650855219114
0.5907617549293396 13.16116368914236 43988.04715661843 11.135900797212814 0.23623846742378732
0.608108074805731 13.143430924663436 38533.289850476205 11.595501676194864 0.2390845991129487
0.625720950317965 13.128223735728309 33802.683455223225 12.071807037108359 0.24196150756322807
0.6436143067701836 13.115193146465312 29686.710971813587 12.563083822470128 0.24483951044949917
0.6617122138802581 13.104228984064424 26116.465869740816 13.093650580456297 0.2851684266558282
0.668911807223618 13.091739771448827 24704.27748487471 13.776290481157087 0.869954086760789
0.6642167431033836 13.069534843416331 25132.96263282922 14.89776692418572 1.485357158160742
0.6547927137785574 13.04063754484063 26285.071177379214 16.37618246109712 2.1687534278360663
0.6426514717661745 13.007634353673154 27947.403829977604 18.345025836454617 2.91686953062413
0.6275714702192948 12.96580350225698 30185.290092158797 20.754386795491715 3.1817872502437723
0.6104294055320582 12.911350865278903 32875.840036723646 23.353291241158477 3.329635543937155
0.5920608244798189 12.84229654012701 35883.602599913575 26.139691837395347 3.3960320205442103
0.5732830013236702 12.757598022749027 39026.70389559383 29.00837342442595 3.4066068204172186
0.5548358104062601 12.656642603682926 42066.36032720016 31.904962780496223 3.4165610490208165
0.537245055582001 12.539260810089504 44761.6682743255 34.925710645230424 3.4262661767026805
0.5208347735579145 12.404944275287065 46881.798082392444 38.06256428135676 3.4356352113373974
0.5058739641034827 12.253599946701017 48205.12281604489 41.208433398396856 3.4449856997652164
0.4925364003858623 12.085174464190652 48562.45841149774 44.46162850301527 3.45463690812654
0.48097996410326194 11.900732914891783 47868.077383894735 47.83824169118408 3.464635424371407
0.47130083859940053 11.70143686862588 46117.07496343339 51.305837157965726 3.4748787690756973
0.4635528314856416 11.489505259713296 43417.96602639452 54.81799305250477 3.4852098970520613
0.45776261378236055 11.267537589531937 39956.91263397077 58.46127721694853 3.4959036762067535
0.45389593759162605 11.038706194796205 35985.78678469409 62.234099680029544 3.506954528084804
0.45193018531889656 10.806531483136691 31770.724999696646 66.07888838405054 3.518183053322436
0.45179606338762873 10.574280090722615 27554.381373706576 70.01872746264394 3.5296559580003186
0.45340796405738615 10.345262566155046 23529.40482136123 74.09734554497511 3.541498476656199
0.45665841060051715 10.122369833969863 19834.957546554873 78.31523171099708 3.553706800925584
0.46144454938511903 9.90781833756446 16550.909620085084 82.61005754227305 3.566094054338808
0.4676526695439604 9.703345158729906 13706.482829389877 87.02863926634575 3.5787996523991357
0.4751724425995719 9.51021171780226 11285.785985745073 91.59793780020176 3.5919023369157244
0.4838986634818178 9.32926590066286 9263.698527040471 96.3194821698745 3.6054026317291132
0.49372748660741217 9.160690635167482 7593.968488419538 101.14765215908953 3.6191555353929985
0.5045542863213675 9.00441608228813 6223.725082748539 106.10793413124173 3.6332342440276366
0.5162967784961066 8.860169650596562 5106.5432297132065 111.2342515155326 3.647738200969864
0.5288622568456294 8.727598721065132 4198.433279432257 116.52941310470024 3.662670831642591
0.5421950905958437 8.605962934340285 3459.1705088645654 121.98992089260099 3.678015772598255
0.5561893143559048 8.49470321117998 2864.347895608615 127.56868516851708 3.693621594570388
0.5708199967167228 8.393076508043658 2378.394945549105 133.33267151611219 3.7096885730214884
0.5859959530058494 8.300354616309559 1983.0764250975158 139.28622339766355 3.7262236139641423
0.6016821577136886 8.215878032221863 1659.8329333562804 145.43393291142826 3.7432340065254177
0.6178170087144585 8.138976955207772 1395.2840683252514 151.7808856493426 3.7607281599140023
0.6343656981506203 8.068954676546873 1177.374078361129 158.28959237764516 3.7785824605971903
0.6512757828081268 8.00526244046367 997.5036173886955 165.00526768872112 3.7969283572319705
0.6685070182245895 7.947332668395639 848.4554316183893 171.94244037420123 3.815802169509892
0.6860351355923472 7.894574767183192 724.3354584650858 179.10778057063638 3.835215440973984
0.703806885721274 7.846598550811161 620.777666083403 186.50848987031083 3.855180832194275
0.7218002739812638 7.802982518499936 533.8734581097755 194.15230324850407 3.8757114840696127
0.7399983086289116 7.763286384003759 460.6379381341784 202.04753359060382 3.8968193586716438
0.7583382306526122 7.7271352418918156 398.7328048186551 210.1850414254227 3.9184565750720126
0.7768360054498703 7.6941745806842015 346.21996585079717 218.58489228261547 3.940683466395672
0.7954188060488744 7.664174862134507 301.556021717177 227.2685107106997 3.963553496387486
0.8141013544865454 7.636698207903296 263.3466037158386 236.24657251709027 3.9870861226925456
0.8328243267508458 7.611620509072703 230.24756191714113 245.53034888194034 4.011287892662182
0.851594615606224 7.588668172192341 202.5053485174604 255.1321372683536 4.036186345767717
0.8703642478414036 7.56764792792824 178.29199222944993 265.06487347956687 4.061812054454878
0.8891250330397256 7.54834208093066 157.32242078752853 275.34228653094067 4.088181635351469
0.9078493945095173 7.530439848304628 139.15206660780711 285.97910829284615 4.1153172592262965
0.9265369326564802 7.514023703073052 123.35572630145205 296.99103392340345 4.143255903131964
0.9451441986793924 7.498757363771236 109.43762459053727 308.39465379724345 4.1720176791350445
0.9636577346692266 7.484537625932609 97.56128071738722 320.2078258890928 4.201634885451271
0.9820680975894961 7.471266153922459 87.02172260801544 332.44937169868786 4.232146313087912
1.0003425394533088 7.458818995705329 77.788946118151 345.1394079363922 4.263576603880848
1.018466952080217 7.447028152099545 69.66248842539682 358.29952790660474 4.295977801009759
1.0364333968264188 7.4358863110877955 62.505308194635745 371.9524181825151 4.3293656228812
1.0542152021645754 7.425226347187645 56.17893408770361 386.09165430111653 4.36371460653844
1.0718176671676942 7.4149468917465065 50.58523304835627 400.7684197502605 4.39911819701738
1.0891888686612454 7.4050198921058445 45.623773683176275 416.011464139191 4.435650364791334
1.1063422589097271 7.3953473418356985 41.21684031853689 431.85034331498883 4.473349478991115
1.1232345001610626 7.385846750856907 37.263606582011505 448.31624434099007 4.512270844640507
1.1398640834459504 7.3764550570378695 33.81082374889358 465.41991715831085 4.552402959200281
1.1562346138064123 7.367128855185491 30.66169324680246 483.18395297891584 4.593760417833925
1.1723178232012565 7.357780387898425 27.87635664627163 501.67732102706316 4.636508342282794
1.1880834894057954 7.348370968662388 25.409206230530376 520.9404930666942 4.680708856932348
1.203541792864316 7.3388859757498 23.170224340796832 540.9538722711762 4.726239980730281
1.2186852584071097 7.329194886948314 21.159804695392527 561.8120878685826 4.773330582353533
1.2334661450135875 7.319334691784975 19.351664808123214 583.564202867889 4.822057840007362
1.247899451208606 7.30923035829203 17.72278999577512 606.1955666538043 4.872301662346556
1.261981407011636 7.298826766767256 16.240175897406782 629.833021828371 4.924368118377451
1.2756557575996648 7.288079107705741 14.927026679241528 654.4602174977114 4.97812201363109
1.2889769493685153 7.277016796413729 13.715015347914374 680.1936350452165 5.033828037645454
1.3018678793026066 7.265514190837519 12.639018382477392 707.036576851581 5.0913816739754285
1.3143633797019139 7.2536242443868515 11.645421773794006 735.117374850806 5.151092172836325
1.3264474205096581 7.2412820692232955 10.75890965355555 764.4250688322383 5.212781787005297
1.3380888078184994 7.228454887598051 9.93939955218169 795.1013948568327 5.2767683088964805
1.3492876181615496 7.215125157076468 9.201159461301012 827.2069276318449 5.343107099620014
1.3600360681076873 7.201260665861412 8.52844090459132 860.791827926941 5.411792259893194
1.3703441995477448 7.1868985109766275 7.915012787672996 895.9860340316393 5.483072156928804
1.3801732104864024 7.171908358067128 7.354808716549125 932.8807041577898 5.557047104358558
1.3895384171511862 7.156347486100688 6.847150563003831 971.5750127187001 5.633832712998057
1.3984111598523565 7.140164533067852 6.378707624219652 1012.1654483601535 5.713519831954812
1.406807510350704 7.123379348457083 5.946920795800118 1054.7815709612873 5.796287889444453
1.4146966911610186 7.105936753164631 5.5573953918930314 1099.5584391699629 5.882314265550997
1.4220898565734559 7.087836330110486 5.194295431460528 1146.6348082355692 5.971765071163187
1.4289817850236812 7.069067918417934 4.863682634046769 1196.1613432852073 6.064819181459237
1.4353504581976273 7.049612055134359 4.562919582510657 1248.2995774950032 6.161660168514242
1.441192084268872 7.029460910912146 4.28355085137631 1303.208485944656 6.262440126030306
1.4465227689070004 7.008618983790605 4.027004242036752 1361.0960501719505 6.367445170591488
1.4513165147973683 6.987048151229515 3.7884871620924065 1422.1727337043212 6.4769214325137865
1.455577889294135 6.964775794965878 3.5728450669469494 1486.667245235455 6.591140763039794
