M[M_sun], R[km], Lambda[1], P_c[MeV/fm^3], rho_c[fm^-3]
0.23841724892012095 16.20908015294055 2780876.1263280716 3.453507347168396 0.169602847481901
0.2484169914001294 15.866175443057186 2282218.8400614825 3.6355844344676824 0.1719789223955995
0.2586987972624217 15.56278856672547 1881455.091209915 3.824840010830053 0.17437581413470257
0.2692647256504943 15.29352235064685 1558014.0385768176 4.020384448841546 0.17676792931702118
0.2801192577551819 15.053783310612658 1295429.8083706775 4.222539001731118 0.1791470507435357
0.2912507072446898 14.839714208636133 1081055.0478589262 4.432674151230773 0.18154997917428853
0.3026746866783909 14.648290850728847 905428.9932570681 4.651137565819904 0.1839805679765082
0.3143802036935098 14.476786943300578 760868.7822084753 4.878296535585939 0.1864404677324548
0.32636549617859095 14.323052692278623 641493.2822946467 5.111478674536066 0.18887025119091264
0.33863666131024606 14.184856367313882 542391.4104354611 5.353852567314223 0.19132156217634383
0.351189436303053 14.060511935107556 459920.41671253357 5.605926218968011 0.1938028531189712
0.3640250371790529 13.948818877900703 391061.28831961425 5.868112260616688 0.19631971535046813
0.3771539644788429 13.848064707838551 333306.8006957605 6.137336397941234 0.19881277765586844
0.3905591036729941 13.75741517147751 284799.6174942682 6.416961231619965 0.20133543052042183
0.4042497879887363 13.675886142075987 243933.6416142643 6.7078269512780855 0.20389267286002236
0.4182231313853091 13.6024485709811 209372.52568412063 7.010076621763829 0.20647676237151721
0.4324827099803316 13.536430961198773 180086.5137232672 7.320244952297392 0.20903672151764432
0.44702464190431396 13.477040960953682 155199.83571352778 7.642959635347933 0.21164113686574412
0.46185175341643203 13.423767660811574 134027.24642733196 7.978754670549811 0.21429003029735197
0.47696149095667967 13.37612392103432 115957.30039914657 8.325768473329067 0.21694685626751686
0.49235214141572636 13.333508099052723 100494.71947075838 8.683817627373958 0.21960005223855122
0.5080242574834456 13.295397658248692 87241.02739380182 9.056472038209206 0.22230140495560471
0.523977164367062 13.261565136511077 75870.69858268242 9.444337023227472 0.22505372917160987
0.5402147962121518 13.231553699269567 66077.85444533027 9.842097783456746 0.22778130399552593
0.5567235156742802 13.205011008295239 57640.05771841714 10.255726733023169 0.2305542621316538
0.5735115972651552 13.1816669997754 50352.35578166468 10.686285903039066 0.2333778242354988
0.5905757538210936 13.161343021198862 44051.028645783335 11.130910316003892 0.2362067158375708
0.6079065562430451 13.143647868466676 38592.196489006215 11.59019233843766 0.23905194927004395
0.6255150898873683 13.128329355524523 33852.204258932004 12.06832589663858 0.24195652967490106
0.6433869611169079 13.115310359814385 29738.64635769508 12.565126684129991 0.24491053073841976
0.6615274014983541 13.104443636440568 26155.482354258642 13.075299759178717 0.24784222849876192
0.6799290146775195 13.095231436900029 23025.68017721813 13.606438714264948 0.2508325625188727
0.698578871046901 13.08775411875887 20300.719980294278 14.159450179719967 0.2538833350928004
0.7174991931257312 13.08192713857337 17918.104302514206 14.728473604539667 0.2569318310060503
0.7366737803009348 13.077528036809111 15832.935044594877 15.318816061091765 0.26002721996343503
0.7560788341480378 13.074185328123265 14003.988786720576 15.933424525281538 0.2631884896387744
0.7757302835195312 13.07204084745057 12401.71221714855 16.569549295413587 0.26637645016812356
0.795626784801996 13.071092789800478 10994.22022293139 17.225992628776456 0.2695764392719389
0.8157471125188007 13.070739476901034 9755.355898857897 17.909496903539413 0.2728484086383026
0.8360931995630031 13.071367962863228 8665.557779388317 18.620959024621598 0.27619275572657404
0.8566514325381875 13.072583109544803 7704.516595087282 19.351443483137718 0.2795250112705384
0.8774416665582203 13.07450854214357 6857.094685484956 20.1119763570289 0.2829280371120516
0.8984191767072527 13.076855446989597 6108.568412303098 20.902466530913962 0.286394512240745
0.9196163471554063 13.079784749493971 5446.827979692584 21.712316076339295 0.28983904483148715
0.9410008822501751 13.08301847208005 4861.0135321892785 22.572260196303365 0.2934966446463732
0.9522945072420983 13.078213790091352 4534.841551656594 23.683271924641115 0.8016623638762325
0.9521765927484758 13.056916820096351 4498.337299330941 25.143784777115894 1.1878123749170488
0.9464445176840237 13.024113382841763 4537.0129381663055 26.99985439551566 1.569681595851487
0.9372153352172519 12.982338035649523 4636.158945425518 29.220088170850133 1.971487341089955
0.9254990011516839 12.933230683863409 4780.364127503344 31.85135275925703 2.406592429887098
0.9121263673149609 12.879395794500294 4961.197474760871 35.02325962177418 2.97250650420981
0.8967126013849912 12.818364268986196 5186.9273683763995 38.549343684434604 3.1885599390924826
0.8786514699010395 12.740096409062922 5447.666283157087 42.35679324180089 3.2126298290104214
0.859702909489021 12.646993930705992 5703.458188311633 46.30227671821996 3.2321406304086877
0.8408005239402315 12.540792076387932 5929.569251307685 50.277189014894596 3.248623986173989
0.8225958571536611 12.422826968613979 6103.223552109754 54.41295708632223 3.265133678228975
0.8054324869532015 12.293930704982232 6208.759061291683 58.70485671503437 3.281903420351581
0.7896194727951219 12.15511346841032 6234.879232847526 63.15105585398564 3.2992015872898723
0.7753556086895592 12.00757279692883 6174.305545774211 67.65168412392441 3.316667500907136
0.7628022569455815 11.852174349520052 6024.487785435786 72.31995883012975 3.3347512236100445
0.7520629933226682 11.690431915322216 5791.189336351409 77.15782089582335 3.3534569766749867
0.7432025871391866 11.523647473567738 5484.321246357338 82.16649314248541 3.3727858461360896
0.7362622605857839 11.353406736409388 5117.580155887586 87.31129211738364 3.392594546222245
0.7312177657607236 11.181054698687788 4709.551667695372 92.59352995896465 3.4128837164327437
0.7280584739694047 11.008346653079863 4277.466281189704 98.06509478928302 3.4338569527091423
0.7267508600939617 10.836943378574269 3838.7289301808337 103.72942870024949 3.4555232222312284
0.7271245690455753 10.667303677028489 3408.4523869969785 109.5908878804774 3.4778948428193703
0.7292038379020098 10.50159926279465 2997.8415825376755 115.64749246175448 3.5009583504717128
0.7328457917583681 10.340522481343015 2615.973288473937 121.86190587803559 3.5245577995283615
0.7379580267293256 10.184961774009196 2267.760084772023 128.29750800190456 3.5489414673038064
0.7444227472494657 10.035556260787518 1955.714395586918 134.96077972358685 3.5741287977807605
0.7521357641915078 9.89267394494039 1679.7722178730169 141.85897964896057 3.600141931831733
0.7609933348191252 9.756667078267393 1438.8812603087258 149.00011049422358 3.6270047631264544
0.7708774343688294 9.6275234614868 1230.2469844037619 156.39295956629522 3.6547420211553274
0.7816934366342408 9.505557630609577 1051.049375742422 164.04717718033353 3.683379636022057
0.793333082423762 9.390199517112089 897.8260719022896 171.95729775712252 3.712893139337656
0.8057354221492492 9.281578119133458 767.3467167576777 180.1404417386815 3.7433416206074064
0.8187814189128122 9.17932129992135 656.5397484952831 188.62279910513655 3.774820055631947
0.8323993044388621 9.083300366373301 562.723667940951 197.41674673018665 3.807355145113475
0.8464915650810877 8.993026034223 483.2738284155936 206.53605215903286 3.840996964151784
0.8610437622305106 8.908152801582604 415.85858289517813 215.99524197032892 3.8757951172167995
0.8759312562876268 8.828391592912016 358.76206136117304 225.80980098337687 3.9117904394154692
0.8911095925793604 8.753358235689248 310.3077468932278 235.99652293101508 3.949033687802595
0.9065267703823776 8.682747785930255 269.09162942453094 246.57340445803433 3.987588058602033
0.922118215169528 8.616243571165398 234.01692811202773 257.55951163028743 4.027502954420442
0.9378351432230818 8.553464419969655 204.07473528517176 268.97560322248216 4.068846351175872
0.9536360510764734 8.494063870638197 178.43071849181567 280.84360679424435 4.111688568660166
0.9694664165939769 8.437790213550835 156.12970715511037 293.1870874528519 4.156093592807603
0.9852923819330193 8.38441855971082 137.2925205183735 306.03155680348783 4.202153097124887
1.0010565654256258 8.333643376484 121.30686997671742 319.38459207302486 4.249849640029938
1.0167462460599537 8.285235598851527 107.02654969173032 333.280267333355 4.299315302065823
1.0323025943317197 8.238917068390524 95.05373486739984 347.75988465062125 4.350665776528844
1.0477077854589272 8.194553162107237 84.45343081555367 362.8564171880726 4.404014438551548
1.0629147865033215 8.151904542026037 75.24387049900206 378.60586643464535 4.459465256546177
1.077910033739484 8.110792055543078 67.18952469504164 395.04637626316304 4.517131770877342
1.0926484644370742 8.071013848984354 60.0553453125733 412.17905086572716 4.576977896593761
1.1071107192458816 8.032466223469859 53.97590232527996 430.06799863938693 4.6392139447853005
1.1212816976667441 7.994888911523003 48.53781313448222 448.7761693146861 4.704050132588088
1.1351131240136814 7.95833633018244 43.75264528763862 468.34950297393533 4.771611142400377
1.1485785368570722 7.922408621005853 39.53124785600258 488.77915801911394 4.841802192431192
1.161693291781534 7.887298490158296 35.789572764212735 510.1874288195691 4.915058305989418
1.174397212169697 7.852623792358687 32.470808272186154 532.6160685005144 4.991475431436656
1.1866897966552175 7.818393701102601 29.51634869662681 556.0897999317835 5.071077309458211
1.198537209779116 7.784549455431207 26.89577682145964 580.7418601752056 5.154321825600977
1.2099393362888202 7.750862332341049 24.551984602021033 606.5635298957228 5.2410779892007735
1.2208734340212692 7.7174371182109045 22.4324097641388 633.7152425572551 5.331906374221409
1.2313054747931373 7.684128786224891 20.586710347204686 662.203440969719 5.426703598419487
1.2412275383161588 7.65077223718077 18.90457313633888 692.1939189057151 5.526053600569897
1.2506353422632874 7.617309369285115 17.372867397738073 723.7133259475135 5.62990384329943
1.259499327908913 7.583821598316707 16.01727579920155 756.9198194169428 5.73876436837503
1.2678201514421945 7.550131584995149 14.809386812844672 791.926207680457 5.852945985048179
1.2755618553887114 7.5162555830429225 13.706773350584434 828.8101035205641 5.972567121088887
1.282745329850772 7.482061387611529 12.707344607029503 867.7542248114036 6.098197847208566
1.2893316255219993 7.447515484085886 11.803394187553698 908.9009857769857 6.230199676258376
1.2953132770821318 7.412674767105389 10.985941016556186 952.4070640243009 6.368975012019525
1.3006789146088256 7.3774305734879135 10.23454157509763 998.4381695673275 6.514936418303161
1.3054369794550371 7.3417236597045905 9.561351978669085 1047.1867591441999 6.6685788769446415
1.309570966905377 7.305588956143535 8.957957897737453 1098.8730839585512 6.830488811274573
1.3130618943661385 7.2689154926582455 8.399822634798037 1153.726589877917 7.00124829400902
1.3159044831492301 7.231847177160658 7.887463295391892 1211.9997745859507 7.181492863865455
1.3181192062466096 7.194237009846486 7.4330634628389465 1273.9671760963981 7.3718963061028795
1.3196676370586615 7.156152907429232 7.012963287176531 1339.9227746256622 7.573162891120206
1.3205542635298977 7.117463476448626 6.628961754873353 1410.2160826182044 7.786193065633053
1.3207939343971886 7.078245617950477 6.28031999267749 1485.221010487332 8.011902909509386
