M[M_sun], R[km], Lambda[1], P_c[MeV/fm^3], rho_c[fm^-3]
0.23841724892012095 16.20908015294055 2780876.1263280716 3.453507347168396 0.169602847481901
0.24841552339836892 15.866180338184977 2282221.020055532 3.63556302587435 0.17197865007019553
0.25869610422043404 15.562967114176823 1881602.4498393198 3.824795973195778 0.17437527541780215
0.269261170730289 15.293559368097634 1558175.731600232 4.020313500270929 0.17676706139587411
0.28011369422984483 15.053937130913928 1295476.94414955 4.222441844832698 0.17914591464434418
0.29124228288501025 14.83993714816106 1081230.130632995 4.432549446418774 0.18154857599327187
0.3026661898851248 14.648466993982597 905602.4880068381 4.650983902922794 0.18397890372687212
0.3143692268774603 14.476981720160762 761003.4570780009 4.878112446974911 0.18643854950894084
0.32635344842986164 14.323204134576265 641608.3523278519 5.111253421173872 0.18886790402617742
0.33862326939634846 14.184993954240339 542536.4172851375 5.353592633652296 0.19131896852914876
0.35117571907315953 14.060630568853291 460000.1549376312 5.605629976321854 0.1938000059177791
0.3640105851315667 13.948837499657621 391123.8563055519 5.8677779613884224 0.19631661968150996
0.3771336324941939 13.848222218126551 333402.1369855644 6.136946653919148 0.19880916855848263
0.39053863099855474 13.757552869569627 284865.8272668033 6.416528405420723 0.20133157277391522
0.4042258932679077 13.67595325674811 243979.32597413674 6.707349103700613 0.20388858749274616
0.4181999106782909 13.60257108353261 209425.2635781176 7.009529898577853 0.20647208815086943
0.43245623744668843 13.536483067372824 180130.5072820708 7.319647542964017 0.20903179688356638
0.44699695242027193 13.477180338902475 155257.20188446817 7.642309200849472 0.21163596557957318
0.46182133279867693 13.423926974660885 134068.02364397494 7.978048780530199 0.2142846258237513
0.47692665922627336 13.376233973921936 115987.95677086293 8.32497399642289 0.21694077355017213
0.4923174793500328 13.3335610848681 100524.99631583177 8.68296098508676 0.21959374975545795
0.5079865816417795 13.295456878014804 87273.60401926868 9.055550451309283 0.22229486016747793
0.5239380535521564 13.26163724940642 75893.71408107548 9.443347456269555 0.22504694338932346
0.5401708457300254 13.231584564366432 66098.75720256742 9.840996141625407 0.22777374967940284
0.5566755565277571 13.205063907970834 57658.01725171245 10.254548959872277 0.23054647916231075
0.5734608311941066 13.181751053066588 50372.38719410185 10.685028610549319 0.23336982480033086
0.5905271363816624 13.161437744937427 44067.17567149841 11.129518610370125 0.23619786120821373
0.6078526232242116 13.143714760817133 38607.28443088025 11.588711730404157 0.2390428442513188
0.6254558722505522 13.12841662114267 33867.69280357633 12.066752161821693 0.24194717217298112
0.6433275412221213 13.115322851690868 29746.5060010904 12.563392620048614 0.24490021991108296
0.6614636350320151 13.10442404151376 26163.236946199017 13.073461606699762 0.24783168540621853
0.6798633525113078 13.095266285936654 23036.955378875053 13.604491734371537 0.25082178735574273
0.6985104596028848 13.087733043737828 20309.596083543154 14.157389210559094 0.25387229362106095
0.7174259719571248 13.08195142644758 17926.455773606303 14.726214582131364 0.2569197284804261
0.7365946682896362 13.077413440726495 15838.645286435743 15.31642946233771 0.2600148370785352
0.7560005416686649 13.074177854150697 14011.635357929192 15.930904223252243 0.26317585906098734
0.7756465020457112 13.072034347762783 12407.895229921543 16.56679467162832 0.2663626452790311
0.7955371535629718 13.070948849240361 10999.136351966135 17.223088680975213 0.2695623635628633
0.8156600343761556 13.070734930746422 9759.842062151025 17.906436244593124 0.27283402149732644
0.8360006326898556 13.071364760565805 8670.271048941178 18.61762177854502 0.27617706844137874
0.8565568738205207 13.07261529205953 7708.98055181034 19.347930653620224 0.27950898947489883
0.8773425721886657 13.074496888102939 6860.740265275491 20.10827920410791 0.2829117230358626
0.8983177237409252 13.076820108167848 6111.680509171787 20.89991883093566 0.286387082178621
0.9195020424435164 13.079752824290866 5450.140070068327 21.71761399537302 0.2898858736838153
0.9408675137104776 13.082843638329381 4863.8618203221395 22.56432669041555 0.2934307527382815
0.9624207879159064 13.086284957072007 4344.864744054368 23.445859571444572 0.2970590488039558
0.984159266977842 13.090001754211322 3884.5724599747373 24.362846934989733 0.30076626189294825
1.0060491444904978 13.093814421068531 3476.0927445812085 25.306496592967598 0.30446702071407233
1.0280978784889052 13.097634731869329 3113.40842473691 26.28899822068181 0.30825432410560977
1.0503068444645955 13.101641156474921 2790.676975462979 27.311852218717778 0.312130035765621
1.072622813245448 13.10532513196474 2503.7182810346317 28.371588177278657 0.31606274729317013
1.0950747558673317 13.108984579596234 2248.0133106111025 29.467828730504852 0.3200428479749735
1.1176371371389833 13.112489373249508 2020.0596661776235 30.609093051392627 0.32411200908973886
1.1403200141521306 13.115856611343743 1816.7173760943995 31.797233734795924 0.32827113938008834
1.1630813750639686 13.118896915799121 1635.1989912092681 33.02688067292863 0.3324829254055382
1.185914856447091 13.121554018670553 1472.9484366943348 34.30203677025568 0.33676694134727536
1.2088189046119073 13.123927372501196 1327.8777444103694 35.62969431893042 0.3411566723640645
1.2317789421155512 13.12580502380809 1197.9434397646203 37.011874006109444 0.34565097621098984
1.2547763593171433 13.127277257064042 1081.6968143667307 38.445155166191455 0.3502082554417633
1.2777939087011496 13.128164577147936 977.377874724004 39.93115554741685 0.35484268437476885
1.3008069039725947 13.128500544471997 883.8821652482604 41.47862064796362 0.35959433012227965
1.3238260183741384 13.128277672152695 799.8495402669707 43.090011065491595 0.3644653477982831
1.3468346225437517 13.127411314221517 724.4732567850302 44.76791739252406 0.36945754678438913
1.3698006008362045 13.125880735040948 656.6409823559497 46.50491845839408 0.3745055692337033
1.3927211039641576 13.123675454883823 595.6221215157882 48.31331755672561 0.379680271910981
1.4155497320026813 13.120672617231394 540.729474597361 50.19718948778555 0.38499039255920786
1.4383188197914765 13.11693980333149 491.2294557458555 52.15972964101989 0.3904387379226706
1.4609575153359964 13.112260756955273 446.6147118893776 54.20432499010544 0.3960268109120236
1.4834955664969616 13.106807202916267 406.3630992841069 56.32981647662706 0.40172590047932305
1.5058791273318681 13.100383453028373 370.0154169449632 58.54026738569333 0.4075570881442122
1.5281234772025327 13.093104451150843 337.17221884570466 60.8446384809964 0.413549088342568
1.550172652087548 13.084815924042667 307.4959886475922 63.24718668206394 0.4197049776429521
1.5720377686257327 13.075536329884077 280.6266605596502 65.75243318380461 0.4260255386356127
1.593698149593847 13.065297737257943 256.32014067157684 68.36524856983901 0.4325165038169101
1.6151072847191832 13.05399011336075 234.306803806496 71.0906957071001 0.4391927148243521
1.6362838785750335 13.041593940795039 214.33768039587596 73.93422093014773 0.4460612738658945
1.6571930597375124 13.028165895508547 196.23551218795959 76.89917397981498 0.4531147167780604
1.6777989416404038 13.013469025447824 179.79307103920416 79.99212364148019 0.4603577281275799
1.698083665712084 12.99761535251641 164.86591919445854 83.2225104089854 0.46782238594165787
1.7180430607616841 12.980635102236507 151.3056985829208 86.59741245729046 0.4755190941936615
1.737673471504281 12.962501666290724 138.96280979388283 90.1243631718336 0.4834525896734809
1.756921408039556 12.943072427703287 127.73388500929454 93.81142875906407 0.4916305785337702
1.7757763903718873 12.922434927165575 117.51594644365213 97.6672818468932 0.5000723305657342
1.7942063782715099 12.90040299356267 108.20184615775139 101.70117761876675 0.508793740062093
1.8122129563244902 12.877088893085727 99.70626260671474 105.92301363287451 0.5178019622587112
1.8297745838730397 12.852456099138827 91.95472022620343 110.34341994197963 0.5271098332904629
1.8468628336283854 12.82657890583849 84.88888593107914 114.97382650879379 0.5367411358589551
1.8634541472689112 12.799224353862988 78.4289984362348 119.82649957034678 0.546715516310395
1.8795300325207893 12.770531339859975 72.52398471492228 124.91178029614723 0.5570308428822337
1.8950859781253135 12.740461353923404 67.12064345430558 130.24188857932057 0.567704229444091
1.9100886264248782 12.708851869626798 62.17299678833691 135.8354438882646 0.5787773704428539
1.9245133343927103 12.675904725096531 57.65101483836895 141.70879345241948 0.590268614212187
1.9383696475480354 12.641604454864764 53.50706561253907 147.8795580872377 0.6021965604507314
1.951598311521835 12.605733628939467 49.70542988944822 154.36671431854435 0.6145966535080538
1.9641906828693692 12.568252941673808 46.214766967760106 161.1900507619377 0.6274983126399993
1.9761592519800386 12.529569553469997 43.018231162515804 168.3573611296513 0.6408690050631195
1.9874385954302292 12.489207197588732 40.08060462380395 175.90583417741166 0.6547999908812664
1.9980753436780743 12.447502292190482 37.37980856386365 183.8612607519476 0.6693307773777268
2.0079806025315086 12.404067628422876 34.895832617351175 192.24522747958284 0.6844640789480422
2.0171945518949825 12.35935443849472 32.61582410273852 201.07846147225825 0.7002216828905756
2.0256782394321493 12.313025316081953 30.51424506219914 210.40740978099691 0.7166989514865802
2.033407300283033 12.265191348852833 28.582933704853428 220.2561080645454 0.7338896860160212
2.0403851287088433 12.215865490377633 26.800014616541045 230.65856458796253 0.7518469715939363
2.0465956534083185 12.165044013599843 25.158785134461436 241.66774703659792 0.770665936003484
2.0520355092589337 12.112740684172858 23.644317116373333 253.30306686567778 0.7903052108753045
2.056638597984787 12.058869767793093 22.249533459444365 265.6384272569696 0.8109313519345344
2.0604648534086603 12.003538296623084 20.961593636843567 278.69545907633193 0.8325028321982572
2.0634696277773723 11.946793334393528 19.773360518099384 292.55511157322405 0.8551668324819782
2.065637560621361 11.88855145202555 18.67733749366413 307.258514643441 0.8789458880744726
2.066983335454085 11.828958801648447 17.665937234829144 322.8798201790311 0.9039282313366616
2.067459278252589 11.767817856537427 16.731563886946734 339.49505981896795 0.9302296747583367
