M[M_sun], R[km], Lambda[1], P_c[MeV/fm^3], rho_c[fm^-3]
0.23841724892012095 16.20908015294055 2780876.1263280716 3.453507347168396 0.169602847481901
0.2484133087688237 15.86628725914001 2282406.684295644 3.6355182476860946 0.17197808047470567
0.2586912573908848 15.563027142169679 1881684.3890323087 3.8247038652922254 0.17437414865236336
0.2692535142703815 15.293722610722977 1558317.4817550508 4.020165108178694 0.17676524610017774
0.28010288755181617 15.054142025560656 1295744.7519718728 4.22223863933251 0.17914353847128564
0.2912305081209184 14.840035801996278 1081395.7109193595 4.432288627015386 0.18154564124817468
0.30264921911360587 14.648712941260527 905794.1002292467 4.650662521537863 0.18397542299819286
0.31434669691626166 14.477312950061583 761251.9425693302 4.877727435409073 0.18643453764620468
0.32632996930307345 14.323494842154082 641767.8610801942 5.1107823221603725 0.18886299512279636
0.3385959549907555 14.18529600323618 542685.8253241284 5.353049009508158 0.19131354418654473
0.3511436958162124 14.06100645930215 460192.6492307647 5.605010422249413 0.19379405135615033
0.3639766903132023 13.949161731371252 391292.1398361141 5.867078823962212 0.19631014554742635
0.37709643992352465 13.848529965278372 333557.38523265807 6.136131573310071 0.1988016207703736
0.39049516016189195 13.757839215018402 285012.08386383794 6.415623235114506 0.2013235050608406
0.40417957634596857 13.67628332173127 244114.73348111115 6.706349789837118 0.20388004383918584
0.4181473469309774 13.602808283443599 209537.14006701045 7.008386562808917 0.20646231317919161
0.4324033625938812 13.536853292919544 180241.82045890603 7.318398221561312 0.20902149833212044
0.4469399154279028 13.477520571008586 153554.10751291603 7.640949004174505 0.2116251513219167
0.4617559344399629 13.424159187509748 134152.66584652915 7.976572628019262 0.21427332402452726
0.4768574893943545 13.376426585628554 116064.78258772622 8.32331261593117 0.21692805359839681
0.4922418373963998 13.333732494336527 100590.69394090817 8.681169622572824 0.21958057035475972
0.5079038266730018 13.295651482725049 87337.20962899287 9.05362329702412 0.2222811741911635
0.5238518579353835 13.26176144318157 75946.24105581151 9.441278164836485 0.2250327535853495
0.5400796204779665 13.231725869279943 66151.43197574164 9.838692523965392 0.22775795302432364
0.5565779088410133 13.205217724093602 57704.87860892067 10.252086166443382 0.23053020451235728
0.5733545225721536 13.181846968647248 50413.91778431666 10.68239955914866 0.23335309764542916
0.5904147856839931 13.161478967181662 44106.24671514087 11.126608539954878 0.2361793460895673
0.6077402251320474 13.14378363795689 38640.12574273334 11.585615789236158 0.23902380572007442
0.6253358913339853 13.128531867719314 33898.97713648829 12.063461519516359 0.2419276058576403
0.6432025595418583 13.115549918975237 29775.515619369133 12.559766789782575 0.24487866055221783
0.6613254159261492 13.104444408106946 26187.54767978703 13.069618163733672 0.24780964056753363
0.6797223447465979 13.09531471400775 23060.011679845007 13.600420772860332 0.25079925744953907
0.6983621325904379 13.087865405238325 20330.615784513346 14.15307994082565 0.253849207065045
0.7172777058638686 13.081985760308287 17944.137239946755 14.721491279409332 0.25689442377693394
0.7364336426816108 13.077479403429964 15855.32166050139 15.31143945324065 0.2599889463802379
0.7558358268752079 13.074205136433939 14025.40470962446 15.925634701196811 0.26314945067522716
0.7754737964683964 13.07207701913819 12421.05570533467 16.561035316982768 0.2663337820808872
0.7953530812523649 13.070991392863299 11011.671830562796 17.217017165912868 0.2695329343563089
0.8154703898607125 13.070720215135267 9771.255161172208 17.899480238709362 0.2727900167050815
0.8358054802261721 13.071288901368211 8679.5382193456 18.608587024699133 0.2760936254181935
0.8546636287433361 13.071271639093245 7786.136352618741 19.3768196204977 0.3750059938190113
0.8691380107103002 13.065767022478056 7144.650288605365 20.23151320138121 0.4877141658071041
0.8805703046785085 13.053823118683313 6646.249456372983 21.179231221736128 0.5929584441164725
0.889644033385336 13.035452619600388 6241.388912926165 22.23495338284327 0.692781492142531
0.8968605730538317 13.010889657170848 5899.788027461314 23.38572955480097 0.7869321228928629
0.9027226210961102 12.980663584597096 5598.945124575392 24.63192407861516 0.8754624467377005
0.9076372739905232 12.945016325944927 5323.383051880006 25.975328844157442 0.9553586356713099
0.9118853972875911 12.90430749899648 5063.623269022513 27.406545854870323 1.0293727467623666
0.9156936062263022 12.85912341119055 4814.63597917038 28.931214370615145 1.1012792334342816
0.9192315577812389 12.809741103797242 4572.540633663815 30.552785309848797 1.1709001708399251
0.922635661749775 12.756376555508362 4334.415701889959 32.26423273099494 1.2366969889355552
0.9260096570042029 12.699419984700937 4100.278083594399 34.06284716120521 1.2998283505598267
0.9294873519336618 12.639258510850212 3869.073900867789 35.960944841020776 1.3636227739942581
0.9331503077354616 12.576143038955488 3640.1144743545906 37.96183334395317 1.4290109762022198
0.9370289395753761 12.510473549617227 3415.2791522025855 40.054944994715605 1.4966604615941
0.9411675899685292 12.4426488445654 3195.3812740318394 42.24752661328356 1.570199320665131
0.945565607114776 12.372998777924101 2982.0409922965396 44.556575756094205 1.6541561384650736
0.9501943940023571 12.301819340278971 2776.8338718462896 46.98856837462354 1.7484633803544527
0.9550497432123402 12.229443505766868 2580.5002651842933 49.5413536626059 1.8460475102632201
0.960253887793361 12.155182118890313 2390.6406698676587 52.194254266994285 1.8950778292561892
0.9660911888569572 12.078769985270858 2204.4340255364896 54.95313236708616 1.919539174625741
0.9727290046474317 12.000413795507933 2021.6071328067774 57.81280651127449 1.9306092737848557
0.9802897041011487 11.921152382854196 1844.2767794545475 60.77028814691988 1.9417430369192692
0.9888398212502175 11.842010567640255 1673.9359005271624 63.7975910348216 1.9528645325543985
0.9983437100015831 11.763306384603673 1512.7273820363507 66.923357947102 1.964193818489479
1.008811802018275 11.685636559822845 1361.6162440550693 70.15714230613528 1.9757996508659355
1.0202135883529062 11.609508425728626 1221.2646984986893 73.50166610014516 1.9877113944438225
1.0325184973436272 11.535152016751361 1092.199951848728 76.95999416880339 1.999956860756399
1.045680739208122 11.463032090572632 974.3262079567108 80.52413728639414 2.0125176795269333
1.0596814296287989 11.393307149555998 867.4097183757074 84.19454699482029 2.025407104119767
1.074432142151722 11.325869282298525 770.9931553765732 87.99250153817714 2.0387086276476407
1.089921649507944 11.261086369988517 684.4143151899963 91.92217011797139 2.052435119763888
1.1060598402755648 11.198923446383473 607.0888552967808 95.9880768987735 2.066598925034514
1.1228280644798 11.13938601034337 538.2138857901668 100.1951270793206 2.0812121426009136
1.1401547066327546 11.082386594628865 477.0217710895845 104.54866397519831 2.09628843059476
1.1579893536831427 11.027945546322359 422.77377179646464 109.05430635693656 2.1118470099377546
1.1762766988271167 10.975955319670144 374.8337598502249 113.7133121364031 2.1278869126344135
1.194975737828753 10.926389006857049 332.47801430103266 118.53084290428602 2.1444215889454363
1.214022945482821 10.879087077477953 295.10500654145204 123.52218928513065 2.1614946885606847
1.2333750619023025 10.833917324845512 262.13741706909036 128.694859860036 2.1791332271484634
1.2529786330596189 10.79077017144845 233.03904644880893 134.05678582263616 2.1973614224407974
1.272804551974782 10.749588159355454 207.40863398914502 139.61639136500952 2.216198024231632
1.2927902401445426 10.710079722526663 184.79466781189126 145.38277433603332 2.235668702439085
1.3128820285083063 10.672260327770093 164.86214760422814 151.3656762722191 2.2558052835974065
1.3330541846779684 10.635879452139065 147.24699054940942 157.5754071980072 2.276629770660148
1.353252548369146 10.600917012594497 131.70303327470123 164.0231521953795 2.2981773606093316
1.373464077725637 10.567152740065973 117.94078637260306 170.72072687991104 2.3204816869102762
1.3936287393045481 10.53454030155944 105.76910850064196 177.68079655141113 2.343572987747685
1.413702027347769 10.502967460153496 94.99272551761152 184.91151397267387 2.3674764018119903
1.4336424080743941 10.472126914444274 85.43522881391837 192.42345174419722 2.392205075414715
1.4534418741232518 10.442156428591987 76.95299337101741 200.23923599211005 2.4178411350202316
1.4730457733836004 10.4128813156153 69.41424215304436 208.37560201026946 2.444421504880873
1.492415440473018 10.384020976648923 62.70787821011625 216.8501593147373 2.4719996763452126
1.51155227488762 10.355633332284944 56.729376025545406 225.68207055619098 2.5006276941459493
1.530383952741801 10.327622816992424 51.402164135767926 234.89125219236837 2.5303569086627347
1.5488939415829583 10.299811830757822 46.643923036147854 244.47137109481923 2.5611416979005788
1.5670598852096225 10.272209256533724 42.389263183459505 254.47196145460393 2.5931442553374087
1.5848511579297038 10.244636939764314 38.58012783716281 264.91813303595904 2.6264358680685165
1.6022438330334243 10.21704464335082 35.1641867829128 275.8269677435673 2.6610461368228657
1.6191902190354732 10.189379058264668 32.10153328218494 287.2084006808116 2.6969844055958
1.6356808853505753 10.16156819137962 29.347692947304054 299.1194885614635 2.7344329409671326
1.6517098443084286 10.133516016570013 26.868864392863813 311.5758425144221 2.773412231798005
1.6672248651072765 10.105143010402692 24.636262262127968 324.60294632055934 2.81397989733092
1.6821978655116863 10.076416911214215 22.624733639822278 338.2627074243515 2.856326621350822
1.696624020115068 10.047241606768983 20.806884216173952 352.54979627465957 2.9003823844083874
1.710481075364121 10.017613693531704 19.16386706782432 367.5542960299085 2.946442643804847
1.7237429355957485 9.987475661727217 17.678295290232885 383.2699813166251 2.994415475872494
1.7363931994267452 9.956719720252066 16.330544492352008 399.789249214919 3.044606634342089
1.7484031457614082 9.92533976950075 15.109773789290307 417.12875929038375 3.096998385437401
1.759756592050821 9.893246737867338 14.0007732429233 435.3625888253578 3.1518019416719243
1.7704455177477185 9.860473104004523 12.992447731642828 454.55514113423135 3.209189024363141
1.780449316648741 9.82693686319633 12.075171861974262 474.742572944592 3.269197106767098
1.7897401380417208 9.792558030299736 11.240533333509493 496.0187200460147 3.332094967395476
1.79831352904684 9.75741460040657 10.479272743775647 518.4578091350072 3.3980563780866975
1.8061436915567584 9.721391452155512 9.785532813143579 542.1396037850604 3.4672678514215747
1.8132368321633918 9.684480908099495 9.152869068724263 567.1502118872444 3.5399287652437605
1.8195700431816588 9.646634819958296 8.57334964634959 593.5827213209926 3.6162484656529843
1.8251218516853864 9.607878997493259 8.03452578716064 621.551298555687 3.696510324681149
1.829881731285691 9.568164030148038 7.560103209062909 651.1717112652047 3.7809829978982097
1.8338470871320873 9.527455348939215 7.117374036349801 682.5710438226087 3.869959378150902
1.8370183190174285 9.485838409744819 6.711250268718915 715.8861164362503 3.963744765395781
1.8393684416446272 9.443188226813884 6.340250268171545 751.2656139342184 4.062670687909591
1.840890885222695 9.399544816096295 6.0002100627214245 788.8834773666631 4.1671474741214825
1.841594155975026 9.354931924892886 5.688003847399118 828.9260153154455 4.277594846852726
