M[M_sun], R[km], Lambda[1], P_c[MeV/fm^3], rho_c[fm^-3]
0.23841724892012095 16.20908015294055 2780876.1263280716 3.453507347168396 0.169602847481901
0.24841620159554775 15.86618666373357 2282023.062657142 3.6355804653786508 0.1719788719072859
0.2586980477345929 15.56286012044315 1881550.5826480158 3.8248318463575623 0.17437571425787254
0.26926381583807973 15.2935136967816 1558062.0644474095 4.020371295099213 0.17676776840594102
0.28011972775916316 15.053768771117163 1295377.3814973421 4.222520988952309 0.17914684011203372
0.2912498386444529 14.839733794165003 1060367.2902757898 4.432651031028027 0.18154971902530892
0.3026723318498625 14.64834566856025 905469.0485653817 4.651109076718156 0.1839802594246189
0.31437592868476205 14.476886268295582 760902.8431676433 4.8782624054563595 0.18644011209276187
0.3263626576625988 14.323125016554048 641484.0594255396 5.111436912288452 0.18886981602371286
0.3386341794613774 14.184856603971465 542407.321300238 5.353804375159357 0.19132108130962436
0.3511869011981187 14.060607812561134 459959.76316822786 5.605871294911635 0.1938023252414329
0.36402285015785907 13.94873705822722 391069.15996240114 5.868050280616213 0.196319141404891
0.37714648869383194 13.848194268464267 333309.2681563109 6.137264138056316 0.1988121085167746
0.39055626505001984 13.757417837546452 284807.19959818956 6.416880983939562 0.20133471527904023
0.40424325447619974 13.675887657744546 240797.5508346968 6.707738356229425 0.20389191541490867
0.41821813405289976 13.602472953087807 209384.14087789212 7.009975256490648 0.20647589574711747
0.4324796157650087 13.536420804263427 180092.69268970322 7.320134189276448 0.2090358084630316
0.4470177054012558 13.477050492658678 155219.50683356408 7.642839040870473 0.21164017807811053
0.4618459462786335 13.423828984728464 132540.17825130053 7.978623793970497 0.2142890282729598
0.47695601303668606 13.376126902481241 115958.43127799802 8.325621171599177 0.21694572848799257
0.4923460982055873 13.333463759780493 100501.42173945201 8.683658799363899 0.21959888371014316
0.5080168505058014 13.295438387196848 87248.55431192767 9.056301168580953 0.222300191499213
0.5239683988086342 13.261608443218213 75876.11111984446 9.444153549135457 0.22505247103012319
0.5402081882544161 13.231546007480459 66081.07930459332 9.841893528929605 0.22777990335584097
0.556716927370451 13.205118285144932 57642.871251876924 10.25550836256636 0.23055281909436814
0.5734994583884399 13.181695649764926 50357.75319231161 10.686052788426434 0.23337634106014726
0.5905719367677552 13.161401472450638 44053.29778885132 11.130652278808881 0.23620507409403918
0.6078985126379612 13.143655413018777 38594.957604969066 11.589917817195948 0.23905026109802968
0.6255034589454876 13.12839210959724 33856.50850877414 12.068034108037573 0.24195479468602948
0.6433770251329318 13.115394435984049 29738.16462797922 12.564805167306794 0.24490861898412794
0.661516659103795 13.104449087631446 26154.30849762391 13.074958942378132 0.2478402736755848
0.6799181624367888 13.095242756568663 23028.761195811883 13.606077718740758 0.2508305646627698
0.6985686122432656 13.087757125337841 20302.865178116463 14.15906804832013 0.25388128785544617
0.7174872040576638 13.081893002672091 17919.13650616556 14.728054749639474 0.2569295870255817
0.7366593898266701 13.077399733783661 15832.300108558642 15.318373550831806 0.2600249239957501
0.7560650324514667 13.074173617207276 14005.980765462415 15.932957223548962 0.2631861477405357
0.7757149637634595 13.072049056120877 12318.258136608263 16.56903854471598 0.2663738905239456
0.7956098312069035 13.070977292391127 10921.556292568803 17.225454189986685 0.2695738294083055
0.8157301319859623 13.070756223466994 9756.172776041767 17.90892940685628 0.2728457410249138
0.8360768862962336 13.071374302552096 8666.277610706928 18.62034024138635 0.2761898470321408
0.8566358327675984 13.072528498221958 7705.014035901394 19.350792142410008 0.2795220405462322
0.8774238612844958 13.074498891568213 6857.606122374887 20.11129083813594 0.2829250121878227
0.898401291012674 13.076834621381678 6108.884032771213 20.903088061194744 0.2864006428261468
0.9195896580579281 13.07974134687322 5447.383822017326 21.721059218228252 0.2899006152610969
0.9409601697763483 13.082937716863437 4861.6357481781415 22.56794860259017 0.2934458127806403
0.9625128121583862 13.086324634454158 4342.80488975666 23.449667558386448 0.29707444380239834
0.984250533114228 13.090034911446264 3882.753563952483 24.366980069569248 0.30078297140413773
1.006152378999333 13.09379461526533 3474.3284947339253 25.31083840396462 0.3044840358612326
1.0281905841860166 13.097634852832067 3111.7830121665174 26.293559543725927 0.30827170476477067
1.0504009337212092 13.101509754038066 2789.1020754065507 27.31664494978419 0.31214782173255085
1.0727327456631677 13.10536985131902 2502.369185534939 28.376779361423292 0.3160820119312739
1.0951924925358967 13.109129506654195 2246.8673974005924 29.473280386751014 0.3200625625160838
1.1177483967005115 13.112509196896202 2018.993711106951 30.61481922413582 0.3241321249814924
1.1404359501869 13.115881812708633 1815.6357257159445 31.803249317186946 0.3282917439496308
1.1631919194435194 13.118908521589235 1634.3162149952216 33.03338572544021 0.3325052065078721
1.1860355697529381 13.121561633890252 1472.1284627177768 34.30886820324609 0.33678978228472944
1.2089374928797982 13.123889082579204 1327.1343778678809 35.63687081229747 0.341180108034593
1.2319081296458005 13.125837114020369 1197.2679690443272 37.01941487404701 0.3456749532517764
1.2549054969117681 13.127267948358728 1080.9877417053037 38.45329943510508 0.3502341510640624
1.2779247597986811 13.128208282288044 976.8345101457736 39.939711159898934 0.3548692804810868
1.3009378298149619 13.128487043085341 883.3641166062503 41.48761173779285 0.35962167621486
1.3239685770981309 13.12830786749599 799.416235823178 43.09946334571966 0.3644934866457459
1.3469735408608166 13.12746722306533 724.0676388217104 44.77785764091136 0.3694864348478433
1.3699363500024178 13.125905265750692 656.2757793285964 46.51563995147813 0.37453672772798513
1.392862003401212 13.123665687288328 595.2673453104873 48.32459184455456 0.3797123835477354
1.4156844748713053 13.12058341299186 540.4079945963305 50.20905007850153 0.38502351808441937
1.4384444320782406 13.116824207777247 490.9449293067377 52.172212186492125 0.3904729262475853
1.4610952505707284 13.112167726054222 446.34048205115374 54.217466932077215 0.3960620484581913
1.4836421879557236 13.106756644491151 406.0964876785519 56.34398013142399 0.40176387754853266
1.506029031940972 13.100320714020583 369.7784540851407 58.5551808580331 0.4075963617680019
1.5282697764668447 13.093060344755067 336.9568527276104 60.860348652121765 0.4135897413152151
1.5503294142116881 13.084821868320438 307.3055071776576 63.26374348509202 0.41974706957440233
1.572198124178592 13.07551002312535 280.44818270859196 65.76988942704062 0.42606909517134295
1.5938466437773249 13.065299798006377 256.1742086864893 68.38366098776288 0.43256171400031185
1.61526513048896 13.053918347172612 234.1461365312394 71.11012566615564 0.43923968389363033
1.6364365293271963 13.041502054832614 214.20167155379542 73.95473389928087 0.44611007297141686
1.6573415011252595 13.028084969420144 196.1197857758453 76.92126595238567 0.4531672722366914
1.6779452670123887 13.013337829163625 179.68014223596563 80.01545485184926 0.4604123271644642
1.6982299891654482 12.99748484610213 164.76241284853919 83.24716192228877 0.467879254394703
1.7182003599293671 12.980522135009398 151.19875906764153 86.62347188736008 0.4755783787788323
1.7377877201370253 12.962200962589042 138.87588105016255 90.15192423158808 0.48351438771507743
1.7570627076812546 12.942858538741655 127.64819255158 93.84059164376492 0.49169502966810225
1.7759093059596984 12.922151790737466 117.43297219556857 97.69815467435308 0.5001396933563618
1.794369499859574 12.900318417045327 108.1317336636357 101.73387721696673 0.5088642054751478
1.8123608617940405 12.876857070301046 99.6426022662207 105.9576652981019 0.5178756574571078
1.8299320660515583 12.852373763516528 91.90070337485407 110.38015820859569 0.5271869750925048
1.8469946896553326 12.826272596056755 84.8241695124068 115.01279684957875 0.5368220306925404
1.8635922353496168 12.799017370445338 78.37962348908512 119.86785931090591 0.5468004157771024
1.8796697274955598 12.770290158355413 72.47524740422928 124.95507875948358 0.5571176710976419
1.8952098456831818 12.740189254323194 67.08002003824268 130.28790484697097 0.5677955570186741
1.910224419840225 12.708653703327748 62.134540585873154 135.88437444062205 0.5788735048132273
1.9246307813915944 12.675589410204932 57.613190215300406 141.76085019734535 0.5903697685710129
1.93847449639495 12.64122810173873 53.470569933459444 147.93497012734957 0.6023031498960311
1.9516981979413062 12.605269856715948 49.67152796107384 154.42573037818465 0.6147091120781305
1.9643020158196187 12.568032960159996 46.19073390853837 161.25221291130129 0.627614488971522
1.9762608585675265 12.52923848649227 42.9939793436207 168.42365630090475 0.6409917812046783
1.9875319372653322 12.488823957264447 40.05116301961351 175.97657755553797 0.6549298801591061
1.998159223808741 12.446981430714706 37.354189690094046 183.93679493214836 0.669468295781865
2.008065991349147 12.403668193559673 34.87488110531958 192.32511348253175 0.6846069554647329
2.0172693817149225 12.358910654996139 32.59570804205575 201.16387466848875 0.7003732329517441
2.025762513959443 12.312674259271986 30.497579325175955 210.49878862307338 0.7168598232157021
2.0334821105882948 12.264680680295147 28.562498825044358 220.35305388809687 0.734057561560506
2.040451089781424 12.215423385619513 26.78439750588448 230.7624273060249 0.7520254952288714
2.0466499908756757 12.164520748700753 25.143379628716108 241.77818513050602 0.7708528043991222
2.0520726869186445 12.112200424578122 23.630530296971827 253.42155372362433 0.7905042854694656
2.0566771082843722 12.05828481678084 22.236501537003793 265.7646892532481 0.8111405348437275
2.0605013283156746 12.00301546737718 20.950266080697393 278.8311221561241 0.8327258584797745
2.063485669871684 11.946217105895835 19.763696022956285 292.69998418412035 0.8554018570463391
2.065656788212165 11.887995263902068 18.667482387332253 307.4144097262007 0.8791970810810422
2.066982332469563 11.828305457319308 17.656372256576812 323.04664857632145 0.9041934073804018
2.0674650180412146 11.767182275472345 16.721738907957384 339.6738143351381 0.9305101708925773
