M[M_sun], R[km], Lambda[1], P_c[MeV/fm^3], rho_c[fm^-3]
0.23841724892012095 16.20908015294055 2780876.1263280716 3.453507347168396 0.169602847481901
0.24841541629375524 15.866275913418137 2282148.3328009634 3.6355693906612183 0.17197873103269165
0.2586969457186064 15.562921701565573 1881536.813248377 3.824809065571831 0.1743754355781823
0.26926207456288187 15.293630482421657 1558109.745677793 4.020334593196517 0.17676731942779797
0.2801147989136064 15.053898355026666 1295444.336503851 4.222470729382953 0.17914625240434603
0.29124563194374603 14.839802912415403 1081173.9376896897 4.432586520808683 0.18154899315504205
0.3026676733167301 14.648427768812454 905561.4373853256 4.651029586350817 0.18397939850231818
0.31437184342665747 14.476937837828558 760965.5661946132 4.878167175719702 0.1864391197884631
0.32635724812569594 14.323160692623459 641536.8713692196 5.111320387812196 0.18886860182589227
0.33862688343448705 14.184913071211945 542458.1009742898 5.353669910370966 0.19131973960490378
0.35117918335854637 14.060666837340296 460007.33101107576 5.605718047272911 0.19380085237159017
0.36401491640431005 13.948786289514354 385417.2292794509 5.867877346073987 0.1963175400009723
0.3771404283322569 13.848237752771954 333365.66210050153 6.137062521562807 0.19881024151300183
0.3905454400762784 13.757489196782027 284849.3559618724 6.416657080743566 0.20133271964713606
0.4042323412559156 13.67590626048039 243953.24432155598 6.707491163158098 0.20388980203287618
0.4182090271174439 13.602593785303311 209406.14727445555 7.00969243355716 0.2064734777468766
0.4324658000998241 13.536535874069482 180122.32763148934 7.319825146011898 0.20903326092166066
0.4470046535325701 13.477167578687371 155236.0359635472 7.642502567271643 0.2116375029413018
0.4618305518134241 13.42393170056178 134062.09685026252 7.978258632783494 0.2142862325059985
0.4769383375252356 13.376178927031287 115975.01290114743 8.325210183660841 0.21694258185976267
0.49232861053266674 13.333606356196402 100517.30340623921 8.68321565273762 0.21959562339465127
0.5079970129883176 13.295452894158197 87262.74337942005 9.055824425533936 0.2222968058366847
0.5239478557429108 13.261569558944831 75883.58952434697 9.44364163939262 0.2250489606986217
0.5401834895233915 13.231556010171337 66091.48791816534 9.841323641781285 0.2277759954544247
0.5566874490774458 13.205134495159868 57656.84202133152 10.254899091960366 0.23054879290779354
0.5734746265327921 13.181777674658944 50368.63897069206 10.685402381694756 0.23337220289299423
0.5905420857900578 13.161414036782608 44062.69450721851 11.129932338762124 0.23620049352605219
0.6078683427242627 13.143663902926424 38602.80724680166 11.589151887028565 0.2390455510003142
0.625475067133312 13.12843418964731 33862.93558396063 12.067220002417859 0.2419499539753724
0.6433484202424593 13.115434853918037 29744.75691854617 12.563908121566916 0.24490328510757953
0.6614824227843864 13.104450518997268 26160.273326484636 13.074008050575348 0.24783481964476295
0.6798817212440571 13.095258089951937 23033.167256634475 13.60507052931389 0.25082499057830493
0.6985296330194748 13.087742369345385 20306.493566698413 14.158001890968702 0.2538755760056577
0.7174485038753049 13.081944012184907 17924.117964831814 14.726886136936807 0.25692332627972686
0.7366181270444677 13.077459072598785 15836.983814189332 15.317138941391836 0.2600185182157398
0.7560244723668484 13.07417483377557 14009.534287994516 15.931653447820075 0.2631796138249299
0.7756704010509883 13.072024236002198 12405.872400534683 16.567613551314764 0.26636674912192676
0.7955609117240696 13.070920960818526 10997.378943840647 17.22395194942674 0.2695665479065256
0.8156850829188238 13.070727984301785 9758.654946327588 17.90734609766212 0.27283829841435675
0.8360285942149066 13.07136637911793 8668.868119596427 18.61861384988242 0.27618173183917644
0.8565863884573096 13.072579646997152 7707.655227604706 19.348974919306755 0.2795137523053578
0.8773707859384224 13.07452928060531 6859.506367906614 20.10937826211072 0.28291657274491633
0.8983479608006909 13.076833983557652 6110.84331024715 20.901075400263547 0.28639203096041105
0.9195348327484512 13.079745922877539 5448.994090175401 21.718871280993028 0.28989125341508704
0.940899475545723 13.082823161865758 4862.909058126164 22.56564845466788 0.2934362486820451
0.9624546272235729 13.086275508163167 4343.889095617486 23.447249239236555 0.29706466697802514
0.9841927529581381 13.090052374609286 3883.9666868844006 24.364355256094758 0.3007723597607764
1.0060849355564954 13.093776241013558 3475.485441253431 25.308081065182304 0.304473230111009
1.02813208859209 13.09763513599323 3112.820285636289 26.290662798083638 0.308260666882078
1.050344505116274 13.101658991604328 2790.3323533570115 27.313601242311908 0.3121365264439782
1.0726584027670292 13.105296111221655 2503.1756460403344 28.3734826036335 0.3160697775654786
1.0951227654487197 13.109021091103934 2247.3839800708097 29.469818208740907 0.3200500424217071
1.1176740515248873 13.112533736924856 2019.7802001760297 30.611182706466273 0.32411934999214415
1.1403560907180705 13.115827868169898 1816.3434051507495 31.799429001374218 0.32827865860598143
1.1631237159639807 13.118930651049201 1634.8930377204963 33.02925455443779 0.3324910564231956
1.185957490290808 13.12154040001291 1472.5789204557632 34.304529754065975 0.3367752766536986
1.2088643863012654 13.12387840457139 1327.5558624377868 35.632313221477915 0.3411652246937484
1.2318283342152843 13.125813750197558 1197.6749210215266 37.014625875275236 0.34565972608962103
1.2548251845587617 13.127266456735939 1081.359149407047 38.44812722331425 0.35021770543285763
1.2778416335613247 13.12820449419339 977.1753729881051 39.934277710154234 0.35485238997705965
1.3008546043830251 13.128490108449618 883.6569984288797 41.481901722821625 0.35960430939937893
1.3238800054462587 13.128282133469153 799.7269820884537 43.093460435235734 0.3644756163564226
1.3468865339624339 13.127426063393218 724.2783829910494 44.7715448284134 0.3694680887340532
1.369845890139326 13.125910669742106 656.5232170263403 46.508830976161896 0.3745169396801085
1.3927677481972325 13.123676158242084 595.4943452401026 48.31743179556995 0.3796919901627495
1.415594784944271 13.120602350261091 540.600969183122 50.20151767478107 0.3850024807823726
1.4383560816184946 13.116865331744004 491.14637870960365 52.164284785449844 0.3904512139643682
1.4610083139254677 13.112257882213513 446.52354622531817 54.20912075433873 0.39603966981552075
1.4835518309376814 13.106771467268375 406.2534189537557 56.3349850667114 0.40173975904239617
1.5059335058876886 13.100359605963499 369.92295898138497 58.54570958934913 0.4075714198205714
1.528176759312794 13.093123001883505 337.0942890843902 60.850371404861086 0.41356392334310355
1.5502593470770574 13.085023438067703 307.431339429657 63.253228546329254 0.41972033771796513
1.5720969349162415 13.075553872567896 280.5640070481145 65.75880325773969 0.42604143314104587
1.5937509858222922 13.065257440318947 256.26278680663825 68.37196755527542 0.4325330017350602
1.6151759588015735 13.053974202679317 234.24260379145807 71.09778599595265 0.43920985455518563
1.6363608197975192 13.041729243148358 214.30257164715772 73.94170641121165 0.44607908136991564
1.6572461076279477 13.028098038597982 196.17873741154767 76.90723563179314 0.4531338949576313
1.677863892797537 13.01350079799574 179.74914512708813 80.00063749026707 0.4603776519950771
1.6981367245446597 12.997614146599187 164.836551304739 83.23150603389347 0.4678431379038762
1.7180960904071154 12.980588439217682 151.2711040892751 86.60692182702914 0.47554072778421536
1.737699600312719 12.962346842839096 138.93258626731586 90.13442048043981 0.4834751404019773
1.7569719075156187 12.943012225750735 127.7104831852765 93.82207056572909 0.49165409734948196
1.7758207150431546 12.922295409592513 117.48391502109945 97.67854760143972 0.5000969118149173
1.7942600625230694 12.900271920657026 108.17186920865645 101.71310994900527 0.5088194534232733
1.8122658808669687 12.877019741048477 99.67984396715352 105.9356582563322 0.5178288541274929
1.8298215139872729 12.852320734041125 91.93197977559892 110.35682594674196 0.5271379827776544
1.8469183790221169 12.826537696251512 84.86929149717332 114.98804697388022 0.5367706547734296
1.8634997324909006 12.799107827530712 78.40711296116487 119.8415918993137 0.5467464964534844
1.8795847729817872 12.770470248558143 72.50261555034875 124.92758005487332 0.5570625267977438
1.8951192637084031 12.740237018811012 67.10356252271512 130.25868002766268 0.5677375550988893
1.9101255323020665 12.708690816357866 62.160974919161546 135.84650996883246 0.5787873208230568
1.9245679213058786 12.675763331712568 57.635969023481806 141.72213651040423 0.5902826786757209
1.9327927016817803 12.646164046589156 54.73441221598365 149.11044564161563 1.5434568136649132
