M[M_sun], R[km], Lambda[1], P_c[MeV/fm^3], rho_c[fm^-3]
0.23841724892012095 16.20908015294055 2780876.1263280716 3.453507347168396 0.169602847481901
0.24841833850176523 15.866186708587831 2281855.8255883898 3.6356216944405966 0.17197939635654677
0.25870005910689314 15.562889554831683 1881454.9158222752 3.8249166557242713 0.17437675173956096
0.269271363163551 15.293320431787825 1557855.7844734543 4.020507932090748 0.17676943990028388
0.2801292319090933 15.053533329914451 1295129.5664149143 4.222708101389692 0.17914902810169056
0.2912640659453371 14.83956203906535 1080988.2094945777 4.43289119976092 0.18155242140865235
0.30268859949918137 14.648104774744548 905257.5485434899 4.651405018572752 0.1839834646298641
0.3143932267794505 14.476664372483773 760716.1931744345 4.878616947954115 0.1864438064644674
0.32638346399578655 14.322883718518952 641352.8680704025 5.1118707402822325 0.18887433655898134
0.33865915441494 14.184549502265378 542236.9718953352 5.354305000352239 0.19132607660387627
0.35121547813140225 14.060298215720112 459762.60958965454 5.606441855191369 0.19380780892155017
0.364054494521379 13.948524552431538 390947.175037892 5.868694142945684 0.19632510368197145
0.3771862312905105 13.847841591875806 333193.0979927581 6.138014796076876 0.19881905974051667
0.3905965567493191 13.757221638152274 284688.7099976497 6.417714626340079 0.20134214546941218
0.40428784287134795 13.675698123638824 243819.95198833966 6.708658719211314 0.20389978407635154
0.4182673436446682 13.60216976264764 206666.04750155704 7.011028290485697 0.20648489868200068
0.43253253287724436 13.536322563849748 179996.5755075004 7.3212848580017065 0.20904529378925643
0.4470758361684508 13.476857290486322 155128.098092732 7.64409185086509 0.21165013855686024
0.4619065608536385 13.423644962575032 133956.0413761613 7.979983427764696 0.21429943797524081
0.477019863826137 13.375969890011923 115883.51651103099 8.327151453503742 0.21695744471562722
0.49241552686848944 13.333313719926432 100434.1998778322 8.685308833243106 0.2196110233287243
0.5080926465498172 13.295379941489593 87194.27940856996 9.05807630923413 0.22231279792783226
0.5240487883652052 13.261392142293264 75816.03467325229 9.446059644987118 0.22506554174894916
0.5402895072717273 13.231354787803777 66034.20785870079 9.84401552871851 0.22779445459814357
0.5568039315945236 13.204867821728518 57600.61316058146 10.257777023433903 0.23056781087607797
0.5735969584575321 13.181589114589192 50318.994223075264 10.688474638260496 0.23339174990963302
0.5906692761611919 13.161286284629496 44020.39683179601 11.133333074807155 0.23622213047030924
0.6080067356851895 13.14356339763596 38562.35468136044 11.592769881991698 0.23906779990829072
0.6256157346459149 13.128318680311772 33828.79768094563 12.071065581085719 0.24197281996866535
0.643494431815542 13.115255197870368 29712.999995296777 12.568145524570593 0.24492848090697153
0.6616465410596898 13.104328113327034 26129.97308049804 13.078499829954788 0.24786058314709705
0.6800459620745102 13.095176733524493 22832.25251653067 13.609828267895876 0.25085132131213744
0.6986994369598855 13.087744020836594 20285.29329624217 14.163038205059902 0.2539025576416593
0.7176280199082253 13.08187190123717 17902.291145836156 14.732406484612381 0.2569529010856042
0.736804615738562 13.077445025816688 15818.377400736632 15.322971075294038 0.2600487782846804
0.7562222775528192 13.074147043944278 13992.189824265119 15.937812343322532 0.2632104793354211
0.7758731693549588 13.072019544134232 12390.96870492324 16.574345134645604 0.2664004846765952
0.7957741449053556 13.070950971769118 10983.620075058581 17.231048476872672 0.2696009454448469
0.8159043857041551 13.070767192904661 9746.103950843139 17.914825625103514 0.27287345718820993
0.8362560887241384 13.071326675081172 8656.853274829793 18.626709323107917 0.27621954411160077
0.8568199083540917 13.072601894924103 7697.446151680147 19.357559581921663 0.27955290641442165
0.8776160599636532 13.074547507137373 6850.465900597071 20.11841341916037 0.282956441325859
0.8986012645796508 13.076843879862807 6102.246673202337 20.910583410215683 0.2864327142686886
0.9197972917959658 13.079760222079715 5441.2939589824255 21.729207424201114 0.2899354801778536
0.9411669647948859 13.082853358650903 4856.044545199778 22.576514748461456 0.2934814311262691
0.9627431387278287 13.08637057058236 4337.7485798709085 23.458673847607763 0.2971108545912618
0.9844764976817013 13.090046781339671 3878.260830074913 24.376755519799655 0.30082249177103226
1.006383127156256 13.09388909201023 3470.2826249182413 25.321107472181513 0.30452427936953574
1.0284306210233496 13.097655451652361 3107.9133707578035 26.304347864997048 0.30831281304259234
1.0506547451902764 13.101685135413966 2785.9417054692476 27.32798066802123 0.3121898889186491
1.0729765369077393 13.105360721331422 2499.3471674662273 28.38905769385912 0.3161275771865805
1.0954368333497804 13.109056745469413 2244.1034500659616 29.4861748836213 0.3201091922148701
1.1180220203461015 13.112598015778099 2016.4855630708735 30.628363113427184 0.32417970430246756
1.1407056916632108 13.115901966034711 1813.4589985851342 31.81747783530967 0.32834047946218625
1.163470146654896 13.118942739947357 1632.2075423247704 33.04877223033238 0.33255790835608207
1.1863116760145538 13.121596233602855 1470.2658765939002 34.326087984728154 0.3368397238625014
1.2061560773898836 13.122072586259941 1342.3152922233717 35.84445991719213 0.643830478051601
1.211474372921008 13.108680872800782 1297.925610577959 37.59252298648274 1.194595796090081
1.2063301440406935 13.080618976078055 1302.7708272408054 40.24982556689968 1.6830736743665777
1.1957908754016693 13.041521541762169 1330.336584732603 43.49262280663468 2.136831424588654
1.18178951633106 12.993111008166752 1371.874379745347 47.344017991798914 2.581430743588397
1.165465823252335 12.937257780883634 1423.6994383001281 51.83011234977771 3.058785356565766
1.1475328613263094 12.875933654245525 1484.2480072408102 57.04927301764011 3.6143669788450326
1.1273320943385736 12.805424674437166 1555.936409025598 62.77296986816467 3.763386862523022
1.104569725768591 12.718641346842677 1635.00013799679 68.82570446559006 3.7978577070688386
1.0808250087932985 12.618049133826043 1713.007810584146 75.11515025165289 3.831143336429569
1.0570716204665622 12.50553304677346 1783.3746561854823 81.64211961269511 3.8652473719713525
1.0338212685274932 12.38199970198996 1841.7142170069267 88.35916114238891 3.9002597804777044
1.01162077108579 12.24907967335393 1883.019823430943 95.28694838542421 3.9362828156971688
0.9906380659960847 12.10711536830506 1904.425355686405 102.48593216581514 3.973633024454246
0.9712010499009478 11.957570723171477 1903.2532084239965 109.96266270313423 4.012335736607098
0.9534117407876062 11.801195213295438 1878.7767000564972 117.72547523858996 4.052425126655033
0.9374505592580343 11.639315911655402 1830.7829347585832 125.78419571950877 4.093941650160436
0.9233220266262967 11.472918821903864 1761.6940853330998 134.1500992582215 4.136929895431462
0.9111028853745714 11.303186545493578 1673.4286885995457 142.82963476546195 4.181402790846776
0.9008103984418179 11.131465155655803 1570.2828505998523 151.80514514591064 4.2272607252050545
0.8923844512989405 10.958906238539432 1456.4181911502155 161.13722082805737 4.2748154255798605
0.8858243849398997 10.786775224440392 1335.9960850627558 170.84128177464956 4.324133165141669
0.8810175046020129 10.616073694432528 1213.337621176097 180.93388537948488 4.37526704094425
0.8779084102012704 10.447957505383918 1092.0841150356553 191.43391729492663 4.428306843546904
0.8763652530563447 10.282992251590228 975.1655914164097 202.3612800262588 4.483345707361107
0.8762742492900294 10.122053857594029 865.009571750915 213.73733847792164 4.540463876555172
0.8775562840781663 9.965931657593865 762.9627337761335 225.58554232578055 4.599757397291777
0.880053650358444 9.814960179870972 670.0204517774663 237.93111290412335 4.661345219761251
0.8836517900390755 9.669136576195566 586.2128707153596 250.80081138323246 4.7253263728511685
0.8882356652593292 9.528967658456377 511.7362038770422 264.2241126845152 4.79182891971561
0.893687786382676 9.394552479108853 445.9893466838262 278.23216146036606 4.860989686833633
0.8998958071276676 9.265636171306149 388.344565692737 292.85862958792706 4.932935070546945
0.9067566684553536 9.142496288197307 338.08838573071847 308.1402191396343 5.007839674986135
0.9141608821655437 9.024640697322239 294.4711074461998 324.10430066169374 5.085766021276853
0.9220104309871203 8.912064542164828 256.7710202337784 340.7695284654972 5.166798373182614
0.9302272288698629 8.80447346357648 224.17203703880224 358.210839300952 5.251246541826422
0.9387278244153108 8.701649738165301 196.0693167616733 376.476453207657 5.3393360849282
0.9474259888770159 8.603223951814186 171.3701591689908 395.6194972152073 5.4312703558907955
0.9562621206887226 8.50895612171643 150.52251901627213 415.696385468899 5.527278139528892
0.9651544440325146 8.418745229088437 132.89381893428998 436.72625009253846 5.627375731537038
0.9740530546471227 8.332047044434706 117.3065662951028 458.7783857788895 5.731838053842112
0.9828982719081681 8.248790326391001 103.83489864712041 481.9571217089999 5.84114366236915
0.9916374900333492 8.168631647792958 92.1612551012283 506.33950735120817 5.9555883746487215
1.0002096976141048 8.091392664100558 82.035605396276 531.9137056184253 6.074963979157832
1.0085792912958287 8.016735130016821 73.21650388891004 558.8548037915624 6.200108944805252
1.0167180979101234 7.944472703502304 65.52636206383163 587.2437539209758 6.331304027025022
1.0245637468573066 7.874410339261686 58.82696209588285 617.1106845868808 6.468529069492997
1.0321104185900696 7.806306318037439 52.94699597116511 648.6587239224499 6.612726395218235
1.0392889392459308 7.740067033027365 47.79834438329072 681.9027717465519 6.763742860850844
1.046099005943881 7.675458356992902 43.26003655200081 717.0622115902022 6.92258332989947
1.0525090556632197 7.6122580585416015 39.25935229706475 754.1841245145871 7.089189458832008
1.0584725873416732 7.550532560394014 35.75261687308128 793.5083190713976 7.264678004180121
1.0639846527778047 7.489927540660407 32.63612541898248 835.095350964961 7.448971116558295
1.0690304731946725 7.430282694666202 29.81650230923325 879.2010121623388 7.643173155575223
1.0735888167668035 7.371663092140899 27.402668022956828 926.0028407383755 7.847884109809548
1.0776264688995223 7.313871622947395 25.17322023726997 975.657457639711 8.063466695613828
1.0811265338102216 7.2568711029119175 23.229170006718704 1028.4510067060587 8.291066920718913
1.0841013451192 7.2005174033785595 21.518062590064105 1084.6275819011842 8.53147023569159
1.086525642927292 7.144708618765684 19.957917228712482 1144.4571905006978 8.785552379120436
1.0883873442594412 7.089443901012802 18.537727921760318 1208.2267621597211 9.05419784830877
1.0896710703847023 7.034675576658685 17.30455136807942 1276.276692646855 9.338527824927574
1.090381763806965 6.980317985633279 16.174065835497775 1348.9850124500485 9.639793412177811
1.0905131647407404 6.926332707802299 15.142458880123346 1426.7566898102918 9.95927336734749
