M[M_sun], R[km], Lambda[1], P_c[MeV/fm^3], rho_c[fm^-3]
0.23841724892012095 16.20908015294055 2780876.1263280716 3.453507347168396 0.169602847481901
0.24842677997045978 15.86591707404122 2281645.379500089 3.6357713826046987 0.17198130044660662
0.2587206420425721 15.562218436168257 1880683.871002471 3.825224579767206 0.17438051860598577
0.2692984637373616 15.292666790830015 1557041.1193547116 4.0210040499129205 0.1767755089605277
0.2801649467446111 15.052823251876443 1294396.394400878 4.223387515335057 0.17915697279369483
0.2913103488656627 14.83873551865716 1059433.3175591193 4.433763293302644 0.1815622342224715
0.302744624191859 14.647282097147185 904469.0286531337 4.652479669389333 0.18399510366091212
0.3144619105843697 14.47573647428686 759954.2559623894 4.879904436166566 0.1864572222328262
0.3264633744979352 14.321899492301545 640585.6734778611 5.113446208611831 0.18889075311174056
0.33875108202657994 14.183630482478446 541571.7103714107 5.3561231028677865 0.19134421783443042
0.3513196791638609 14.059283316672168 459140.39307942765 5.608514001411821 0.19382772441064527
0.3641716907457637 13.947540405089374 390351.22762546054 5.871032574962962 0.1963467579688937
0.3773150369851134 13.846863482855019 332670.39024252014 6.140741207543293 0.19884430678457254
0.39073984582241 13.756319282407059 284224.8970615772 6.420742526778295 0.2013691329123125
0.40441835026563777 13.675450574265364 243596.99079419667 6.712001694405133 0.20392836490862062
0.4184386095519446 13.601372482855593 208884.81215672335 7.0148533162626565 0.2065176008152257
0.43271894969578834 13.535436422847571 179639.24836480746 7.325464645244918 0.20907974909744545
0.4472784126006782 13.476085684207408 154810.02300093207 7.648642786797566 0.21168632081980626
0.46212828574315196 13.422878238263781 133657.57400587402 7.984922539712911 0.21433725307305096
0.4772596038273823 13.375364219436914 115635.58971442054 8.332710709995803 0.217000007797858
0.49267212701381286 13.332677185297682 100197.49051691333 8.691303282085695 0.2196551256489676
0.5083664085902401 13.294663238843729 86979.72570383843 9.064525423577303 0.22235859728433904
0.5243364026018084 13.260833076749439 75630.45445909498 9.452984692752512 0.2251130290524439
0.5405957325867095 13.230936174217186 65868.04798282191 9.8517253109713 0.22784732308109415
0.5571292268500433 13.20445113913379 57450.358056876146 10.266019863504823 0.23062228127347414
0.5739406727510142 13.181139184223538 50180.815090864846 10.697274276929639 0.2334477369926778
0.5910308372549382 13.16081412171239 43894.930568086005 11.143074008055683 0.23628410647400944
0.6083895250425104 13.143252970019697 38453.79434323071 11.60313337916085 0.23913153037148407
0.6260192711474712 13.127946811338932 33726.066712617285 12.08208124517073 0.24203831963018319
0.643922212258523 13.11508508769481 29622.252183898636 12.580284149906351 0.24500065774938867
0.6620884638525977 13.104090710168869 26049.269595043363 13.09136746100953 0.2479343880281272
0.6805177957465485 13.095064729368776 22936.17542948842 13.623458117727141 0.2509267529361957
0.6991943932927834 13.08755024743137 20217.477324259 14.177466450281976 0.2539798557715364
0.7181547173432383 13.081882418889787 17843.15858543647 14.74822218186779 0.25703763237494187
0.7373386984752112 13.077280031685142 15764.137973426656 15.339680423937974 0.26013547486099314
0.7567787186627222 13.074097999720278 13943.99640200922 15.955458288224552 0.26329891257759624
0.7764554189097078 13.072045699822674 12347.492586334685 16.593632860243098 0.2664971457575542
0.7963705267837047 13.070859075713761 10943.981861134653 17.251382327519533 0.2696995055381001
0.8165347387278302 13.070762578350855 9710.34662617241 17.936257384163856 0.2729742007680663
0.8369050655812189 13.071311807354164 8624.261741197377 18.649295088747554 0.2763225563755435
0.8575012141527331 13.072697013836764 7667.9176749421495 19.382159803690556 0.27966510648673
0.8783005938538572 13.074573620098025 6823.953376207093 20.14430516766504 0.28307069138984053
0.8993239679143294 13.077033228975107 6078.449982141162 20.93783081651663 0.2865493017182058
0.9205399668313845 13.07979752077123 5419.61826904516 21.758829591870292 0.2900622288650342
0.9419353857884575 13.08304625496831 4836.646473901718 22.607656974525533 0.2936109216332333
0.9635307823536449 13.086557598943287 4320.264170698654 23.491416924124312 0.2972432288928735
0.9852865196470973 13.090140098319972 3862.176336580434 24.411425605453477 0.3009593220643867
1.0072185221661982 13.093940954684749 3455.611062058072 25.358444192888815 0.3046705984510786
1.029302794066507 13.097839140567105 3094.664879253448 26.343573365820514 0.3084622795578194
1.051544674824016 13.101816761110216 2773.850368976447 27.369197371190957 0.3123428453247933
1.073895133296477 13.105514794644595 2475.6857559045343 28.43370407834484 0.31629326124166235
1.0963869605605812 13.109249981166329 2234.0133901453205 29.533062810141747 0.320278750586349
1.1189912584461368 13.112841705323115 2007.4653644999 30.677613521367256 0.32435271966881674
1.141692685228 13.11601581380955 1805.0867486547224 31.869218978024655 0.3285177031961458
1.1644776596885997 13.119037520850627 1624.7169170635443 33.10472733434639 0.33274956574799713
1.1873434702421426 13.12165963278114 1463.318277498894 34.38379116384677 0.3370402876559091
1.2102745256420868 13.123994012041766 1319.142371314432 35.715580214480674 0.3414371427063634
1.2332646144079948 13.12588495434316 1189.9986798591685 37.102122779756975 0.3459379323736754
1.2562807610424234 13.127277017849154 1074.4665597297414 38.54263083796395 0.3505181903427768
1.2793347317885666 13.128262559281781 970.8076763913086 40.033556943329195 0.3551610109023547
1.3023847004240543 13.128552376897424 877.8496491474363 41.586236923166865 0.35992164134714294
1.3254319618114638 13.128271858597923 794.3980142641625 43.203150309904906 0.3648021562575951
1.3484532193801477 13.127320937092056 719.4238901928663 44.88690046573431 0.36980333196348625
1.3714381294444216 13.125764929695626 652.0572172413147 46.63326032231137 0.3748785526606978
1.3943801276080066 13.12346962178073 591.463159985336 48.44828026054067 0.3800646751997784
1.4172374040219948 13.120382871922642 536.8763245181145 50.33917460129836 0.38538694375720167
1.4400091735019798 13.116519637586796 487.69823216555994 52.309164444697366 0.3908480234833003
1.4626778959218014 13.11182837352857 443.3957383168851 54.36165823546871 0.3964486692271122
1.4852277852664835 13.106305219035782 403.4088854344878 56.49939176728088 0.40218058344369406
1.5076321922417197 13.09984414444649 367.31375837610364 58.7188251687343 0.4080273080256795
1.5298697571794806 13.092426252737198 334.70694232490416 61.032740742028984 0.4140358377236914
1.551943206024102 13.084062116101283 305.2146072057396 63.445432021173474 0.42020897163321547
1.5738267523643557 13.074780403161629 278.55037775684673 65.96145470032853 0.4265470857422704
1.5954853583754074 13.064469058320885 254.42305640472298 68.58572646835411 0.4330578692295958
1.6169028882523315 13.052996852264506 232.5454186594406 71.32336576742627 0.4397551604862906
1.6380698565236154 13.040496083444495 212.73796526881912 74.17986816381378 0.44664565368917347
1.6589802962773792 13.026929472782115 194.753816248223 77.16111338601537 0.4537326782089175
1.6795865953138216 13.01213853263948 178.42484451109866 80.27154798799042 0.461011629059428
1.699883440963306 12.9962318120769 163.60408893714228 83.51775793168446 0.4685034909786866
1.7198379240270847 12.97917114305977 150.1486815935771 86.90953396847166 0.476229163226784
1.7394171417765165 12.960693487662848 137.90369252799374 90.4544827018779 0.48419279127063386
1.758665371525029 12.941172730172218 126.75224779287521 94.16074816282249 0.4924025883005461
1.7775176429294592 12.920490981432275 116.6127089303342 98.03709809331761 0.5008792490253718
1.7959076718264022 12.89821479167232 107.3666259780198 102.09289225469124 0.5096378584959408
1.8139023999706987 12.874802361373991 98.93949037460821 106.33812989418605 0.5186848080046303
1.831442756048483 12.850035714091616 91.24786300319406 110.7835520039521 0.5280340080957627
1.8485282723912972 12.82405260030822 84.22952236966765 115.4407199079863 0.537710315575349
1.8650658225361214 12.796512081283346 77.82206052467612 120.31832370302332 0.5477188876436963
1.881113818386712 12.767534639291513 71.95786986507154 125.43056132406099 0.5580711761266601
1.896626184272119 12.73720026065202 66.59670913961273 130.7932594140195 0.5687985242141806
1.9115876186127343 12.705571100233389 61.69659172614245 136.4217627278878 0.5799293172280333
1.9259691688407863 12.672304974332372 57.20243341423598 142.33260384775622 0.5914807749160322
1.939755193349014 12.637797517518143 53.09256857176881 148.5436101879093 0.6034739172294711
1.9529641705552834 12.601883696476945 49.32370352837595 155.07399404784098 0.6159444165997567
1.965504334486058 12.564339543881957 45.86534003197096 161.9350569079458 0.628890672490668
1.977394529026528 12.525234443648785 42.68941851800663 169.15194543527247 0.6423405450462406
1.9886357579953355 12.484753076327765 39.77530129282993 176.75378125718208 0.656356874885888
1.9992000927571936 12.442758714934417 37.09684524070377 184.76668469869998 0.6709792027117274
2.009036747409776 12.399209102538636 34.63468165642507 193.20285205330387 0.6861767952980915
2.0181817725224955 12.354197114823442 32.37069149324219 202.10240603229633 0.7020384848316733
2.026580724316134 12.307642106793697 30.28925069947269 211.50294080551555 0.7186276251950239
2.0342455381683413 12.259577242578892 28.368989129740516 221.41843144152784 0.735902415008671
2.041154255264307 12.210144425803131 26.604407721208954 231.90390071235376 0.7539875080230798
2.047278218221558 12.158989830799255 24.97415933029963 242.99198685838076 0.7729066354051112
2.0526127240996335 12.106382916994734 23.473052506013538 254.72391774382234 0.792692440284811
2.0571427270475247 12.052274424795527 22.09001295761963 267.1525944742692 0.8134399286468891
2.060867774742852 11.996765524625582 20.81310673952386 280.32248718579723 0.8351776205764531
2.063777953478122 11.939784282192978 19.635476257861775 294.2926908032392 0.85798568001327
2.0658446618589337 11.881287338257012 18.548758574155084 309.12844160178884 0.881958892502951
2.067085604218813 11.821370735844708 17.544225452507764 324.88101460295513 0.9071091575381385
2.0674695439164186 11.760095797160707 16.620153044880354 341.63945422949774 0.9335945930570615
