M[M_sun], R[km], Lambda[1], P_c[MeV/fm^3], rho_c[fm^-3]
0.23841724892012095 16.20908015294055 2780876.1263280716 3.453507347168396 0.169602847481901
0.24841733533929797 15.866143246218728 2281877.8798744874 3.635582920134624 0.17197890313271028
0.2586995068500117 15.562787273180602 1881463.8520648158 3.8248368958239944 0.17437577602851373
0.2692650350512472 15.293478262100878 1557997.130046591 4.020379430267779 0.17676786792429314
0.2801194383841395 15.053784514311415 1295371.8685224913 4.2225321292763 0.17914697038083896
0.2912493898328834 14.839755563854077 1081118.6100741501 4.43266533012548 0.18154987991903693
0.3026732912339829 14.648331673573134 905461.6502628127 4.651126696301328 0.18398045025393056
0.3143749901630335 14.476988387757885 760978.9473031075 4.87828351382645 0.18644033204429294
0.3263639120415044 14.323111682626367 641487.6865990557 5.11146274086612 0.1888700851603245
0.33863464670390186 14.184812724971442 542399.1005409203 5.353834180415961 0.1913213787098134
0.3511874443818904 14.060569947815846 459953.1962971041 5.605905263618874 0.19380265171618258
0.3640251069304531 13.948683727545662 391057.35282097023 5.868088613181845 0.19631949637111135
0.37715182875629155 13.84810067276909 333314.06275903713 6.137308828373715 0.19881252235688135
0.39055765606703985 13.757435110839632 284807.2525549178 6.416930614429455 0.20133515763176596
0.40424725724320865 13.675923816275258 243938.4503704968 6.707793149273473 0.2038923838691181
0.4182220686407426 13.602453151262512 209373.1509179788 7.010037947466493 0.20647643172485033
0.4324805489039345 13.536432211546192 180091.38959782853 7.320202692424952 0.20903637315615026
0.4470225310112248 13.477054172575224 155206.90225664154 7.642913624423466 0.21164077105541584
0.46184976863013577 13.423776737071936 134022.0325872651 7.978704736634404 0.21428964799059014
0.47695915334538025 13.376119927609533 115952.28258609578 8.325712272623356 0.21694642598061392
0.4923498074958009 13.333481202040327 100495.51213825023 8.683757028973686 0.2195996064043928
0.5080209029980183 13.29542116229335 86364.0655451928 9.05640684549246 0.22230094197971112
0.523974567567033 13.261569826939514 75872.5045276989 9.444267021446407 0.22505324914664324
0.5402124378700107 13.23155777111004 66076.57279425653 9.842019853169896 0.227780769602218
0.556720837048833 13.205010483910728 57639.688470846384 10.255643416986679 0.23055371156199844
0.5735051360512153 13.181691210217819 50353.938890279685 10.686196961559526 0.23337725835158146
0.5905772716155719 13.161352978900338 44049.530217506624 11.130811865620782 0.23620608945392232
0.6079028877780522 13.143554011449076 38590.27394208495 11.590087598772032 0.239051305172082
0.6255083655980218 13.128372150275792 33853.86373762742 12.06821456882517 0.24195586771443825
0.6433836019189579 13.11531641082747 29735.298432840365 12.56500401386269 0.24490980133518772
0.6615238151461474 13.104437029081387 26152.84047220099 13.075169725235785 0.24784148266297854
0.6799256161375594 13.095226323441764 23026.924448160305 13.606300981369007 0.250831800264251
0.698576772709128 13.087754812586176 20300.61816446577 14.15930438267861 0.2538825539972157
0.7174976883164768 13.081945742629586 17918.5196868282 14.72831379605117 0.2569309748452969
0.7366670433525331 13.07741991314725 15832.028432975596 15.318647227169123 0.26002634396740604
0.7560739848842789 13.074174147534812 14004.462863013849 15.933246232451118 0.2631875961183005
0.7757240363868749 13.072025176780988 12402.166628449102 16.569354425083656 0.2663754735689573
0.7956141392108834 13.070958692271933 10994.200575763023 17.225787194355505 0.2695754435119111
0.8157389299356519 13.070754057508443 9755.585983339366 17.909280382391586 0.27284739084431353
0.8360882922995412 13.071358958886941 8665.896205056853 18.620722935594728 0.2761916459504859
0.8566461468147921 13.072536703881678 7704.738144617374 19.351194972136806 0.279523877827412
0.877435979092191 13.074491066812648 6857.055169310759 20.11171480569938 0.28292688298929597
0.8984126081754052 13.076848089686859 6108.450946554598 20.903534215615373 0.2864025518521076
0.9195997961730714 13.07976443169341 5447.074355319843 21.721544228535443 0.289902690545404
0.9409776342399905 13.08294698567701 4861.420223010289 22.56845848794388 0.29344793290245846
0.9625279231097991 13.086324403589026 4342.513297037877 23.45020364017238 0.29707661108353284
0.9842627090867591 13.089936991825084 3882.298212387285 24.367561928155975 0.30078532375254996
1.0061658678027077 13.093844414411619 3474.0679563748686 25.31144964119529 0.30448643124220076
1.0282023812904553 13.09761719856307 3111.5291269958257 26.294201685176297 0.308274151607841
1.0504175053274962 13.101563702460478 2789.1087663740723 27.317319670324128 0.3121503256404572
1.0727449806287592 13.105341872277249 2502.0833843442315 28.377510180152917 0.3160847240212236
1.095207761604187 13.109127848004762 2246.684427071507 29.47404787672304 0.3200653379501761
1.117765384261107 13.112516215913717 2018.8501357480793 30.615625362728355 0.3241349569248153
1.1404564895013025 13.115919574369663 1815.5685636204357 31.804096201284892 0.3282946446965837
1.1632066310454123 13.118835387711957 1634.0652310955054 33.03430152312208 0.33250834329759527
1.1860520913192536 13.121545988889684 1471.9679527664132 34.30982995192281 0.3367929978972374
1.2089546107738331 13.123901210652596 1326.9996385907398 35.63788114204798 0.3411834073834459
1.231925910690095 13.125846350693811 1197.1982210968922 37.02047650426723 0.3456783288248936
1.2549224213779118 13.127269985554548 1080.9690543584557 38.4544460208998 0.35023779676301814
1.2779411781987742 13.128139626277829 976.6877578808662 39.940915659511035 0.35487302480679234
1.3009544933854456 13.128495364637958 883.3026396354583 41.488877549257 0.3596255261371882
1.32398893938104 13.128337526238504 799.3839152435171 43.10079408944791 0.3644974481866522
1.3469855079630377 13.12741565361485 723.9811307868528 44.77925708724268 0.36949050187844906
1.369955637935624 13.125900259401075 656.220834660011 46.517149395097526 0.37454111442954013
1.3928841341436158 13.123651032095683 595.2056789485022 48.32617911872516 0.3797169044516159
1.4157047301940127 13.120574231608012 540.3460739452132 50.21071990128656 0.38502818174393594
1.4384678819718555 13.116830494512984 490.89699450991696 52.17396957782344 0.39047773954996584
1.4611179579786098 13.112213640193112 446.31430396752023 54.21931716393222 0.3960670094929114
1.4836611260072834 13.106732204379469 406.0684173594299 56.34597422106166 0.4017692243097511
1.506049723945303 13.100330963202483 369.74999280601395 58.55728052030939 0.40760189108702605
1.5282905604161379 13.093046121560793 336.92197906657685 60.86256048826173 0.4135954648502027
1.5503411238558877 13.084718324950858 307.2728992722606 63.26607452608412 0.4197529957195332
1.572229721736304 13.075653443248232 280.4449895048601 65.77234710876152 0.4260752275390146
1.593868184344616 13.065304643491798 256.1561084941814 68.38625329897313 0.432568079208061
1.6152813788237186 13.053871136930297 234.13251025729352 71.11286124789122 0.4392462967602703
1.6364581336166262 13.041523995055963 214.18722792316908 73.95762197030565 0.4461169435166695
1.6573603038271183 13.028042696985052 196.09871392903105 76.92437635624681 0.45317467169823455
1.6779625255091302 13.013331774771508 179.6666326863572 80.01873974426665 0.4604200143765471
1.6982468076134112 12.99747220149872 164.75029883450122 83.25063271837823 0.4678872611568849
1.718218508405742 12.98050610000864 151.19239229073028 86.62714092446438 0.4755867257511998
1.7378057997875926 12.962259881662797 138.87527195164654 90.1558047059754 0.4835230886039307
1.7570861186854865 12.94288079598927 127.63971638255886 93.84469766460941 0.4917041041373714
1.77592605547525 12.922124608812725 117.42896360897397 97.70250146655714 0.5001491778149371
1.794369052462523 12.900121535763814 108.11455737841703 101.73848123209072 0.5088741268150199
1.8123756528806036 12.876854861738801 99.63040081961576 105.96254418032026 0.517886033587394
1.8299444978302517 12.852257374027763 91.88444123148822 110.38533090311495 0.5271978365460621
1.847037896910191 12.826386368771953 84.82510356940257 115.01828384210566 0.5368334206198135
1.8636095688047432 12.79900249728696 78.36518702354859 119.87368275644207 0.5468123696098328
1.8796893952649902 12.770250681393964 72.46746403405501 124.96117518915133 0.5571298965224636
1.8952309424631562 12.740130908334503 67.07084637097026 130.29438397613234 0.5678084160179353
1.9102531957477165 12.708705735658912 62.133881555990214 135.89126393871064 0.5788870406825161
1.9246644999411755 12.675670896694381 57.61035885971407 141.76817990660436 0.5903840113370854
1.9385113131074312 12.641281329645881 53.4672561301954 147.94277231175445 0.6023181580153164
1.9517287230902436 12.605378545646468 49.6692790424986 154.43404006527663 0.6147249466752528
1.9643126477145014 12.567961340820974 46.1855415055931 161.26096560675487 0.6276308470939349
1.9762755127116947 12.529219025843028 42.99049081649486 168.43299099765161 0.6410090687088439
1.9875514305027093 12.488734997571912 40.047832752513834 175.986538641707 0.6549481693378711
1.9981707915598006 12.446952031464791 37.353494598142674 183.94743065652779 0.6694876593049697
2.0080793846103844 12.403646444461659 34.873428944561496 192.3363620164834 0.684627073524087
2.017277951539774 12.3588024607079 32.59187423123243 201.17590154910155 0.7003945724469623
2.0257697224150073 12.312566182463186 30.49375903188812 210.51165560058612 0.7168824754278992
2.033485919290256 12.264661219387627 28.563291676225212 220.3667048091182 0.7340812000806116
2.040465476088904 12.215356700628428 26.781292530707628 230.77705229515036 0.7520506332790619
2.0466582094438492 12.164469335477893 25.141097094358603 241.79373608092055 0.7708791176127224
2.0520791849317783 12.112055942750453 23.627487143105736 253.43823815444506 0.7905323176609845
2.056685392566862 12.058148241287704 22.23280808885028 265.782468618064 0.8111699905736021
2.0605036964191035 12.00290659415561 20.94660267922888 278.85022546547646 0.8327572637822052
2.0634958282712166 11.946065507376833 19.75863059265418 292.72038444946276 0.8554349520768303
2.065662286776982 11.887895640077572 18.66600560865957 307.43636230118045 0.8792324531608634
2.066989038817196 11.828196895401812 17.654026254513262 323.06226259060816 0.9042056018194747
2.06718382961258 11.770421884592153 16.784391601096907 340.33819740772077 1.9016930438155786
