M[M_sun], R[km], Lambda[1], P_c[MeV/fm^3], rho_c[fm^-3]
0.23841724892012095 16.20908015294055 2780876.1263280716 3.453507347168396 0.169602847481901
0.24841880871771616 15.866133041475429 2282038.5622835006 3.6356291332604918 0.17197949098114923
0.2587027196791134 15.56281166919185 1881417.3947729226 3.82493195773251 0.17437693893059844
0.2692722065109757 15.293316043108579 1557806.0782625955 4.020532585510736 0.1767697414881012
0.28012993505529354 15.053562682490213 1268921.5380114587 4.2227418623996416 0.1791494228843229
0.29126637039290404 14.839544552118644 1080923.0471346742 4.432934534183491 0.18155290900843413
0.3026907692970985 14.648122467940993 905240.433218387 4.651458416770979 0.18398404296031104
0.3143982250193483 14.476607548548401 760711.9068457106 4.878680920270382 0.18644447306301803
0.32638909290877 14.32276276043856 641254.837542295 5.111949019363125 0.1888751522355883
0.3386634702727937 14.184504173754336 542256.6487102966 5.354395332909039 0.19132697795224657
0.35121894252197355 14.060290645743084 459769.022909457 5.6065448075972695 0.19380879840168277
0.36406111547815984 13.948410124313908 390883.38394912204 5.868810322916239 0.196326179528692
0.3771926788479974 13.847809649243954 333174.1395738358 6.138150247896941 0.1988203140479133
0.3906033101794384 13.757174099404846 284662.9644325278 6.41786505330859 0.20134348621337195
0.40427302020431893 13.676312927670077 244002.18407643758 6.708824795703757 0.20390120395059505
0.4182774650896468 13.602191383071988 209256.24753477387 7.011218309032013 0.20648652324930536
0.43253827399524347 13.536175443915559 179982.7167238079 7.3214924960508245 0.2090470054153651
0.44708505799641146 13.47680903988663 155112.13668806865 7.644317921840274 0.211651935936474
0.4619175800169828 13.423581263087682 133935.56897884642 7.9802287768572295 0.21430131643032121
0.4770312294357708 13.375919964675898 115874.05317382852 8.327427599419742 0.2169595589590242
0.4924289044400986 13.333278665238737 100427.08774282277 8.685606590859466 0.21961321398913303
0.5081076995846916 13.295314249480736 87183.93952029079 9.058396645101233 0.22231507284122326
0.5240618810033382 13.26138633032509 75813.22919347987 9.44640361475128 0.2250679004614284
0.5403069907483082 13.231421071611075 66024.03016480958 9.844398464231544 0.22779708051142858
0.5568196533205221 13.204891868111478 57595.42199112196 10.25818642789244 0.23057051630568237
0.5736140273797649 13.181575034722329 50312.087314073855 10.6889116899796 0.23339453062050222
0.590686401333843 13.161268005694005 44013.45197684229 11.133816861895824 0.23622520853168513
0.6080260610624842 13.143537137883373 38558.48795809969 11.593284579990975 0.23907096505045877
0.6256367120129833 13.128223102556358 33822.26721392621 12.071612659221826 0.2419760729212302
0.6435151639573289 13.115246366922147 29708.310371137162 12.568748352776336 0.24493206535209666
0.6616657111882794 13.104331127033245 26125.683617936564 13.079138851203567 0.2478642483817499
0.6800698122678673 13.095162322657552 23005.047132307605 13.610505130478678 0.2508550672700546
0.6987238359967726 13.087708660833888 20281.72101397038 14.163754704338436 0.2539063962272556
0.7176576052536017 13.081859808329398 17898.971600088185 14.733191857039236 0.25695710865339355
0.7368314626326958 13.077381305211341 15702.408311564675 15.32380081084403 0.2600530833735838
0.7562463831176628 13.074176893942674 13990.30189518971 15.938688573119078 0.2632148705903088
0.7759067935363285 13.072070412613822 12388.858768093392 16.5753028552391 0.2664052843253333
0.7958065919090026 13.070979137913033 10908.384303998298 17.232058125891818 0.26960583930893633
0.8159314770094124 13.070709345358837 9744.358018287572 17.915889772120465 0.2728784593898342
0.8362878000151517 13.071337669631399 8655.58230213985 18.627830751761856 0.2762246588775262
0.8568555826776055 13.072579922752132 7695.866774772316 19.358780988352255 0.279558477172731
0.8776517544970233 13.07457223431818 6849.276779570105 20.119698929570244 0.28296211377577296
0.8986360918107815 13.076850254230806 6100.979009124229 20.911936206606267 0.28643850267581816
0.9198321151071298 13.07976798534154 5440.0779594857695 21.730678069906762 0.2899417728440278
0.9412044434323548 13.082975563775184 4855.401248005328 22.578060835388516 0.29348785981186093
0.9627750779986458 13.086354986476282 4337.0074168241845 23.460299384116706 0.2971174263396437
0.984515518686975 13.090037531854286 3877.27434409214 24.37851990430211 0.30082962485659215
1.0064240450947832 13.093873588188227 3469.6067860043768 25.32296096075058 0.3045315430161533
1.0284706477619168 13.09765478517357 3107.4958882575097 26.30629508562948 0.3083202328148374
1.0506874568996842 13.101555415841167 2785.3483923333238 27.330026701684503 0.31219748181016926
1.0730142727260863 13.105337254125917 2498.8026643776993 28.39127389361434 0.31613580156950755
1.095483723270891 13.109032585758243 2243.501197829706 29.488502312355216 0.3201176087744227
1.118075470454668 13.11259905867213 2015.9432280644144 30.63080777015161 0.32418829231618085
1.1407532027925542 13.115919990190056 1813.0387086378878 31.82004608168911 0.32834927621829196
1.1635263830459739 13.118943882796279 1631.8089665699663 33.051549531322024 0.3325674211659252
1.1863693236077195 13.121592521798004 1469.8689223095143 34.32794350219851 0.3368535606619602
1.2092789488267757 13.123919816965653 1325.0258469174728 35.65690978166666 0.34124554761069903
1.2322409470083244 13.125785132589657 1195.4296175664858 37.04047146356304 0.34574190505491514
1.2552589824548264 13.12733003099247 1079.3549313922656 38.476041356700605 0.3503064615707806
1.2782755394160963 13.12816073912009 975.2584108638795 39.963601912915884 0.3549435476371303
1.301301003821196 13.128491390419782 881.969851226306 41.512718737771536 0.35969803829764113
1.3243402555134272 13.128282784336767 798.1646870408279 43.125858420802004 0.36457206313454965
1.34735205052535 13.12741180454605 722.857549440126 44.80561559445685 0.36956710421264566
1.3703233260394472 13.12589190519897 655.1982029118155 46.54558011509229 0.37462373896881285
1.3932598035851838 13.123706687067775 594.3076692584666 48.35607599816898 0.3798020573009448
1.4160870540752688 13.120573775001807 539.499799509041 50.242171831930385 0.3851160240568901
1.438839265013159 13.116675034444931 490.09303146146857 52.20707113994895 0.3905684011032242
1.4615025175357077 13.1121008172539 445.5782851118181 54.25416768771932 0.3961604543539186
1.484044248805463 13.106622060352842 405.4109119073217 56.3835349943847 0.40186993617462685
1.5064318309985607 13.100195700433012 369.15043993702125 58.596830161445 0.40770604240012
1.5286765728340481 13.092867044655433 336.38252839893545 60.904223377511244 0.41370327527973555
1.5507454438772144 13.084614414415391 306.7546313098372 63.30998314306385 0.4198646234590703
1.5726027159159033 13.075287799524142 279.9653681452703 65.81864156385781 0.42619074071445845
1.594260833500773 13.065054345737483 255.71677001022587 68.43508412229417 0.4326879792932714
1.6156766233720163 13.053694746251525 233.75230016843932 71.16439126253617 0.4393708629943447
1.6368548239393141 13.04125592504689 213.82338579695394 74.01202488791876 0.44624636474770124
1.6577615664726182 13.027777563024248 195.76538075426717 76.98296835456375 0.45331405849738965
1.678368524934409 13.013097636291418 179.36714082162814 80.0806192135022 0.4605648229556875
1.698681426421894 12.997320776791238 164.4681084725135 83.31601476737774 0.4680380906795096
1.7186144627874584 12.98020382951767 150.94343419109578 86.69625804432887 0.4757439655591472
1.7382320404216336 12.96196526758007 138.63131814468844 90.22890557763658 0.48368699705839147
1.7574706855054267 12.942417602660907 127.42357486132707 93.92204817660607 0.4918750518433506
1.7763245180114786 12.921716489086707 117.22249487267713 97.78438853804218 0.500327850845735
1.794764631753689 12.899835672569504 107.93955925355914 101.82521490421958 0.5090610319872162
1.8127668971002842 12.876415014870764 99.4617271788891 106.05445697539844 0.5180815085125968
1.8303020457518018 12.851663231588619 91.73193748732587 110.48277986867045 0.5274024566738604
1.847378118810671 12.82567795318858 84.67454075281447 115.12165506516541 0.5370479991356409
1.8639655956822292 12.79837009822333 78.23614189113118 119.9833937921228 0.5470375743208703
1.8800262356757207 12.769560363598062 72.3432159599517 125.07602968492614 0.5573602190358116
1.895576845314436 12.739402470857039 66.95538118708602 130.41644987781524 0.568050677794242
1.910565584500159 12.707871512252641 62.02784630203154 136.0210627573369 0.5791420577853823
1.9249845903295353 12.67487152720706 57.50928634989067 141.90627411677693 0.5906523498839437
1.9388161955042345 12.64046220299303 53.37639464967965 148.08977004525423 0.6026009197913207
1.9520268240258154 12.604476286955975 49.58308700425892 154.5906015565156 0.6150232837980821
1.9646018124110547 12.567023581702763 46.10306745296313 161.42587498799048 0.6279390501908643
1.9765462191474086 12.52815756423046 42.91308223136124 168.60886835490626 0.6413347869007273
1.9878266578459425 12.48786676978044 39.98460762387687 176.17422069412686 0.6552927653537525
1.9984191970309773 12.445879413498897 37.28671335203715 184.14782691647656 0.6698525030590181
2.008325070518692 12.402588047891957 34.815300135438136 192.54830671950333 0.6850061376877791
2.017503949735195 12.357706301044885 32.53814794072736 201.40251541739863 0.700796657219781
2.025968250570093 12.311342301785132 30.442681993204417 210.75410272673727 0.717309301676933
2.033671198578005 12.263452908998822 28.515387901520203 220.62392629724584 0.7345266158374822
2.0406282216717204 12.214040472118281 26.7386046782558 231.0526326360653 0.7525243124306825
2.0468154444294555 12.163078586537685 25.098639599228992 242.08676799416045 0.7713749465568863
2.052205215981241 12.110625671404522 23.587986157022797 253.74802030167228 0.7910462314356026
2.0542506210270113 12.067437741442529 22.593098401422896 267.8860505790428 2.821301269584741
