M[M_sun], R[km], Lambda[1], P_c[MeV/fm^3], rho_c[fm^-3]
0.23841724892012095 16.20908015294055 2780876.1263280716 3.453507347168396 0.169602847481901
0.24841467408551954 15.866218091944555 2282225.0870712944 3.635542188751002 0.17197838501410587
0.2586948397249699 15.562889228215424 1881663.1263598378 3.8247531114239424 0.17437475108534764
0.26925786353574405 15.293618707357625 1558248.4248317482 4.020244446709528 0.17676621665656933
0.2801100617982878 15.053961453887899 1269363.4276019197 4.22234728369327 0.17914480889852682
0.29123786329433493 14.839942233462613 1060581.0883548409 4.432428074283892 0.1815472103116042
0.3026584731663116 14.648550724039547 889112.5950248502 4.650834347689492 0.18397728396538593
0.31435738930771256 14.477167058149945 761158.7185386812 4.877933280633452 0.18643668257601556
0.3263423969533741 14.323356821379823 641662.1602090155 5.111034192683237 0.18886561964126455
0.3386110482147735 14.18508192012655 542646.2236148063 5.353339654206816 0.19131644427190436
0.35116032446924345 14.060801901576534 460113.10822178086 5.605341661234176 0.19379723490870265
0.3639937027304257 13.948984244219048 391215.220854712 5.867452610259118 0.19631360687350338
0.3771163529299083 13.848298948483954 333448.73141250503 6.136567345460946 0.19880565609623216
0.3905192890942505 13.75766972519844 281124.3743178694 6.416107171016756 0.20132781834418523
0.4042055259659953 13.676214974929529 244057.2367918541 6.706884056558541 0.20388461156304458
0.4181746680421142 13.602693664381992 209478.3596673825 7.008997825714619 0.2064675391834445
0.43243175395568123 13.536765709445572 180194.26509915688 7.319066145691615 0.2090270042419712
0.4469685367852727 13.477322177342659 155299.33432038478 7.641676203373381 0.21163093292662796
0.46178997957729 13.424111147401511 134115.89504293774 7.977361818190712 0.21427936626528574
0.476895859560457 13.376289501681564 116022.43414370039 8.32420082978507 0.21693485398966425
0.4922824808974865 13.33365056878955 100558.47433823117 8.68212732525583 0.21958761635874324
0.5079481648043817 13.29553877195548 86418.086546102 9.054653594217836 0.22228849100180942
0.5239028144008787 13.261847071134286 75922.46210869453 9.442384448555549 0.22504033973240556
0.54012805677922 13.231682813879045 66124.44267780521 9.839924077276265 0.22776639818568925
0.5566326888791094 13.205171928725566 57683.436725402455 10.253402814357967 0.2305389051949523
0.573413107273591 13.181822526421934 50393.52030896114 10.683805087528643 0.23336204022103832
0.590475350608231 13.161562992077187 44087.40506862719 11.128164297615822 0.23618924448842615
0.6077973722545905 13.143707868747304 38623.1229316118 11.587270911356935 0.23903398391549216
0.6253982063518955 13.128448672784907 33881.81997795284 12.065220726445146 0.24193806618554123
0.6432720787117318 13.115397406929965 29759.243299586247 12.561705181654546 0.24489018632229606
0.6613991468103836 13.10451272677197 26175.280488797438 13.071672887640675 0.2478214258489783
0.6797978019996697 13.095273536463997 23047.25073103382 13.602597123996082 0.2508113020210291
0.6984416647921475 13.087761703688273 20319.335291379288 14.15538368683657 0.25386154919366943
0.7173616822804524 13.082056338229156 17935.097753520793 14.724016355744833 0.25690795166445785
0.7365180275955743 13.077443693809286 15847.396065333849 15.31410710432122 0.26000278750716693
0.7559222106910617 13.07420324686181 14018.177794159414 15.928451772749153 0.2631635685233898
0.7755665006370134 13.072058751469255 12414.246838352323 16.564114235781492 0.2663492121852697
0.7954530884116046 13.070934981291257 11004.387983678986 17.22026295625953 0.26954866700846625
0.8155708252270926 13.070743929596679 9765.539187419563 17.903458044241685 0.2728200219668125
0.8359117335038021 13.071318630021015 8619.011325872963 18.61437447746805 0.27616180395774753
0.856468535491159 13.072626975076437 7712.826626597753 19.3445125176857 0.2794933995707664
0.8772447254659194 13.074475015213567 6864.542317797657 20.104681730592596 0.2828958488055369
0.8982151975639389 13.076805209444295 6115.178783241884 20.8961331209942 0.28637088370960667
0.9193977339333811 13.07972333662612 5452.9754063101545 21.713498647538678 0.2898682647450934
0.9407656578139281 13.082879633862424 4866.578592521356 22.56000030435251 0.29341276346791034
0.9623098593768368 13.086271451485686 4347.322072481756 23.44131093819033 0.29704065950721353
0.9840517417812782 13.090097949029714 3886.8102216817324 24.357909963790654 0.30074630261654295
1.0059338779394686 13.093739114918025 3478.05689793311 25.301310383324527 0.30444669644838196
1.0279776189354426 13.09765552105957 3115.1339221669514 26.28354983198041 0.30823356333377244
1.0501702878151014 13.10146484028056 2792.3455111616263 27.30612744409686 0.3121087909574568
1.072506768444082 13.105424223898709 2505.2614493220653 28.36538752723142 0.3160397364972053
1.0949466221146003 13.108983866844918 2249.3890110097327 29.46131698672839 0.32001929989442995
1.1175063925737818 13.112511792551823 2021.3101405462219 30.602253441675302 0.32408798172366365
1.1401875471144818 13.115868975829514 1817.7925279859483 31.790048473428318 0.3282465284267498
1.1629404474675065 13.118870450421111 1636.2129710516074 33.01911085191879 0.33245631221883015
1.185776321721721 13.121546627650332 1473.8935657083045 34.29387714906419 0.33673965960455093
1.2086727204372887 13.123859361196615 1328.7068210197056 35.62112259025597 0.34112868039099353
1.231634506040119 13.125815242554884 1198.7336625235027 37.00286710534196 0.34562233775334145
1.2546266806835706 13.12724946910497 1082.3252963767954 38.43542766459473 0.35017732575244015
1.2776387371182671 13.128176663776758 978.0675959960704 39.92093678784987 0.3548109181842769
1.300649081202451 13.128483348095047 884.4328181959954 41.46788181121323 0.3595616683171416
1.3236832180593472 13.128310749637656 800.4233313612388 43.07872144672305 0.36443173930882067
1.3466810082789402 13.127453271177897 724.9506275046285 44.75604501574695 0.369423043625079
1.369640165947218 13.125890890383387 657.1049897180739 46.49211313139737 0.37446835476134616
1.3925340995868076 13.123649023973046 596.0779189426664 48.2893772582261 0.3795915845382603
1.4154003871811904 13.12072556686103 541.0992687369884 50.18256172118306 0.3849554704263396
1.4342694426172409 13.115012138722747 498.74048808376943 52.32471397374305 0.6632132297080484
1.4434636161997507 13.099797141818186 475.10308728380073 54.870156005411964 1.0004011445702736
1.445650041861601 13.0741742974761 462.18548592801335 57.99491332281081 1.3047047474692761
1.443047709779362 13.039318372197997 455.5069621603759 61.61366941890011 1.5849299903768974
1.4369661111268397 12.99581124567243 452.4661525550185 65.70926578545385 1.8438370142165934
1.428328920572247 12.944601690119367 451.7014723812373 70.27770218637775 2.084974484867742
1.4177527992525836 12.886281996552896 452.30839443198624 75.31740198009183 2.31610801994441
1.4056760501621237 12.821288805614927 453.6781174511433 80.83731398694874 2.552709132574834
1.3924365217993058 12.750442853162765 455.5066302865577 86.86819660429185 2.8196758947702207
1.3783158500415613 12.675201543882078 457.72802267408304 93.46767746708191 3.134797514223533
1.3631141182461095 12.593322461490619 460.07384505063186 100.58318893845916 3.2921307077108954
1.3470225929421975 12.502380924867621 461.3893192578277 108.0676083557665 3.344855908661598
1.3306030896239853 12.402324595066569 460.56882920693334 115.87194484935426 3.3890866407575
1.3144378842349513 12.294833612865109 457.10122928578886 124.00418826737584 3.434940177038823
1.2988456370303831 12.180990382689117 450.69243037170384 132.48046130434005 3.4825714782082446
1.2840913423000961 12.061933079923381 441.22375582640217 141.31819348308193 3.532049273357742
1.2703241000219283 11.938563782815406 428.83760801576847 150.53675976082144 3.583462371156801
1.2576773363171354 11.811751455945192 413.80820956803694 160.15713112651727 3.6369206422523286
1.2461911067195366 11.682343364349041 396.4317889681677 170.2015105558037 3.692507045076858
1.2359266377495222 11.550934588352417 377.15680262686453 180.69460388795176 3.7503446725172003
1.2268899629870953 11.418492264834152 356.432036705295 191.66248398269155 3.810555632116289
1.2190394619355618 11.28541587121037 334.73793916157564 203.13338716031114 3.8732527003840684
1.2123675294340728 11.152438586495757 312.5673983345518 215.13601615776898 3.938588310227493
1.2068247488774275 11.020127970190934 290.289309278963 227.67113717360246 4.0064727350106955
1.2023488512934524 10.888809888924207 268.32281826714325 240.80338196253203 4.077285384126779
1.1988578641462608 10.75890994578353 246.97494820981981 254.57163038333596 4.151165710401452
1.1962969290262755 10.630799094808664 226.46021108674182 269.01670675364585 4.228314308338216
1.1945626784662833 10.504867519879749 207.03192452033014 284.1838265660108 4.308925920089341
1.1935820110752329 10.381126724147236 188.77434227968888 300.1209697931821 4.393203713346841
1.1932719479504414 10.259835661873279 171.75263481689348 316.82083223781683 4.481013195323088
1.1935391836454896 10.141201561099257 156.02979110799103 334.386519617042 4.572881810310534
1.1943089625481087 10.025250148828885 141.59628492928863 352.88680234112087 4.66913133108798
1.1955049185579827 9.911907229909433 128.36809931738367 372.372381306428 4.769930436914663
1.1970232394873686 9.801331237926972 116.36500788429518 392.85765131495873 4.875234580146543
1.1988007387151178 9.693415505030806 105.49602233940746 414.4866031960924 4.9857869910490304
1.200756263791819 9.588174651228826 95.67977093260144 437.3097023609626 5.101723426049067
1.2028322944135343 9.485454076512998 86.84103782785976 461.38269492330096 5.223202937014835
1.2049531426655966 9.385125074033446 78.67749583670107 486.86761458463843 5.351028982946692
1.2070528329421595 9.287204218765144 71.7236303809363 513.7609736974715 5.4849288884057135
1.2090934523913521 9.191629187194614 65.3151131487441 542.2828384659894 5.626050671164202
1.2109984137369256 9.098216520110402 59.57829368525897 572.4459304794423 5.774128146304971
1.212721454221026 9.006803411543123 54.435893017857225 604.4742837331135 5.930324840541702
1.2142278040331413 8.917323205387666 49.823327908188176 638.4284865178911 6.094593219403153
1.215465936274898 8.82971518660285 45.690097295639674 674.5123181148753 6.267841198167632
1.2163955854056068 8.743837443731033 41.998982229285446 712.9002402809209 6.450759701504624
1.216990992656145 8.659521441381871 38.68262361574155 753.7106185821223 6.643529512839485
1.217204859456701 8.576784921474854 35.71074744307174 797.2045472651149 6.8473034076862325
