M[M_sun], R[km], Lambda[1], P_c[MeV/fm^3], rho_c[fm^-3]
0.23841724892012095 16.20908015294055 2780876.1263280716 3.453507347168396 0.169602847481901
0.24841735847767588 15.866169297571322 2282055.1810841695 3.6355943858015856 0.17197904898033037
0.2586996473982099 15.562819562468814 1881503.491148505 3.824860480919345 0.1743760645474061
0.2692670126505457 15.293445268835974 1557915.7797247493 4.020417428196693 0.17676833275685794
0.28012240339177186 15.053677341755849 1295317.0680697449 4.2225841638862915 0.17914757884487295
0.2912544041818441 14.839620015930434 1081003.871464972 4.432732119009593 0.18155063142888492
0.302677767248489 14.648279462566475 905350.866057605 4.651208994862054 0.18398134159043605
0.3143833991576493 14.476763353443943 747585.351506118 4.878382108244793 0.18644135940894388
0.3263699600373249 14.323021169203882 641433.9935487745 5.111583383099965 0.1888713422656307
0.3386432419713726 14.184777050805982 542348.210676008 5.353973397564102 0.1913227678341119
0.3511963851875522 14.060478026113167 459884.326708433 5.606063928148614 0.19380417664800478
0.3640338808687217 13.948669138009729 391013.53663756646 5.868267661256732 0.1963211543874051
0.3771627044934392 13.84800136264778 333289.14208267356 6.1375175735678935 0.19881445537366138
0.390568975175838 13.7573446815866 284760.3803397634 6.417162435294281 0.2013372238332413
0.4042587666602558 13.675813865009573 243898.93965150364 6.70804908462548 0.20389457199345146
0.4182345852438041 13.602393346966771 209345.17742400157 7.010330774514683 0.2064789352554669
0.43249466939606207 13.536351260814316 180059.65705242808 7.320522668538655 0.2090390108204545
0.4470381328580777 13.476990910173523 155181.37434319095 7.643262002601658 0.21164354083970527
0.46186549422189843 13.42375646012175 134003.18824295516 7.979082818807229 0.2142925426839066
0.4769777588164861 13.376051184728107 115931.63506645591 8.32613780568102 0.21694968396997835
0.49237142675165896 13.333450437318287 100475.62531673546 8.68421586052504 0.21960298211691398
0.5080422115868218 13.295372761672553 87231.9499398508 9.05690046437322 0.22230444748851363
0.5239952845858928 13.261550728194678 75859.38212045727 9.444797053741993 0.22505688375037958
0.5402359295169984 13.231490962004942 66064.42014231351 9.842609919037832 0.22778481587567367
0.5567472207154885 13.205059919614914 57628.805882757464 10.256274263008224 0.23055788032339544
0.573535937976364 13.181633101832047 50343.09407571508 10.686870402717243 0.23338154307365253
0.5906012339986392 13.161388405381173 44045.00112580284 11.13155730737464 0.2362108322747298
0.6079307900408234 13.14356279021582 38584.89260719299 11.590880662370228 0.2390561821271899
0.6255435229655053 13.128374660424145 33845.6176729393 12.069057517310393 0.2419608799261427
0.6434153514044854 13.115310516572784 29488.854172820185 12.565932846974327 0.2449153242209574
0.6615461667543466 13.104298692052232 26145.046169841804 13.07615431569575 0.24784712997921352
0.6799607492039256 13.095210163840427 23021.595477127554 13.607343867948238 0.25083757190732514
0.6986101282984575 13.087728558829097 20296.26295246229 14.160408330669686 0.25388846830722905
0.7175327900890117 13.081948592257989 17914.03612361295 14.729523839014952 0.25693745755034747
0.7367071228009037 13.077389187575086 15828.564607739001 15.319925610667411 0.2600329768694346
0.7561164304165527 13.074188802949843 14001.49774358305 15.93459623882666 0.26319436172033595
0.7757685588935238 13.07202195056727 12398.725307935669 16.570829957412993 0.2663828682485022
0.7956615994846227 13.070955953487049 10918.137502428195 17.22734271833761 0.2695829832834672
0.8157873970127674 13.070747055696215 9752.911731049839 17.910919855539404 0.2728550974629595
0.8361366683291015 13.07137954000802 8663.373014063085 18.622510578970864 0.276200049068154
0.8566995503578579 13.072624350505542 7703.0928237404005 19.353076675616087 0.27953246015924715
0.8774894658014869 13.074550591689375 6855.436785136382 20.113695251621063 0.2829356219152601
0.8984673989903965 13.076850644499984 6106.822920815969 20.905618304497448 0.28641146934702966
0.9196595622831973 13.079758796717645 5445.120841753946 21.72380983029493 0.28991238470593594
0.941031537703514 13.082976946468177 4860.083552442613 22.570840290865306 0.2934578365255055
0.9625886945113213 13.086308099055815 4341.039508878187 23.452707817179075 0.2970867350156015
0.9843236599015058 13.090010441660985 3881.2777466369894 24.370279950539455 0.3007963122225734
1.006229462170813 13.093838106577172 3473.0808122367653 25.314304903876938 0.30449762074693576
1.0282707640859823 13.097597626560688 3110.4606787711677 26.297201315021756 0.3082855815248735
1.0504817711071925 13.101583429185878 2788.1747804024294 27.320471491657493 0.3121620221427702
1.0728054864430843 13.105254840885134 2501.2656755398675 28.38092406590014 0.3160973930523378
1.0952703169732663 13.10899745215892 2245.7024977259 29.477633071303615 0.3200783029029823
1.1178391596259987 13.112509003500934 2018.1559203344355 30.61939110374697 0.32414818587233396
1.140523535876837 13.115861471407232 1814.931685733234 31.808052284662647 0.3283081950712231
1.1632879430811145 13.11889035123495 1633.5906636357356 33.03857954204773 0.3325229963656987
1.1861299295033958 13.121591705344288 1471.4893493524148 34.314322632013294 0.33680801920024833
1.20903685843131 13.12387828699486 1326.509528953469 35.64260077024631 0.3411988198761238
1.2320028742189613 13.125792943453163 1196.7371250840354 37.02543578481054 0.3456940974171622
1.2550043356456975 13.127283802475905 1080.5181336771418 38.45980218310457 0.3502548272853276
1.2780227886092839 13.128152570889284 976.3843720140998 39.94654237042847 0.35489051608542305
1.3010434908132722 13.128494706932518 882.971723518596 41.49479068369888 0.35964351073360074
1.324070564656604 13.128252942366673 799.0637868250295 43.107010561172174 0.36451595423444016
1.3470787041646735 13.127416628328321 723.705830176931 44.78579451048194 0.36950950074950384
1.3700505713254516 13.125919182901747 655.9574071255099 46.524200693283305 0.37456160670915817
1.3929646310348855 13.12363934205394 595.006156675261 48.33359401323847 0.37973802369238707
1.4157990997830658 13.120602493167654 540.1408483231634 50.21852043418794 0.38504996790581236
1.4385597165447959 13.116787945378848 490.6953843126406 52.18217920153434 0.39050022481016217
1.4612151215251326 13.112179354312966 446.1173274523516 54.22796050847663 0.3960901849302312
1.4837591435366 13.106703164446428 405.9050563741886 56.355289637233795 0.4017942017756494
1.5061489705406899 13.10031499948736 369.596304695867 58.567089141472565 0.40762772142946285
1.5283895400050953 13.093012752984626 336.7830319594388 60.87289315491234 0.4136222025357038
1.5504480239176606 13.084802363919994 307.1587230047086 63.2769640866673 0.4197806799673202
1.5723205990549618 13.075480656604228 280.32165805918925 65.78382830346554 0.42610387523030707
1.5939653958750122 13.06521939390793 256.0482891523395 68.39836345118636 0.432597814694451
1.6153904881769847 13.053876650429295 234.03513680001979 71.12564072859067 0.439277189275926
1.6365639811277046 13.041502228799226 214.09975722870178 73.9711138497871 0.44614903987708604
1.6574532824677428 13.027892298326115 196.00574150903847 76.93890695219883 0.4532092391019372
1.678071137938237 13.013322459972896 179.59484079825398 80.03408552224505 0.4604559261309999
1.6983468642367567 12.997404814909954 164.68211307826886 83.26684701085247 0.46792466582729536
1.7183157986193465 12.980428155420611 151.13310515445974 86.64428137289045 0.4756257198647267
1.7379127216515025 12.96220240863447 138.8174202163551 90.1739329650754 0.48356373620311277
1.7571854552264676 12.94275309649647 127.58237015054404 93.86387965461246 0.4917464970977086
1.776027328399117 12.922007881490925 117.3728579316154 97.72280832087382 0.5001934862404422
1.7944822610103413 12.90018055583751 108.07881523802364 101.759989815658 0.5089204763516724
1.8124986469221298 12.876923182368056 99.59229478919471 105.98533693059588 0.5179345079173445
1.83002977103718 12.852093769570532 91.84795235933849 110.40949633668379 0.5272485783274342
1.847112757180326 12.826106238557067 84.78149568431887 115.04391767361949 0.5368866314589464
1.8636988084503237 12.798778122356383 78.32827709554618 119.900888500472 0.5468682150558702
1.8797721648358856 12.770078353762731 72.43631007510182 124.989656289753 0.5571870108620394
1.895303378134023 12.739833543069192 67.03889171032779 130.32465306521172 0.5678684904792423
1.9103092481628505 12.708385096547525 62.105803415076174 135.92345029766204 0.5789502775601585
1.9247310201137093 12.675379327931067 57.58420990606878 141.80242296971446 0.5904505509391691
1.9385706637159201 12.64101886421497 53.44372577901852 147.97922282939004 0.6023882734712321
1.951792112673228 12.60509893149072 49.64625200154385 154.4728617012425 0.6147989235841717
1.9643892154460878 12.56764679455128 46.161645818128335 161.30185700054554 0.6277072700003191
1.9763403526511927 12.528907920470965 42.96966622988259 168.47660159897598 0.641089833887671
1.987629785420089 12.488539245323723 40.03241357153748 176.03307585440405 0.6550336145782597
1.9982341718657715 12.446657380323101 37.33509233072645 183.99711992477694 0.6695781241627897
2.00815122006473 12.403421521509964 34.8570334934586 192.3889144249388 0.6847210637700205
2.0173406678678947 12.358573810923097 32.580733679824846 201.23209059486587 0.7004942696096771
2.0258247753823624 12.312287896434858 30.48051702312957 210.57176981891777 0.7169883060340665
2.0335348832138593 12.264383770681722 28.55050056823953 220.4304817944894 0.7341916390428337
2.040504870997776 12.214918338907658 26.768557119560903 230.8453804506888 0.7521680786042247
2.046699977255953 12.164107092047454 25.13020896530347 241.8663905943103 0.7710020537470993
2.052124483958296 12.111818728558633 23.619225731982795 253.51618872207257 0.7906632855833686
2.056709740763821 12.057843808011732 22.226127542432717 265.86553509508093 0.8113076098718152
2.0605298815499484 12.002559615465088 20.939774357096166 278.9394779884216 0.8329039924156623
2.063509274928407 11.945705407931426 19.75240104680724 292.81569687546306 0.8555895759305754
2.0656672597275905 11.887464722746232 18.658784741383748 307.53892788175773 0.8793977165938062
2.0669901383902736 11.827793175912458 17.648310881275734 323.17990086494444 0.9044052137352568
2.067463294280447 11.766692373964254 16.715234473937496 339.8165940022295 0.9307342163909812
