M[M_sun], R[km], Lambda[1], P_c[MeV/fm^3], rho_c[fm^-3]
0.23841724892012095 16.20908015294055 2780876.1263280716 3.453507347168396 0.169602847481901
0.24841527953620374 15.866158443268937 2282058.559359845 3.635559267669344 0.17197860226440648
0.25869584589123445 15.562915597283828 1881613.2511323441 3.8247882425774082 0.1743751808483541
0.2692606829884282 15.293503926143567 1558173.419452354 4.020301045616112 0.1767669090368033
0.2801140750710742 15.053890623092771 1295430.2670642808 4.222424789520435 0.17914571520892797
0.2912437122628809 14.839823427114064 1060506.696328522 4.432527555333434 0.18154832967434567
0.3026645744812893 14.64849561381854 905612.1899147124 4.650956928559418 0.18397861158039253
0.3143652943126676 14.477063468042031 761041.9128356124 4.878080131743888 0.18643821278068992
0.32635193606535534 14.323224550897898 641611.383894895 5.111213880017441 0.18886749200299136
0.33862036404631785 14.18505388613511 542518.5574712339 5.353547004875958 0.19131851324010737
0.3511728850762898 14.06070990843438 453059.49039976165 5.605577974071717 0.19379950612184998
0.36400794532115893 13.948939304655552 391163.4414610017 5.867719278938667 0.19631607627182562
0.37713097877044993 13.84822186536544 333411.5473899466 6.136878239126855 0.19880853502561482
0.3905355226582714 13.757559333362487 284893.5171061158 6.4164524283683715 0.20133089559631184
0.40422107732928253 13.675980520944126 243997.81708058628 6.707265224037393 0.2038878703619132
0.4181949753025153 13.602597163950154 209429.50649084125 7.009433929258542 0.20647126765928359
0.4324513046910322 13.53648755241002 180135.82347276318 7.3195426768057095 0.2090309324386574
0.44699020224652486 13.477239796446359 153464.1764427156 7.642195027330167 0.21163505784183345
0.46181552817543436 13.424003860605797 134074.34882721785 7.977924873097526 0.21428367715691907
0.47692166927781826 13.376237673998382 115995.80251505811 8.324834539789586 0.21693970583470346
0.4923110567143338 13.333573661053308 100530.90614265889 8.682810616907364 0.2195926434676613
0.5079785410785098 13.295530647832782 87280.72408462179 9.055388683804166 0.22229371135118411
0.5239309503425307 13.261668848764941 75900.02483381583 9.44317375669025 0.2250457522748476
0.5401635255650662 13.231583379997735 66104.97043290873 9.84080277054214 0.22777242367103015
0.5566674741013344 13.205142936646723 57667.30179874357 10.254342226125583 0.2305451130228199
0.5734537255017076 13.181862845071112 50376.512946861985 10.684807919517302 0.23336842066913852
0.5905167877804807 13.16141874063086 44069.15246667347 11.129274327382337 0.2361963069748596
0.6078408271793345 13.143666608246024 38609.5432878881 11.588451843376104 0.23904124607259541
0.6254461460726595 13.128409447927323 33868.32094401453 12.064521222690315 0.24192361386171712
0.6433261360362662 13.115369560753061 29747.395097187968 12.555392318600683 0.2448129292448523
0.6614061433394347 13.104481730106711 25968.569556721814 13.079897841149851 0.2699457980942328
0.6739201090099957 13.092664047183405 23915.13816075434 13.69224283045303 0.4824020370565228
0.6803908785734063 13.073655152773926 22649.339590388867 14.416603169839789 0.6744229785247251
0.6828855794886427 13.046424353965838 21907.805842061643 15.292322375469983 0.8502417269012699
0.6827870588730243 13.011539202617408 21450.249147873008 16.284099496377383 1.0118024292776622
0.6810129236026409 12.968800844226188 21131.937241838015 17.39913091115584 1.15853736173497
0.6780801160064368 12.919024364489132 20887.55401337728 18.63987984677298 1.2990311888194777
0.6742939930584038 12.862572392014583 20681.85896305798 19.99177925668466 1.4228900410662297
0.6699848285715838 12.798912508592137 20460.469410340218 21.461694992484297 1.5408796705932066
0.6654280057275465 12.728804435997679 20197.32891962587 23.042512583720622 1.6627111483187522
0.6606690833629598 12.652721855914054 19899.34246629695 24.73405717219655 1.7844154386773703
0.6558980914995635 12.571229576494572 19544.10254176318 26.558191983904123 1.9290437089553079
0.651115971842763 12.4856485056912 19155.051017318012 28.527826218718577 2.1042620503560365
0.6463002065080092 12.395354734550313 18725.457784591086 30.626917092188748 2.2402941353916166
0.6414884596810411 12.298127202876568 18230.683216653935 32.84432824952116 2.3145267725254075
0.6369648473468115 12.19121305862711 17612.904716592697 35.1782514170808 2.3468058023707243
0.6330529302247081 12.074825698958321 16847.273365293357 37.583372098006215 2.3620157470994103
0.6300345873143589 11.950688806548749 15939.170844232596 40.03746969173206 2.375841045940432
0.628072574229252 11.820207009175338 14911.096645604457 42.58836281861175 2.3898042968118163
0.6272755184570815 11.685242883620496 13794.560653851428 45.23567352129158 2.4041571806684594
0.6276954274932863 11.547107448636476 12626.181682222787 47.934685322427974 2.4187201667522045
0.6293616840593966 11.407260947169933 11438.73300889213 50.71825406300599 2.4337107000482177
0.6323107999977678 11.26729746202956 10265.877946171766 53.60697517410183 2.4492448114998444
0.6364885735541828 11.128488305333427 9136.99452140055 56.60218691101816 2.4653298038232747
0.6418691701757461 10.991831207299136 8073.917773780628 59.65511411684536 2.4816914022728644
0.6484216850278938 10.858227603573239 7087.98705089053 62.81579826925879 2.498604335330544
0.6560842075845493 10.728767231142227 6191.633943000995 66.09344138246371 2.516116543629873
0.6647933458198099 10.603765321778372 5384.1112070381205 69.4903884688015 2.53423757722937
0.6744941987603253 10.483770862650315 4667.065107851211 72.97024195096752 2.5527603710964843
0.6851154066626604 10.369114229851371 4035.316393203793 76.56733067556401 2.5718718900992443
0.6966077332791254 10.26028375392264 3483.7918296570733 80.29689131826393 2.591652800639322
0.7088880953200191 10.156969404396799 3004.6530327312435 84.16245329133461 2.612118158485949
0.7219043673205648 10.059318980639654 2590.369622339493 88.15788085453784 2.6332285708052217
0.7355907446339818 9.967162588639521 2233.60094799385 92.2656147241854 2.6548799722179948
0.7498857435800982 9.880474252200619 1927.3766377931188 96.52568597324458 2.6772904766355294
0.7647409496928532 9.799022333666674 1664.7195607673543 100.94296306221551 2.700481184597903
0.7800912875831421 9.722406469874578 1439.5060836370014 105.52277091099337 2.7244753062926668
0.7958844470575985 9.650527427744903 1246.6823604645422 110.27089780225026 2.749298172485781
0.8120619991952017 9.58309127989918 1081.5878847358504 115.16464939954825 2.774814427075355
0.8285869461263428 9.519755061817627 940.1065737979968 120.23825332767183 2.801207841686964
0.8454085174708361 9.460328843160942 818.6627799344456 125.50316822926814 2.82853397815512
0.8624780687201261 9.404459754659225 714.4674272295712 130.96701980259775 2.8568262293289224
0.8797630617809414 9.351927057171215 624.7215417121039 136.63800623550614 2.886119535355653
0.8972080189404742 9.302390795830641 547.4265098651478 142.52497127796272 2.9164496699646034
0.9147877962894054 9.255638444015613 480.75263128356914 148.63750872997338 2.947854638009381
0.9324426856802105 9.211440168963442 423.10817213145407 154.9829929062644 2.980369971178311
0.9501670692444718 9.169600790435481 373.1610193615497 161.5619404701464 3.01398442337804
0.9678925789037628 9.129787662946342 329.80969934384285 168.40179549570522 3.0488382019346063
0.9856008797884378 9.091870292239426 292.1283300376228 175.51486441573468 3.0849704022139175
1.003276076995804 9.05557996924156 259.2655849911878 182.91472534876132 3.1224488961479366
1.0208538716477191 9.020848170710629 230.589132086195 190.61571885667504 3.16133991174537
1.03830705391214 8.987461131497863 205.5474294400754 198.63313334843988 3.201699808607911
1.0556566583285691 8.955200893807616 183.48107542977002 206.9835444802004 3.2435982947912914
1.0728102238096648 8.923889556475515 164.16548657080375 215.68472943174237 3.2871199019523094
1.0897599711219785 8.893473242016801 147.1731030878094 224.75556963133903 3.332331893691063
1.1064836541928964 8.863829018689186 132.20747432840474 234.21664775752126 3.3793270755639084
1.1229593713561152 8.834649529697073 118.9659195984011 244.08980176172304 3.428199772916698
1.1391556339709898 8.806045059704312 107.25373534543952 254.39854548884375 3.4790376674260317
1.1550559915532534 8.777658082611246 96.86093024344655 265.16838596708715 3.531964715841199
1.170598263755117 8.749645637385465 87.65963852468151 276.40909297660835 3.586963833150324
1.185809386224547 8.721712428749694 79.44957053985955 288.1624090126671 3.6442580007899443
1.2006385260033383 8.69387961107308 72.14154851962142 300.461864035679 3.703963569108873
1.2150776889075519 8.666036380877063 65.5266699927526 313.34105185469735 3.766232883500398
1.2290838976897753 8.638028555161808 59.79825421643659 326.83671613469585 3.8312110583181216
1.242668728313545 8.609855322708082 54.57761893167517 340.98803180420384 3.8990528903104638
1.2557749956270234 8.581450563693643 49.908147820231996 355.80685149253054 3.969752147579126
1.26841128007688 8.552686652108573 45.70906524955602 371.3596674008242 4.043610661102095
1.2805251732831808 8.52356444640621 41.93584339252278 387.70254605969706 4.12087254610822
1.2921570005726364 8.494003642247021 38.53672890187579 404.8822164755207 4.20169837436868
1.3032388863779378 8.463927195998558 35.47606817956985 422.9196682475314 4.286099025946254
1.3137670396805436 8.433294812233374 32.7046944872706 441.9169131010147 4.3745588559638335
1.3237330401740734 8.402080334837876 30.166978643820972 461.9239426974318 4.467230791418194
1.333112251963868 8.370237683823548 27.906028247062178 482.98973949480853 4.564252092615088
1.3418894937209407 8.337711938719346 25.89249168557785 505.231530286108 4.666157337383727
1.3500598168600713 8.304501240871044 24.030098326312693 528.6724213889686 4.772882422882148
1.3576062158121522 8.270557747095474 22.340214689712706 553.462200079264 4.885140352566946
1.364508472326098 8.23580332233245 20.805665810976603 579.6384559716915 5.00288426016244
1.3707670723175807 8.2003273878143 19.389729118490433 607.3595409741033 5.126868371970073
1.3763805791523782 8.164005106872263 18.136475931191974 636.6913020214508 5.257152010506834
1.381304480048532 8.12684832124194 16.974963071089594 667.7895499593892 5.394381849703755
1.3855626253073496 8.088857686470005 15.919223108869497 700.7913436327224 5.539059309174077
1.389132578608413 8.050031490847736 14.952102819025244 735.808188527475 5.691419091946949
1.3920184337065262 8.010330260130486 14.069712251034813 773.0360282096149 5.852258399841606
1.3942058222561777 7.9697933318006875 13.26270779051848 812.6483556074172 6.02213777489054
1.3956872662511128 7.9283865879777045 12.526278645007956 854.836680393869 6.2016808898331
1.3964570337613986 7.8861136513156564 11.85201114629738 899.8088251045318 6.3915454484299445
1.3965351360159974 7.843064604634956 11.224845789122776 947.7983796225797 6.592474248695561
