M[M_sun], R[km], Lambda[1], P_c[MeV/fm^3], rho_c[fm^-3]
0.23841724892012095 16.20908015294055 2780876.1263280716 3.453507347168396 0.169602847481901
0.24841489358754237 15.866268580042693 2282088.9388367455 3.6355654046702974 0.17197868032937963
0.2586957003416444 15.562984789229938 1881685.3334067932 3.824800866378878 0.17437533527661328
0.2692620030650756 15.29356243893927 1558108.5987416825 4.020321383596568 0.17676715783340585
0.2801137220745046 15.053915779054462 1295408.456079806 4.222452640212764 0.1791460408795654
0.29124503155114406 14.83984422310794 1081245.8214946599 4.432563302679004 0.18154873190418666
0.3026658758955442 14.648504641157562 905558.4906277964 4.651000976731185 0.1839790886451571
0.314370981737589 14.476926909572223 761026.2569344498 4.878132901382876 0.18643876264611484
0.32635475044782597 14.323182769394439 641572.4793808665 5.111278449370972 0.18886816482273577
0.33862467331357154 14.184941256051031 542479.7871479605 5.353621515133203 0.1913192567118004
0.35117624644920975 14.060705501530155 460004.91042916995 5.605662892029469 0.19380032227210275
0.3640118681442167 13.948845502194459 391122.79618115304 5.8678151054772405 0.1963169636422284
0.3771378454695435 13.84815628723037 333381.19893325213 6.136989958321575 0.1988095695647758
0.3905394604480377 13.75757975727927 284861.43960686534 6.416576496539451 0.2013320014063446
0.40422907612583703 13.675901468972492 243968.353749503 6.70740219697501 0.20388904141474143
0.4182010647606024 13.602520925801139 209417.4931362525 7.009590644317416 0.20647260749776636
0.4324610044792412 13.536562017761943 180129.0016958451 7.319713920197848 0.20903234405209803
0.4469994344535484 13.477177847927258 155245.28344457637 7.642381469434888 0.21163654015170494
0.46182412363079234 13.42395324385879 134060.55683224447 7.978127210471689 0.2142852263033395
0.4769313648806384 13.376242587996245 115986.43301408143 8.325062268693635 0.21694144938513743
0.4923218591716616 13.333523310774053 100524.01519503561 8.683056164148933 0.2195944500062384
0.5079888870241394 13.2954711862241 87271.95457902546 9.05565284592438 0.22229558733825389
0.5239417343313004 13.2616228009695 75889.5463220425 9.443457403663933 0.2250476973343448
0.5401750208633024 13.231590067233892 66097.40517597273 9.841118540748766 0.2277745890099772
0.556682649034404 13.205079833275043 57657.954349799365 10.254679817333587 0.23054734389556514
0.5734659501846083 13.181761320589386 50370.47320954745 10.685168302741427 0.23337071358209274
0.5905326315472743 13.161449133171082 44067.15975263 11.129673235930413 0.2361988450024819
0.6078581547666612 13.143633810715116 38605.4437555506 11.588876233089488 0.23904385586276247
0.6254639614885976 13.128421088393383 33865.53254578276 12.066927010939093 0.24194821183413256
0.6433356854407262 13.115395296773555 29745.876972618382 12.563585281611724 0.24490136548588207
0.6614691234617743 13.10444569866676 26162.538824944222 13.073665832444103 0.24783285678397252
0.6798684146256505 13.095268030106457 23036.608415918032 13.604708050772624 0.25082298451474644
0.6985176924648768 13.087737093188082 20308.558384164855 14.157618191066812 0.2538735203651835
0.7174357221447606 13.081950633701727 17925.40050934314 14.726465565857657 0.2569210731049715
0.7366058218676439 13.07750135787479 15726.251459571606 15.316694619571969 0.26001621284876325
0.7560087620485669 13.07419068545312 14010.541121149667 15.931184234652815 0.26317726234747246
0.7756535110780417 13.072060289652462 12407.67352515827 16.567100715278915 0.2663641790270066
0.7955452802575387 13.070946145246543 10925.606499840314 17.22341131409621 0.2695639273960518
0.8156695291869377 13.070746318527105 9759.642871889253 17.906776287835342 0.27283561992764804
0.8360112463435343 13.071368808185825 8669.621766456177 18.617992549194657 0.2761788113110352
0.856566792125557 13.072580978694303 7708.204849447313 19.348320930889948 0.2795107695051073
0.8773561983011071 13.074480712656632 6860.095979923277 20.10868995892795 0.2829135355347157
0.8983292346114803 13.07682624613252 6111.57671102911 20.900351079472294 0.2863889317034487
0.9195146815271464 13.079746281713504 5449.585471642382 21.718083884461503 0.2898878842667595
0.9408820296981601 13.08285860302712 4863.537425073302 22.56482067707294 0.293432806752743
0.9624338253808842 13.086284205918234 4344.525984269007 23.44637893564744 0.2970611484989433
0.9841693314782546 13.090010927861956 3884.3612263404884 24.363410643209587 0.3007685408627292
1.0060640492813697 13.093817864730212 3475.8499544158362 25.30708876104312 0.3044693413648228
1.0281108065935742 13.097669099669845 3113.0744769266867 26.289620326350832 0.3082566946034874
1.0503237869191278 13.101606019710843 2790.440153884065 27.312505884321563 0.3121324615380357
1.0726293825018214 13.10528895480617 2503.3850266322693 28.372296183735042 0.3160653747260982
1.0950902734852885 13.108954682506653 2247.700073737238 29.468572260478865 0.32004553676377046
1.117650373469055 13.112491666987207 2019.924954020516 30.609874020202636 0.32411475261228867
1.1403341139638927 13.115881420319043 1807.9441118636573 31.798054173505285 0.32827394954631056
1.163108826083222 13.11903242558832 1635.063458001156 33.02776786454051 0.3324859642137659
1.1859301107675215 13.121547902406075 1466.0511950085818 34.30296847356253 0.33677005650290776
1.2088363735355458 13.1239199650543 1327.7377851396764 35.630673081387854 0.3411598686262645
1.2317962625261767 13.12576057340517 1197.8394559526728 37.0129024616673 0.34565424630152347
1.2547936052865871 13.127291881217024 1081.5654677139876 38.446265911265606 0.35021178718110246
1.2778115049380532 13.128175225246045 977.3244040959614 39.93232239077364 0.3548463116416698
1.3008244210143973 13.128495220431482 883.7938283886838 41.479846880780265 0.3595980596675034
1.3238518213408534 13.128293592319796 799.8472471434701 43.09130019430232 0.3644691854541809
1.3468611257161447 13.127479106318455 724.3959304069315 44.769273069048594 0.36946148661244355
1.3698138652828242 13.125870790373233 656.6007810437844 46.50638067640497 0.3745098186895556
1.392739349112546 13.123695463627298 595.5959573914929 48.3148551627257 0.37968465134905244
1.4155649326233195 13.120602483104252 540.6670539845383 50.198807051267565 0.3849949102633583
1.4383270447508167 13.116925023878322 491.20742924405755 52.16143202379832 0.39044340056264953
1.4609667466749152 13.112174933928522 446.5374583115624 54.206117298060335 0.3960316166351384
1.4835173387790455 13.106792022161638 406.3184278621977 56.33174811733882 0.4017310797959649
1.505900614437649 13.10038710669841 369.9803843639539 58.54230128188658 0.4075624442726913
1.5281423626666495 13.093101483667377 337.1302648458887 60.8467810257147 0.41355463257318986
1.5501980836237583 13.084850979813234 307.46427050647657 63.24944468449844 0.41971071810405
1.5720558889814422 13.075585295314827 280.61385471645696 65.75481384519637 0.4260314788234051
1.5937181697656573 13.065285885107574 256.30252066801336 68.36775962679283 0.432522669511491
1.6151357252337906 13.053941954658905 234.2697738054643 71.09334552782202 0.43919912037635084
1.6363195385313822 13.041641761726 214.3139914144956 73.93701844224105 0.4460679289769589
1.657213029117283 13.028169839172087 196.21952371752425 76.90218681734363 0.45312188413523474
1.6778277814490061 13.013540065558752 179.78209980446385 79.99530547373273 0.4603651741611876
1.6981086638161764 12.997635800758877 164.85455768083247 83.22587229015225 0.4678301414485482
1.7180613447951454 12.980599676791526 151.2884560239959 86.60096633449685 0.4755271791799933
1.7376668078545803 12.962395150173563 138.95419434167655 90.12812182382261 0.48346101740935293
1.7569456078132093 12.94309913286899 127.7255852103946 93.8154058484496 0.4916393680593904
1.7757982626463031 12.922439325768776 117.50092365359943 97.6714921165336 0.5000815171396766
1.7942287289410215 12.900352471722313 108.18848491004371 101.70563699914982 0.5088033497239225
1.8122297320313412 12.877044082087268 99.69918168360088 105.92773920912684 0.5178120123465545
1.8298105858406044 12.852569718148215 91.94992006279543 110.34843005881585 0.527120353368757
1.8468886424793767 12.826584172956341 84.88155188311327 114.97914100235297 0.5367521677119849
1.8634726052077304 12.799215578166285 78.4198189292171 119.83213989285728 0.5467270942450417
1.8795435715688236 12.770356763098134 72.51339330742427 124.91768499774393 0.5570426838267535
1.8950919283173902 12.740275897083393 67.11410695707701 130.24816388988816 0.5677166839286278
1.9101022796985367 12.708830896340213 62.169038693815935 135.8421165986017 0.5787904803869693
1.9245260990532884 12.67580420099855 57.64494881928935 141.7158924567456 0.5902824086826621
1.9383677996626747 12.64145293398033 53.499924771772385 147.887114624138 0.6022110960475974
1.951611378175944 12.605711610602055 49.70040396253457 154.374762301855 0.6146119894132401
1.9642070349146432 12.568281267128098 46.21446994418401 161.19852775583036 0.627514155497154
1.976175652523694 12.529543837580128 43.015884570666216 168.36640170010887 0.640885747856558
1.9874503264645809 12.489171196709474 40.078105329893184 175.9154812995052 0.6548177036023033
1.9980744855167514 12.447358650737048 37.376509379658934 183.87156113778653 0.6693495303795971
2.007986461432066 12.404038957737617 34.89515833011443 192.25612127951854 0.6844835625638307
2.0172054967418926 12.359250321352166 32.61150681555418 201.0901089412018 0.7002423491893298
2.0256915958408084 12.312955669750076 30.512234730851482 210.41987069986413 0.7167208888357418
2.0334179820695497 12.265152158684048 28.5798276655044 220.2693280823326 0.7339125783656122
2.0403917325575813 12.2157545462181 26.79810350220446 230.67272775358117 0.7518713158423403
2.0466126059263265 12.165020700569833 25.15672502943037 241.68280679179128 0.7706914180830102
2.05203474252617 12.112631692008344 23.64345941260066 253.31922409117445 0.7903323572876937
2.0566424126890173 12.058732470797134 22.247515997619658 265.65564465243534 0.8109598766290459
2.060467028888681 12.00344091618292 20.95885481170985 278.7139583186673 0.8325332444315285
2.063476903963985 11.946662968286416 19.769492336673803 292.57486655318337 0.8551988806761136
2.0656418965693573 11.88846669084479 18.676437210007233 307.2797725285624 0.8789801408038238
2.066981149493636 11.828845612319299 17.664235482443345 322.9025688215186 0.9039643906183742
2.067460455362716 11.767730443282334 16.72994676844007 339.5194345763195 0.9302679228840717
