M[M_sun], R[km], Lambda[1], P_c[MeV/fm^3], rho_c[fm^-3]
0.23841724892012095 16.20908015294055 2780876.1263280716 3.453507347168396 0.169602847481901
0.24840952677675515 15.866360803244714 2282308.1268329103 3.63545960207285 0.17197733448032526
0.25868576893666895 15.56316400360791 1882108.234389989 3.824583234725626 0.17437267296625975
0.26924177983587083 15.294074536526225 1558722.208683589 4.019970768200071 0.17676286871927077
0.280090101240116 15.054351955964394 1295947.433171474 4.221972518677763 0.1791404266031052
0.2912098883618692 14.840450894257842 1081791.0205361424 4.431947060724906 0.18154179793750327
0.3026261873477155 14.649125943297486 906093.6662757879 4.65024165147407 0.18397086475502764
0.3143217039456315 14.477711185902642 761526.1205261365 4.877213701182062 0.18642909089958298
0.326297592009762 14.323903189895976 642080.6087938742 5.1101654109598895 0.18885656684043725
0.33856039379853925 14.185578551830012 542944.4628461428 5.352337137605171 0.19130644104895667
0.3511021577537011 14.06134293997347 460429.9049619004 5.604199134003516 0.19378625402888902
0.3639315568316625 13.949537758828649 391528.13815823646 5.866163338293854 0.19630166799101703
0.37704456881506304 13.848845605472624 333744.81973537017 6.1350642891556015 0.19879173753359886
0.39043906143499246 13.758172882378727 285190.1705476309 6.414438004075867 0.20131294118807408
0.4041170522300335 13.676525653030927 244286.25227191526 6.705041307048015 0.20386885693980608
0.41807966411186015 13.60309097840255 209684.21589016134 7.006889533975301 0.2064495143016903
0.43232793609801123 13.537114475810856 180379.2868139193 7.31676244449435 0.20900801410440953
0.4468545031025081 13.477672954333048 155466.04298254693 7.63916808037241 0.21161099206890802
0.46166784461367083 13.42443465107434 134267.8892576077 7.974639909168504 0.21425852663723433
0.47676413520491884 13.376703154880031 116166.73630153656 8.321137428807873 0.21691139981231436
0.4921462507435525 13.334112767357576 100690.7222740221 8.678824287089487 0.219563315267715
0.5077968065579445 13.295939550688912 87420.47691257366 9.051100210927688 0.22226325611536596
0.5237402047129697 13.262019131841377 76018.82595346459 9.438569024915747 0.22501417613231464
0.5399574853452044 13.232035309946198 66221.72888772604 9.835676671932728 0.22773727234664137
0.5564519765130896 13.205423266832474 57767.59972674302 10.248861966819991 0.23050889833229563
0.5732209345833874 13.182060203903717 50467.071117551495 10.678957744969699 0.23333119934442983
0.5902711180159873 13.161611642656773 44154.50908835376 11.122798921687375 0.23615510766088504
0.6075914103414938 13.143911440663889 38683.248277777144 11.581562895931672 0.23899888239898384
0.6251757378171918 13.128668917640752 33937.160890737534 12.059153796997133 0.2419019919350711
0.6430368419542118 13.115615182842173 29810.63497722841 12.55502039459444 0.24485043826113725
0.6611500127087334 13.104612975378203 26219.964544498845 13.06458696442847 0.24778078311392931
0.6795396030908959 13.095409490040813 23087.842844308325 13.595091808672281 0.2507697653840923
0.6981697828693983 13.087900839002728 20203.68574537862 14.147439094609327 0.2538189866982065
0.717076519083825 13.08203474329847 17967.416016757204 14.715308617289233 0.25686130067622487
0.7362259072022441 13.077504498682988 15876.39559600529 15.304907758318272 0.2599550566338836
0.7556163431488138 13.07423236566708 14045.157252971509 15.918737218167555 0.26311488370867975
0.7752466812102741 13.072096333704529 12438.336318493713 16.553496865742805 0.2662960028807463
0.7951177119912429 13.070921706726471 11026.588760164454 17.20907021930162 0.26949441475602826
0.8152273127912738 13.070745492985782 9785.275706698025 17.891661486815003 0.27276457026908674
0.8355513604744088 13.071313588929565 8692.297480444719 18.60151235739023 0.2761013434039716
0.8560947834443198 13.072594703441112 7729.3127656956985 19.33097390168256 0.27943165079025634
0.8768576766850478 13.074441005055414 6878.933638474373 20.09043295681895 0.28283297459234874
0.8978166855727726 13.076782567756744 6128.623757837253 20.881138959782113 0.2863067260061519
0.9189870920233117 13.079677739269355 5464.967391238025 21.697199318067657 0.28979852242793935
0.9403370560418595 13.082778554398821 4877.472622839979 22.542865332207285 0.29334151563144106
0.9618725830373456 13.086185471271985 4357.174640254655 23.423295950684043 0.2969678281900805
0.9835770010677832 13.089858228545785 3895.9105521245497 24.33835749118519 0.300667255526859
1.0054709137855162 13.093719624509 3486.210340306433 25.28077106394413 0.30436620479591964
1.027500926275435 13.097551657319542 3122.5762290264047 26.26197244116451 0.3081513439268754
1.049677575008861 13.101379692530804 2799.0190100884106 27.28345574575323 0.31202465561345455
1.0719926233744117 13.10521550108125 2511.1921781912665 28.34083192432031 0.315948609927559
1.0944247891639818 13.108855404897193 2254.9087736239812 29.43552971319578 0.3199260467175558
1.1169838608171476 13.112444086625505 2026.3188179600982 30.57516811126886 0.3239928316820912
1.139643405619586 13.11573838297865 1822.4355806205149 31.76159468952976 0.32814906854157566
1.1623792082997808 13.118726321458164 1640.393290601189 32.98834309588427 0.3323509265175512
1.1852087400895486 13.12146882411605 1477.6621628094686 34.26156622766828 0.33663162784375894
1.2081006448794425 13.12390363381932 1332.2074229802781 35.58718021684834 0.3410178376382099
1.2310450907139778 13.125745014076006 1201.8862361030308 36.96720199774176 0.3455089365180106
1.254018057351432 13.127255655890606 1085.2053910684692 38.39691031393108 0.3500548554883408
1.2770249334366595 13.12813429478156 980.6675254040024 39.880474771145536 0.3546851373473864
1.3000288278205612 13.128486423197234 886.8940252974015 41.42536108048485 0.35943234296713755
1.3230389841475148 13.12834148401608 802.6377505617522 43.03402049466636 0.36429866736839833
1.3460400633167728 13.127518805158344 726.9450260875514 44.70854292478255 0.3692836159836683
1.3689895431233987 13.125975255501633 658.9259264173467 46.44141306877773 0.3743210117001849
1.3918924209695542 13.123780637725849 597.7394652183116 48.24653898633098 0.3794900719419877
1.4147094246962224 13.120764086675566 542.6394924285709 50.1269394053522 0.3847941906218435
1.4374759105536161 13.117041973604001 492.96511794835294 52.08579703293528 0.3902362446064948
1.4601031509168316 13.112396222923024 448.19357874882184 54.12648825514848 0.3958181069360449
1.4826380381644029 13.10706980530554 407.8365419667897 56.24593157596739 0.4015009795303402
1.5050196314981603 13.100691055458807 371.34850898641383 58.451943297159104 0.40732449261276044
1.5272447249616088 13.093404957566202 338.4166704341328 60.75159776586206 0.413308328288636
1.5492872357459226 13.085169933942773 308.62506776388057 63.14913385036655 0.41945570046889213
1.5711578201245766 13.075926687052116 281.67477621551427 65.64905574082005 0.4257675929122302
1.5928143252664744 13.06579357369147 257.2699797614881 68.25621079873318 0.4322487705050879
1.6142332391599443 13.054506672768266 235.17606306717332 70.97563449507645 0.4389145712614486
1.6354023041256749 13.042155190165696 215.13276846655748 73.81274890278473 0.44577229930337114
1.6562915182372857 13.02865688591098 196.96990659315097 76.76835692288498 0.4528035109587653
1.6768954020049072 13.014115321406786 180.47857135572917 79.85397154763812 0.4600344285152579
1.6972033636005386 12.99846214250214 165.50380096358793 83.0765436818651 0.4674856560271395
1.7171452989118323 12.981404713160378 151.88395473580232 86.44311277721162 0.4751680660821095
1.7367919058100405 12.963311695874195 139.4922958407092 89.96117615822304 0.48308668800115956
1.7560379756430302 12.943970651897924 128.22875689798227 93.63876170614576 0.49124897748378804
1.7748905166909543 12.923279983323503 117.96790435953984 97.48449520854338 0.49967350029776825
1.7933558421819704 12.901395445088943 108.61313885242691 101.5075803544006 0.5083765511071583
1.8113699544589787 12.878209847838272 100.09065261510929 105.71786464201168 0.5173656630077721
1.8289504565119348 12.853740773195044 92.3124097362602 110.1259235159155 0.526653141459583
1.8460258738346549 12.827790332036225 85.21691773799596 114.74312228031216 0.5362622388363856
1.8626707589776927 12.800724345868982 78.73076678122717 119.58165711248573 0.5462129262598118
1.8787515542870146 12.771875676640557 72.79288082307583 124.65459479892203 0.5565136879275261
1.8943133995057642 12.741897857408016 67.3750892752987 129.969491847409 0.5671636090478688
1.9093374989503942 12.710503193354828 62.416508269454084 135.54580481083502 0.5782083135039335
1.923802518181038 12.677783233014585 57.87653020719951 141.4006590124528 0.5896698610294553
1.937643527315818 12.643305158613162 53.71431568005388 147.55157365943597 0.6015656564422208
1.9509109781566794 12.607527766162615 49.89436584448288 154.0174093321759 0.6139310323275298
1.9635384611175286 12.57032166654005 46.39394583963519 160.8185537958508 0.6267980772264538
1.9755223388461172 12.531547068715708 43.18048822250049 167.96499359163113 0.6401423552712839
1.9868616498876934 12.491491639852686 40.23162767603998 175.48715508656184 0.6540312698193457
1.99750256708841 12.44969731520719 37.519042615840725 183.4142449202528 0.6685169351723068
2.00745794079541 12.40659729667294 35.031213230285644 191.77246837968121 0.6836185469282342
2.016689518076772 12.36186509057527 32.74039006379172 200.57301261672907 0.6993248565410934
2.0252256617559854 12.315728316006863 30.630446884865123 209.86667973344646 0.7157470005123626
2.0329820159821286 12.267918317353882 28.687256944805352 219.6824513615775 0.7328963174743948
2.0400207154195438 12.218835829566547 26.89992960249313 230.0440045265688 0.7507906397542468
2.046251867620361 12.167957356853787 25.24888149081223 241.01118621953376 0.7695495819072053
2.0516026716870552 12.116237443945327 23.748921047176687 252.74940528476972 0.9354509865273142
2.0534221581136665 12.068559580521981 22.676467542200104 266.2718989807366 1.4686929163819369
