M[M_sun], R[km], Lambda[1], P_c[MeV/fm^3], rho_c[fm^-3]
0.23841724892012095 16.20908015294055 2780876.1263280716 3.453507347168396 0.169602847481901
0.24841118158110753 15.866387211370377 2282227.5662888996 3.635496618082337 0.1719778053379655
0.2586878916268693 15.563182903669347 1881940.8658841928 3.8246593741600794 0.1743736043877769
0.2692499733665858 15.293766837498211 1558431.888250679 4.020093430903214 0.17676436926470931
0.28009826713505614 15.054216503820667 1295795.361400127 4.222140486942112 0.1791423907313599
0.2912242865565231 14.840171429126576 1060824.8267462347 4.432162647431223 0.18154422372339638
0.30264001615544744 14.648928455131374 905939.1205906925 4.650507291418845 0.1839737417747229
0.3143377644883474 14.477423459905813 761293.4685440831 4.877541473418423 0.18643259990186964
0.32631922994714857 14.323603003642658 641903.6851085314 5.110554782742313 0.18886062413710836
0.33858315563709235 14.185382867822572 542751.7575388886 5.352786443519901 0.19131092427370266
0.3511292614431438 14.061057832680795 460281.7040069736 5.604711185892754 0.19379117538227403
0.3639585815433016 13.949321857640772 391404.2805529238 5.866741153386235 0.19630701865920236
0.3770764519414852 13.84855577355905 333611.90719623514 6.1357379098280385 0.19879797537810745
0.39047507904547396 13.757971913628126 285078.86265311314 6.415186064953584 0.20131960859693884
0.4041556095120267 13.676317303586126 244170.71585439026 6.70586715587704 0.2038759175506373
0.4181217858598398 13.602943089063247 209595.38718909287 7.007834379202159 0.20645759227456878
0.4323731583362719 13.536872170010875 180283.22086489998 7.31779485704794 0.20901652460761036
0.44690882685436784 13.477530570309703 155393.27428796663 7.640292098152165 0.21161992858382858
0.46172172848098875 13.42425589386951 134198.1112328542 7.97585972771842 0.21426786587842978
0.47682293245316587 13.376537016458089 116103.21742283707 8.322510272512211 0.21692191065302863
0.4922044286797134 13.33383031285912 100626.99146617424 8.680304513630219 0.21957420558084406
0.5078643600451394 13.295759582762088 87365.49797898183 9.052692617816627 0.22227456483264552
0.5238097343176163 13.261843052317415 75977.14244151971 9.44027885202392 0.2250259009725699
0.5400324662738388 13.231841943895201 66177.55856458013 9.837580065819996 0.22775032453721925
0.5565318278192414 13.205320941983748 57729.839037702164 10.250896849486727 0.2305223452591507
0.5733042163920471 13.181914875349491 50434.93216499376 10.681129964423729 0.23334501993815385
0.590354996347597 13.161521154568588 44123.38210685251 11.125203259957066 0.23617040509427228
0.6076865349849815 13.143891011369188 38656.143401483365 11.584120763943963 0.23901461204222588
0.625276548094503 13.12858934725903 33911.94295768456 12.061872486093561 0.24191815738948347
0.6431418920584541 13.115573938679814 29788.47179621369 12.558015923391642 0.2448682498175509
0.6612643055321501 13.10448456955736 26198.884858931488 13.067762229659584 0.24779899548508175
0.6796563959288288 13.095333468945356 23070.00893322039 13.598454989235714 0.25078837822099376
0.6982919638119757 13.087874864410706 20340.33027301083 14.150999099134445 0.2538380591278686
0.7172024392812061 13.082028222485917 17952.106903336437 14.719210547830146 0.2568822049462231
0.7363589686238052 13.07745729364143 15863.346633109746 15.309029956144235 0.2599764446871231
0.7557534364943004 13.074219370089295 14033.371479631216 15.923090256620483 0.26313669910625936
0.775389189879776 13.0720832212902 12427.474101321788 16.558254397217162 0.26631984540861114
0.7952616367136014 13.070898337197 11017.113368692915 17.214085540719235 0.2695187244923
0.8153827737629407 13.07077922845087 9776.587767003452 17.896947345211327 0.2727894173334812
0.8357141496945768 13.071301874366183 8683.796936141229 18.607275611727786 0.27612843454809805
0.8562571955583888 13.072604237934858 7722.314779662257 19.337040248914263 0.27945931902042265
0.877032471470903 13.074473934533183 6872.521745702997 20.096817476916108 0.2828611469589025
0.8979966681722367 13.076800230414205 6122.775112012763 20.887857434995844 0.2863354733254807
0.9191691921013728 13.07970994995707 5459.401008021644 21.70450251727981 0.28982977169108226
0.9405367954291919 13.082898115336246 4872.654336572093 22.550542916299513 0.29337343930492277
0.9620676359399822 13.086218088007778 4352.732226086894 23.43136779731771 0.2970004611975594
0.9837828232570601 13.089881454139707 3870.4883756505524 24.34711812151864 0.3007026731615301
1.005678791116046 13.093753615448941 3482.6258160639704 25.289973810543003 0.30440226949052884
1.0277162255110261 13.097615977001201 3119.293737061095 26.271640250565135 0.3081881825586495
1.049908259343818 13.101517930703745 2796.0666141511197 27.293613809222606 0.31206235248783243
1.072214704955935 13.105251403360882 2508.6422087602646 28.351833934857364 0.3159894387144995
1.0946483740792858 13.108905809755184 2252.4641191926908 29.44708350572285 0.3199678280969146
1.1172177400578605 13.112485584284508 2024.188457005508 30.58730342299224 0.3240354627077293
1.1398873953394106 13.115821958658186 1820.4148776315355 31.774343053836933 0.328192734232085
1.162633764894824 13.118838070698692 1638.5246950869523 33.00212802967832 0.3323981426653047
1.1854585517608252 13.121499535072115 1475.987380411813 34.276042468381036 0.3366800292419947
1.2083556956727963 13.123849013295334 1330.6004227000528 35.6023873102008 0.3410674981633824
1.2313046190524606 13.125771553777504 1200.4149280897695 36.98318083088844 0.34555974302161885
1.2542842845248383 13.127197456641287 1083.9634130562113 38.41416679232977 0.35010972440924265
1.277301727267273 13.128144949177745 979.4800512165525 39.898602389701445 0.3547414891365089
1.3003028433356638 13.12849845730069 885.8210446095821 41.444410921836486 0.35949028240886677
1.323324560808309 13.128302623950367 801.6972041984858 43.0540469819724 0.3643582849694346
1.3463198760024666 13.127449373733805 726.0690676496712 44.73009711518996 0.36934763458411873
1.3692818880661497 13.125979046837934 658.1342685196 46.46412676589561 0.37438702159229775
1.392183745559975 13.123708358587873 596.9811028472859 48.27042316664331 0.3795580993095697
1.415026772681343 13.120834255460839 541.9555206199987 50.15206497689644 0.38486436400304974
1.4377621418110607 13.11694888794338 492.3507221380874 52.112239436775596 0.39030866745454523
1.4604192614135485 13.112431910068384 447.6550786566147 54.15432671639244 0.3958927503232573
1.4829496726699096 13.106980988351953 407.29447847913485 56.27593254498816 0.40158142125906005
1.505319537868863 13.100524875490958 370.8718562545737 58.48353159439796 0.4074076782635366
1.5275565000246332 13.093295967331843 337.9684588171193 60.784872572961966 0.41339443300462386
1.5495955054969535 13.084991905080505 308.2251654185984 63.18420080025165 0.4195448502672094
1.5714849009446816 13.07584589064513 281.29342148861735 65.68602654342075 0.42585984186079723
1.5931282894588414 13.065623413335135 256.9344866043506 68.29520546317629 0.4323445187082002
1.6145359021383903 13.054277241801344 234.8689620604646 71.01678282121983 0.4390140412899643
1.6357253238273668 13.041926551453981 214.83994881454288 73.85618936051875 0.445875641509326
1.6566079728671412 13.028440356983511 196.70666793281944 76.81513826312094 0.4529148009209271
1.6772252470702156 13.013890842668536 180.23136428579673 79.9033753569168 0.4601500419087493
1.6975092669781608 12.998099490515614 165.27305437929468 83.12874138381387 0.4676060706453338
1.717490681839152 12.981277204448482 151.68144577138827 86.498289632524 0.4752935921189217
1.7370959482690729 12.962956632193007 139.30115714308093 90.01953031253855 0.4832175310270752
1.7563585581426682 12.94359387689827 128.04615684160368 93.70050499877901 0.4913854326146308
1.7751942671003087 12.922959749637297 117.80455944168202 97.54985621501864 0.49981611437482765
1.7936784274037392 12.901199964256254 108.47369892118353 101.57680604888995 0.508525727776742
1.8116710993601333 12.877752329916538 99.94674801229482 105.79121988385423 0.5175216707801416
1.8292391675204527 12.853236908514281 92.18422396156569 110.20369267420757 0.5268164385763637
1.846346139763779 12.827434842107358 85.09851939338833 114.82561282439141 0.5364334731315248
1.8629575361048174 12.800206328232104 78.62238682908867 119.66920154082803 0.546392629400571
1.8790351701321992 12.771435113385193 72.69984107655125 124.74711037166402 0.5567006234108586
1.8945918702269913 12.741341847379342 67.28344840802704 130.06688614811296 0.5673569055865859
1.9095956703350887 12.709876337862658 62.33108473750505 135.64936227373983 0.5784117739394726
1.924036692567282 12.676943480787369 57.7936794486356 141.51082737579486 0.5898839353088332
1.9378942175334997 12.64266629215509 53.63866241189854 147.66883695620817 0.6017912216755479
1.9511534757935074 12.606884617635238 49.82609836424983 154.14229301052745 0.6141690055161657
1.9637788566220382 12.569677583239878 46.33589016233511 160.95162786024997 0.6270493335649177
1.9757535503370527 12.530934514779211 43.12402033362426 168.1052688561374 0.6404021397383362
1.9870656366248238 12.490647720323791 40.178297105490536 175.63683401598212 0.6543060897186093
1.9977030204190016 12.448893037699067 37.470719240428146 183.5740510558612 0.6688078800754215
2.0076446645610484 12.405679817146822 34.98261099356985 191.94147543857753 0.6839208169001927
2.016872194528641 12.360924044676894 32.69365768874419 200.75370208350682 0.6996454568809845
2.0253790968640053 12.31468934164894 30.58740812047489 210.05997737599364 0.7160872994840405
2.0331302611596884 12.266892673677537 28.64818328585022 219.88751638425492 0.7332514168595528
2.040144172643109 12.217702468738752 26.863365540614232 230.26368617346893 0.7511682378651454
2.046380597463729 12.16697419691238 25.216704025172273 241.24667881509882 0.7699513779448173
2.051827906214967 12.114677004785683 23.699635479168492 252.8362332652535 0.7894999998283638
2.055293261811952 12.064821614581687 22.463436775547663 265.823316482037 1.3667106636453437
