M[M_sun], R[km], Lambda[1], P_c[MeV/fm^3], rho_c[fm^-3]
0.23841724892012095 16.20908015294055 2780876.1263280716 3.453507347168396 0.169602847481901
0.2484098984874539 15.866492840669999 2282476.5480454555 3.6354841816749333 0.17197764714215985
0.25868560787586875 15.56322959223192 1881999.339201675 3.824633793189389 0.17437329145313663
0.26924668531873974 15.293886353407443 1558492.8311433606 4.020052219057819 0.1767638651159743
0.28009644075442 15.054221403649576 1295892.191192941 4.222084053215448 0.17914173082648152
0.29121967811998106 14.840235335062413 1081613.3176544083 4.432090214613697 0.1815434087078977
0.3026354308153168 14.64897649512955 906006.786299499 4.650418041334837 0.1839727751495803
0.31433393076375377 14.477452792270153 761433.1836359195 4.877434241745268 0.1864314794693611
0.32631170620849215 14.32371653248119 641953.1898963061 5.110423959853879 0.18885926094826494
0.3385757275475638 14.185499092133293 542853.0448912433 5.352635483084489 0.19130941797356835
0.351119937312483 14.061190375739983 460359.59815768077 5.604539143024104 0.19378952187064408
0.363950657687878 13.949372260330051 391424.2006129755 5.866547014184278 0.19630522089644897
0.37706614175318565 13.848636554471272 333657.76588470885 6.135511579880642 0.19879587952345623
0.3904621974350787 13.758078472127506 285135.8460654421 6.414934722893559 0.2013173684045574
0.40414293388706135 13.676413294112642 244206.86479488792 6.705589676725925 0.20387354523716908
0.4181066819526175 13.603026842930795 209628.71846587 7.0075169164441435 0.20645487812046578
0.43235755878016136 13.536947063866158 180319.70551922417 7.317447970931349 0.20901366511564146
0.4468879096975669 13.477586232871712 155425.16404668725 7.639914431775958 0.21161692594341952
0.4617061577376465 13.424357291708823 134214.71674685137 7.974689002517864 0.21424943802019858
0.4768113073725699 13.376680402127866 116124.44716830672 8.317285265917551 0.21682389145004338
0.49218824651690846 13.333927151971482 100648.01655606681 8.68239289874214 0.222144894584524
0.5061206810628374 13.297758254800192 88637.23061900186 9.072588640685884 0.29850022219645966
0.5173475568503109 13.264761138181932 79892.69135591954 9.504800860743169 0.38196144709759017
0.5265472557075862 13.230649845278444 73120.67572155624 9.987676982833849 0.4472785603436674
0.5344702811790911 13.193884333891823 67482.00290026522 10.51255586747558 0.5139370243080628
0.5413088660861802 13.153735223284498 62681.74770728347 11.0831904185937 0.5821710324480351
0.5473298345591397 13.109858732669625 58461.23832789593 11.701126580879723 0.6424656815552621
0.5527652134525014 13.061987528694528 54644.09258105978 12.363520611884843 0.7000798567404848
0.5578287668251855 13.01011992265385 51107.29438434105 13.072964956553934 0.7560319653642686
0.5626562755852674 12.954380458720241 47777.109140916895 13.828350284495198 0.8089713248015458
0.5673600961968712 12.89488502106241 44615.74165907749 14.62571730192101 0.8571504654800364
0.5720596993592147 12.831754526560042 41580.158470013026 15.471340844126402 0.9042659677028306
0.5768377218095979 12.765232558026183 38655.86975930753 16.367296404767796 0.9506196612607993
0.5817680248360534 12.695827663036312 35842.1091833477 17.301089459417337 0.9940755018163328
0.5868986077907414 12.623852793777672 33136.09678657216 18.28473884896661 1.0362481705301207
0.5923106079071081 12.549449796700703 30532.79866010943 19.32188734322405 1.0779503356469513
0.5980086097721384 12.47311924366761 28048.704160399382 20.405174978011882 1.1196610142842633
0.6040319313938677 12.395151325717201 25688.354880157192 21.533279463333088 1.1579887254275154
0.6104399415632554 12.315837939262787 23443.58077665589 22.718863457282858 1.1963379962040752
0.617261496461437 12.2357194666642 21326.017541511395 23.962961787426703 1.2354189223916878
0.6244684701295998 12.154968782561836 19344.708444008007 25.245417206872446 1.2725633725330066
0.6321218264423744 12.074183148749928 17496.886891464437 26.58923831712166 1.309487436009608
0.6402234824333617 11.99346047827333 15780.228944293498 27.99726720297874 1.346431271035346
0.6487717359839548 11.913184507974599 14195.758557612282 29.45919708357361 1.3832691028280593
0.6577518434979233 11.833478374791309 12740.899463409023 30.975690729133145 1.4196943676425482
0.6671966766346562 11.754911238542025 11411.647418556153 32.561795991302304 1.456245481844712
0.6770941282157765 11.677412851216095 10200.69136121506 34.22038766256392 1.4928540236348518
0.6874493009765624 11.601457126397781 9103.032322448233 35.92965878615556 1.529101286828719
0.6982158623401464 11.526951698672168 8112.467539443841 37.71229722743873 1.5658816627768215
0.7094152921404303 11.454030137966836 7220.578592241587 39.57446756821312 1.6033521688378067
0.7210288299239337 11.383034553410244 6420.675834079435 41.51492074595862 1.6413804838484325
0.7330412441429333 11.313877633130216 5703.985372689763 43.51625360638841 1.6793797173390597
0.7454238307893281 11.24656317808919 5065.375263834554 45.60623201505777 1.7192981363219493
0.758167523608787 11.181281792286251 4496.321747116395 47.78882991443841 1.7634050380633672
0.7711866549175591 11.118147007317674 3992.5813555210207 50.06116992316077 1.8163540781411638
0.7844733200250424 11.056894305931396 3545.70698885651 52.414605461785406 1.8608625259453742
0.7980780002270069 10.997387705748222 3148.903800263096 54.86860456530627 1.8933448716315968
0.8120710984535986 10.939298098521354 2794.282544990615 57.4243655988493 1.9166231694925817
0.8264771187237548 10.882956274326613 2478.0055787410324 60.07749566537088 1.9383718879568426
0.841269772663085 10.828499470323793 2197.212362747354 62.81036412800679 1.960668227782735
0.8564130021088383 10.775667938821824 1948.1845456120973 65.65411615782637 1.9837867015770072
0.8718881683805181 10.724807767012368 1727.5686291306276 68.6128479451307 2.007751636811752
0.8876436394600323 10.675785252805877 1532.7511405330713 71.6909919550152 2.032589426955749
0.9036604565473632 10.628455699921354 1360.3837379816857 74.87754396621263 2.0581816834220543
0.9199071077967351 10.582858183026836 1208.2122085542235 78.18350212809376 2.084612632192062
0.9363467906274484 10.538854012116674 1074.033984000682 81.62587760801004 2.112022041945794
0.9529326656332567 10.496380849869597 955.6444033423822 85.21047628027299 2.140444327543114
0.9696452613322922 10.455343847820915 851.0701831248549 88.94353505524673 2.1699164580889216
0.9864431567528915 10.415510878893594 758.8745100969354 92.82863837880122 2.200448945029061
1.0033098858744922 10.37693743019106 677.4889600672159 96.85857188116607 2.231948789677622
1.0201728715121143 10.33932088701294 605.5800848667403 101.06012688098254 2.2646401041240387
1.0370401152056228 10.302675670256738 541.9479940281856 105.44148861946955 2.2985710448041536
1.0538771369782487 10.266942339875193 485.6728467004789 110.01142518438148 2.3337898374552872
1.0706401078457697 10.231855803544931 435.8328148503266 114.77936927085291 2.3703434516351094
1.087288390503212 10.197399578409064 391.6697164311558 119.7555568992254 2.4082867014820057
1.1038208455210086 10.163426242625675 352.44992306012574 124.95075319691783 2.4476958740336037
1.1201830184575097 10.129830820333902 317.61764137442196 130.37657722435378 2.4886383803673433
1.1363528373529153 10.096481049403055 286.6189076117775 136.0371539778823 2.531106661854291
1.1523159698559426 10.063389867675076 259.03993453191003 141.95501052836843 2.575225797908947
1.1680366393625865 10.030331115105444 234.42230619914702 148.14567925337283 2.6211180535008123
1.1834731113497734 9.997318219045964 212.48266661214484 154.62468985054736 2.668878672740842
1.1986248804779105 9.9642250532867 192.86144390647513 161.40861752239286 2.7185744948780077
1.2134409068676668 9.930950063297184 175.33222769637246 168.51547381021228 2.770307686500628
1.2279326318320332 9.897467787209461 159.59779335235933 175.9646612704257 2.8242080839068535
1.2420323334799197 9.863655439601578 145.51423317397825 183.77684459498826 2.880351089192093
1.2557505797076591 9.829494165959652 132.8541041913023 191.97462319437358 2.9388831140032057
1.2690505997816233 9.794882079099276 121.46843894916941 200.58211515020238 2.9999358470668898
1.2819069085547863 9.759769809735523 111.23496253578753 209.62535201285004 3.0636222785199427
1.2943000415159256 9.724088396197216 102.01070628873073 219.12377248735882 3.1300481899738357
1.3062208896042475 9.687798928610441 93.68016909450638 229.11167827161955 3.1993515519946136
1.317640816755921 9.650882268296943 86.1694642021981 239.6244073565188 3.271788847963761
1.3285489926577327 9.613222213752325 79.36944302115582 250.6976959318581 3.34750206606362
1.3388995846356149 9.574852090253115 73.21785788904646 262.369653869222 3.4267095131333845
1.3487139744360124 9.53568999294896 67.64323005191771 274.68209962334106 3.5096285733357915
1.357952179993872 9.495674560430073 62.58387791478832 287.6763482272173 3.596430104982726
1.3666081020796712 9.454867634698465 57.987793749281195 301.38020000636567 3.6871635926087185
1.3746572424969898 9.413183139539157 53.82590936580788 315.8684471498901 3.7823068786790337
1.3821043896384007 9.370510385923376 50.01660952485627 331.1986282410089 3.882166656667763
1.3889256217237833 9.327019950170154 46.549107051596074 347.4204608516805 3.9868806798262155
1.3951006313336325 9.282560739164966 43.3984477435865 364.58816365394205 4.096667337847821
1.4006303656117207 9.237170227365167 40.519431428383925 382.79863821634973 4.212115350281744
1.4055036559463878 9.19081467079231 37.892475431952874 402.11156960159366 4.333387232098532
1.409693031523929 9.143472324003312 35.48764219945517 422.6084925683655 4.46084619582685
1.4132232884311375 9.095178058954852 33.291512870272896 444.4041024784076 4.5951332925645465
1.416069958094438 9.04592525215178 31.278820466761324 467.5576440689935 4.736253861898693
1.418227324161815 8.995730094516457 29.437041893531095 492.22685715286207 4.885220297198871
1.419691906639682 8.944567553809206 27.750533097585073 518.4799056840753 5.041930000394294
1.420462727399474 8.89247367436682 26.20492929537675 546.4940768750065 5.207535857277773
1.420527912761028 8.839460495659502 24.7827341515001 576.3782873385086 5.382183062552437
