M[M_sun], R[km], Lambda[1], P_c[MeV/fm^3], rho_c[fm^-3]
0.23841724892012095 16.20908015294055 2780876.1263280716 3.453507347168396 0.169602847481901
0.24842161219996606 15.866010825707756 2281875.2843653318 3.635679534295896 0.17198013210138138
0.2587096858233795 15.562555270573235 1881184.9728085522 3.8250356362130025 0.17437820724009265
0.2692832825263797 15.293047392556927 1557574.418494841 4.020699626265214 0.17677178491479703
0.2801431873952288 15.053265463230732 1268694.241337182 4.222970614622334 0.17915209778666627
0.291280235813367 14.839156962677563 1080567.6049359643 4.433228155371273 0.18155621283985957
0.3027102091706779 14.64772689290283 904908.1272469698 4.651820230745217 0.18398796159510367
0.31442157313317826 14.476230799097896 760407.0242080493 4.879114386276032 0.1864489898263305
0.3264155685792094 14.32244605439182 641064.9274002049 5.112479432020847 0.18888067919364643
0.33869437104182804 14.184245765108022 541982.7321570273 5.355007424725537 0.1913330854729548
0.3512569376745199 14.059979096856294 459537.5042163443 5.6072424177109905 0.19381550316338123
0.3640996916976452 13.948072794828434 390699.041861445 5.869597570667293 0.19633346957969808
0.37723571250410587 13.847425802795925 332989.3917191594 6.1390680949639975 0.19882881347128503
0.3906514567677939 13.756827264009077 284505.3566999826 6.418884383710149 0.20135257142656504
0.40434975435332876 13.675292145956083 243641.32714332757 6.709950180745719 0.20391082545217898
0.418333576392303 13.601851169138298 209115.14638295988 7.012505948877925 0.20649753195153175
0.43260272968068075 13.535914578365787 179858.80653490094 7.322899544197375 0.20905860415824487
0.4471529958660842 13.47656581792428 155006.28632499874 7.645849892169686 0.21166411588233716
0.46199171116127863 13.423390097300986 133842.40242297444 7.981891398608744 0.21431404588549738
0.47711488319420436 13.375810238538204 115794.32248103172 8.329298941507517 0.21697388643020268
0.49251533485690807 13.333062218123969 100341.0003973996 8.687624403370993 0.2196280594262885
0.508198572182979 13.294986448005984 87109.69153108408 9.060567480048604 0.2223304893524497
0.5241651808706045 13.261207107411103 75738.19261200925 9.448734628072351 0.22508388497746037
0.5404080149338171 13.231188838783215 65966.87849810114 9.846993574447886 0.22781487602571537
0.5569247185169331 13.204704470347803 57546.008454478884 10.260960935481723 0.2305888508274815
0.5737298394299427 13.181410119402814 50267.11353404421 10.69187358261891 0.23341337545440982
0.5908099289249338 13.161134034237593 43972.78742656347 11.137095523245078 0.2362460687842635
0.608148012405311 13.14342293034493 38522.011636279545 11.596772751578177 0.23909241560786446
0.6257746269909428 13.12821326323969 33788.11973126402 12.075320300905785 0.24199811873466953
0.6436580800673265 13.115147240747199 29677.114715283682 12.572833878070814 0.24495635807942073
0.6618121616135604 13.104192977127756 26097.859366198052 13.08346969609467 0.24788908881201932
0.6802313990580693 13.095234106369944 22980.655328669553 13.615092468994794 0.2508804549594759
0.6988924490212066 13.087615325282359 20257.98227448163 14.168610707535242 0.2539324118625607
0.7178297265839261 13.08180142677523 17878.481147900904 14.738514715614272 0.25698562542775644
0.7370128079494765 13.077386691160092 15797.629163282607 15.329424377838345 0.26008226129161405
0.7564381367916782 13.07417198784438 13973.752194980178 15.941090740100503 0.2632117119341593
0.7761164999304285 13.07208376640051 12373.322549322911 16.564463372176238 0.2662779272112196
0.7960313398668454 13.070936029861114 10967.152877751443 17.226635602680346 0.2695349880841938
0.8156340356175578 13.070668841189923 9761.151945281907 17.935208637011407 0.39726663010029084
0.8209971017292186 13.05951479657519 9389.485522626117 18.97432976073457 1.0209940348352826
0.8152528174663107 13.034715570224993 9554.89907365274 20.402189342545174 1.6251480188047793
0.8043208689552964 12.999556848685684 9961.569820473233 22.32813295250991 2.21580999798119
0.7904171504522581 12.956388994057932 10523.500974129875 24.833696309618176 2.774464475724395
0.7746852544782501 12.906719197424668 11206.68874087896 27.763838056291895 3.2668328103594395
0.7572236911206541 12.848523104148391 12011.891343788979 31.126355634238866 3.6267723537958414
0.737375836627692 12.775353002337665 12968.423815556134 34.747827294669854 3.6519755232885376
0.7162766095240288 12.685660635627238 13997.99411774215 38.43881171742585 3.6709640335486875
0.6950772551861109 12.581095629224352 15025.333720133567 42.29238865224546 3.6887976082906775
0.6744847496716824 12.461919533396332 15962.63964634502 46.29842392433234 3.706786940073811
0.6548978998884023 12.328726931127788 16747.809481950353 50.34071696183221 3.7247162326340626
0.6366228671708631 12.18161567357515 17313.656935184335 54.51680410427353 3.7432139825010164
0.6199239131441752 12.02135250119719 17600.75599119138 58.85637713647151 3.7624077650205123
0.6049969525592532 11.848471575137065 17566.78282806186 63.35738566798925 3.782282265082572
0.5919561720277081 11.664327353298853 17201.544250744493 67.90972424190367 3.802344334613945
0.5809232615235351 11.470549698178854 16514.176507985914 72.62760757587942 3.8231063367200413
0.5718669996834393 11.26847604005186 15543.402663781077 77.52138957978349 3.8446117250240235
0.5648749307367296 11.0608829475477 14350.593634977737 82.59149639854691 3.866858839893385
0.5598930708523441 10.849781369934755 13008.957387200531 87.75785314660106 3.8894812310181273
0.5569038769664431 10.638080302262026 11593.5285453241 93.095271473233 3.9128127939240773
0.5557547261711302 10.427488017679604 10177.333075651966 98.62689072299854 3.9369539073537343
0.5564149473017113 10.220623386582751 8815.570968020684 104.35554904179715 3.961912786708551
0.5587556876513776 10.019448947964293 7551.907027980586 110.25964434015177 3.9875865022409367
0.5626549602675599 9.825268855526641 6411.371384700433 116.31438504003714 4.013856964902582
0.5679919596842022 9.639651201262813 5406.321018447792 122.58771451680214 4.0410264090806
0.5746550284945771 9.462974375985219 4534.376934610717 129.08495249626006 4.069112984634468
0.5824982618788527 9.296108682449855 3791.052567149309 135.8119511735597 4.09813685038737
0.591436133663918 9.139106799843937 3163.72081771338 142.771437612314 4.1281035355097195
0.6013405949477384 8.992072359374868 2638.943084736636 149.91610855635764 4.158790723008667
0.6121211457016646 8.85463152874305 2202.5428051716626 157.31889954370936 4.190521686041443
0.6236738312845863 8.726680216163995 1840.8821028047435 164.98819036438394 4.2233262206754025
0.6359103470424308 8.607578337408485 1541.9051768772647 172.93305918432813 4.257236732947287
0.6487363658796399 8.497037282479855 1295.132772912463 181.1634188843763 4.292288820813031
0.6621111295189278 8.394335530057058 1091.01931754119 189.69001228999898 4.328520775441539
0.675923575216558 8.299061769679447 922.2876427636794 198.52450239587318 4.3659722365669715
0.6901362320176002 8.210613727617192 782.2990437278509 207.64687717358484 4.404532135696411
0.7046800692622495 8.12848565860597 665.986374444922 217.10567653947325 4.444418702598082
0.7194911560089533 8.052110433872246 569.1344923146688 226.91762482643685 4.485694764970046
0.734533154736229 7.981105336602163 488.1713256365685 237.0980067352988 4.528415648011795
0.7497567386640284 7.914924310363057 420.1780676130709 247.66305522236868 4.572627473639303
0.7651082828455873 7.853163272180163 362.9034689244976 258.63069731373236 4.618398693274983
0.7805596949796718 7.795417051009746 314.5492802539649 270.0197957990658 4.665804329226253
0.7960363541841791 7.741322058940545 273.6020526321892 281.85049579919354 4.7149093977779115
0.8115391508687393 7.690512075468485 238.76354357034572 294.14463054793816 4.76578736367187
0.8270412952194235 7.6426553666657275 208.54217718769215 306.9255561189664 4.81853002454487
0.8424728009058478 7.597529105694663 183.5308477992295 320.21806109294664 4.873217237599923
0.8578384687589155 7.554758659626088 161.27283348353092 334.0491254990885 4.929944288465017
0.873072902364536 7.514144889815089 142.66461796477765 348.4472873314867 4.98881817545112
0.8881710814574552 7.475521000422824 126.38538025878496 363.4432677628617 5.049936687716418
0.9031019889781278 7.438565660556375 112.05306888510891 379.0702976690925 5.113430336061491
0.917848329927695 7.403116462235719 99.92851742633033 395.3634788030245 5.17939901406467
0.9323544783729086 7.3690579553941244 89.19649861930495 412.33142802661115 5.247867040487554
0.9466407799397785 7.336114574540979 79.80836395305114 430.0313690764203 5.319020653338173
0.9606465674488439 7.304200130629783 71.58027419245794 448.51497592673866 5.393073834712252
0.9743763336491662 7.2731972031789764 64.3496932457395 467.8295647804661 5.470175945840281
0.9877944744350119 7.242858161468479 57.89915368191615 488.0253830564748 5.550503606396741
1.0008924060209836 7.213150177926039 52.34068864034453 509.1358970391945 5.634147552758383
1.0136369260433107 7.183971963244873 47.30850845024686 531.1936907960464 5.721180103481803
1.0260133805865779 7.155206821723174 42.95347233657057 554.3030904302572 5.812014908847438
1.038015385486709 7.126721643355263 39.02781999354757 578.5317165663606 5.906876215543086
1.0496119464972473 7.09849669324146 35.49760571960593 603.8848623239243 6.005690950533224
1.0608037712225424 7.070367423084736 32.41425670239437 630.4878782230218 6.108946241413678
1.0715552840407472 7.042269128817197 29.602120392247706 658.4342075718812 6.216963254842819
1.0818518279022462 7.014220397917949 27.112337394981626 687.7304864839526 6.3296435379878515
1.0916960119112502 6.986028750776135 24.900561030385347 718.5606321055138 6.447715550232527
1.1010570958094892 6.957735587716656 22.89129625689023 750.9484415206907 6.571137515859309
1.1099333362429773 6.929253330253256 21.083544137122384 785.061979938632 6.700539915360049
1.1183090679289234 6.900483650526741 19.45585428581625 820.9598085117277 6.835991297072518
1.1261710257849178 6.871423236753472 17.970626925762815 858.8351915331485 6.978241708216828
1.1335163252440132 6.842026589199019 16.657159550197466 898.7357621616769 7.1272424105345324
1.140317207099075 6.812266051557322 15.454982447638047 940.8886479304448 7.2838461664991545
1.1465748703744774 6.782116929674659 14.366378509716025 985.4306298810516 7.448431527026605
1.1522580896288015 6.7514463930409665 13.367409979459746 1032.5047143361896 7.6213475420643855
1.157406886436715 6.7203587874880055 12.479973283554257 1082.343504123351 7.8033852151452106
1.1619672846597682 6.6887761882664405 11.666109619427887 1135.149516156822 7.995123005133196
1.1659461974159262 6.656637191679896 10.923771273053816 1191.1458632201613 8.197202754296818
1.1693431577904554 6.623988012346006 10.248721002372871 1250.5649757903363 8.410254705297701
1.1721555695635246 6.5907713199553415 9.627695818425206 1313.693792239393 8.635139485114236
1.1743535821046438 6.556988535780584 9.072546655351502 1380.8372817271252 8.872740914270505
1.1759608362565 6.522648788291198 8.56174636825354 1452.324867082451 9.123988409410144
1.1769560693467072 6.487728515717234 8.094614208647215 1528.5200604375786 9.389897756154886
1.1773532681513879 6.452209128283938 7.667871340247667 1609.8228655985663 9.671566589225737
