M[M_sun], R[km], Lambda[1], P_c[MeV/fm^3], rho_c[fm^-3]
0.23841724892012095 16.20908015294055 2780876.1263280716 3.453507347168396 0.169602847481901
0.24846549901007595 15.86466511337624 2280261.512623546 3.63647671682409 0.1719902725646366
0.25880008300937135 15.559968786893394 1878049.5857880143 3.8266757612397555 0.17439827105789943
0.26941986279119456 15.289767627752871 1553780.9564751894 4.023342553307314 0.17680411611259259
0.2803312049311577 15.049299522780716 1290787.894483845 4.226590508399275 0.17919442682825004
0.29152515586895217 14.834890727684822 1076385.8581743226 4.437875272605273 0.18160850229509726
0.3030118629182915 14.643074899868953 900782.7096718185 4.6575474713397345 0.18404999060961763
0.3147815812038141 14.47143442828003 756469.5778480544 4.885976805142422 0.18652049698344655
0.32683490783446373 14.317430858383188 637294.8187139852 5.120878134605923 0.18896819459557904
0.3391795632602063 14.179197463006133 538484.437428045 5.364700802529357 0.19142980708248114
0.3518058104101459 14.054866775445209 456287.06613838725 5.618291595457331 0.19392169730004258
0.3647240255739558 13.943012619147503 387673.03170384077 5.882068125960565 0.19644894908921764
0.37792838096623554 13.842490489388696 330245.2476122745 6.153610043709757 0.19896347444420295
0.39141630782955295 13.75201141733769 282007.5533452297 6.435036257695095 0.20149653183272653
0.4051920306383394 13.670648586004708 238289.37225241418 6.727784780433374 0.20406330271351236
0.4192485578453419 13.597347099012175 204512.10612789798 7.032413043326252 0.20666403205926584
0.43360483877707917 13.53145563885394 177988.30013769635 7.3452046285487596 0.20924247202299256
0.44823841921276786 13.472432676969808 153328.02457083162 7.670138187140124 0.2118572202213501
0.4631627070689528 13.41943530097492 132329.4992042764 8.008254156414976 0.21451588586714593
0.47837090188314363 13.371929231097209 114420.22493242957 8.358976771085493 0.2172011074448407
0.4938650265170898 13.329550700552423 98078.33297011322 8.71962876994101 0.21986352174496357
0.5096430277192341 13.291859066602157 86003.03460444481 9.095002769723825 0.2225750367467628
0.5257011323393013 13.258188409651014 74749.23013800061 9.485714840757458 0.22533747031615697
0.5420440687211461 13.22839792442154 65068.01428353438 9.888171435024551 0.2280972460004381
0.5586650818362955 13.202155885283563 56732.93915275985 10.304990122364147 0.2308798048294858
0.5755701131977354 13.179068718503046 49536.75589585699 10.738881393292655 0.23371245934852172
0.592752246856884 13.158938868606336 43316.47425732096 11.189140946143826 0.2365772041323718
0.6102002796373543 13.141463295028895 37929.79293310471 11.652149690876955 0.23943295683001545
0.6279328859900746 13.126464351578324 33256.14869409403 12.134187513781962 0.24234814597661633
0.6459336272595803 13.113671583915023 29197.887031854374 12.636023855367215 0.24532267336990415
0.6641948745070091 13.10289534139002 25466.72976106506 13.152252446755774 0.2482836060862459
0.6827264041622855 13.093994852445288 22590.923965142607 13.68795614414004 0.2512837041088872
0.7015171023964185 13.086811658236645 19908.29544767165 14.245749387723537 0.25434567595864255
0.7205621591185247 13.081089375652423 17563.679154099882 14.823086860973278 0.25743871369839033
0.7398598390575767 13.076758530120863 15512.808878430355 15.418783084986215 0.26054589959006214
0.7594010307107876 13.07367529454227 13716.850535141684 16.039003032501814 0.263717599853577
0.7791999847702362 13.071817308970987 12141.756682116566 16.68479541688355 0.2669532053061292
0.7992168597215633 13.070819446839533 10759.132381737858 17.347682746232877 0.27016628275671695
0.81949334686816 13.070820242769216 9543.578724244768 18.037767295898227 0.27345136514221896
0.8399750260434974 13.071512658888915 8473.58433426687 18.74964750055963 0.2767516386598102
0.8607113658173223 13.072954443778642 7530.24605258323 19.453752939041962 0.279801386444072
0.8816730093753815 13.074981291747239 6697.919198562284 20.20062500961443 0.28303637273712645
0.9028674137996706 13.077615823163578 5963.061436845289 20.99350920314959 0.28647065499124763
0.9242431971931222 13.080650263630176 5314.382774585141 21.8359436341334 0.29011955812259765
0.9457842868561952 13.083915561277243 4741.005118691061 22.731789352412285 0.2939998058029031
0.9559018263048058 13.080736543218244 4482.020714145028 23.946832434956903 2.0853562526957883
0.9391847612047481 13.059239483370554 4831.009303911869 27.649510017326932 5.552557669997233
0.9180218857584334 13.033620695459474 5325.489587343274 33.74567038570503 7.892995095742053
0.8855415144847625 12.988350911045133 6183.306424356946 42.46995592263626 7.980785463212227
0.8487635066190437 12.926624254026745 7311.418574603267 51.23854479347323 8.016873297959924
0.8104681237771465 12.850945909963135 8699.462263640224 60.1606160349639 8.049946501210234
0.7716794008285244 12.76143895305387 10364.185927254472 69.47556234160632 8.083719319896645
0.7329538887163828 12.657879607855252 12334.017323763761 79.14326842828889 8.118710732028482
0.6949900238411236 12.53967319649115 14600.363783390532 89.14815017437247 8.154856105218505
0.6576029321502023 12.404316821426168 17191.56314494653 99.20041803959064 8.191057225139078
0.6217203923448887 12.251142488245582 20008.1741164034 109.61510362486283 8.2284910342999
0.5876402878922528 12.07828518738255 22936.591809875354 120.41501226321144 8.26723413196189
0.5553630590295592 11.882292208055144 25831.46029737401 131.5944336112453 8.307257668709765
0.5256414817849454 11.662737394854384 28381.791610038992 143.15362708391586 8.348553984467378
0.49863971860723466 11.417324115220321 30294.597156157164 154.87433486781225 8.390310191064637
0.4746286639584524 11.145536913915024 31262.56618621014 167.00988963500018 8.433448304705532
0.4537874583930819 10.848526145498456 31071.567174476746 179.5714470130591 8.477999391061207
0.43622444112739317 10.52894339248515 29667.744961775134 192.56413897704365 8.523971704128192
0.42195207839760246 10.191415919462132 27189.459451486142 205.99591698603706 8.571383216717889
0.4108997917501495 9.842776452922946 23945.535546594438 219.81882751317593 8.620045130253361
0.40288309041322107 9.489731147834664 20321.921464314833 234.00496475341606 8.669841423267139
0.39773941115546024 9.141339463500497 16700.412563413505 248.68440049943817 8.721238076379588
0.39510563625184114 8.801353428725484 13347.831025034871 263.8693942685795 8.774266158167325
0.39480194893514603 8.477968880027557 10454.787916052388 279.5741735734771 8.828963127167807
0.39651296302525163 8.173807930814979 8064.4566081395615 295.8147478083657 8.885372102633394
0.39997330276325516 7.891167760299148 6159.383533772754 312.60891651445655 8.943541843495927
0.4049527803790295 7.6312227178690515 4681.197927480121 329.97578007120285 9.003524885010773
0.4112218225786607 7.394032335341733 3534.553445750563 347.8591356172669 9.06509478594667
0.4185780492320106 7.177715775665293 2705.477014131325 366.3601799863797 9.12860458724967
0.4268559976016179 6.9820050039708095 2068.499895617021 385.5134428710623 9.194154368375271
0.43591713012967676 6.8048468773444934 1591.8944439728693 405.34403689802207 9.261800607443577
0.44563937079148397 6.64471665437065 1234.408326589059 425.8794886265804 9.331630698769704
0.45589856514081895 6.499946485215337 965.4651860995044 447.1488884610281 9.4037322031589
0.4666134620528798 6.368910551480098 761.864480172366 469.18353230057625 9.47819301221863
0.4776889650340374 6.250309545319486 606.9410320127042 492.01662988723655 9.555084783671717
0.4890570867899977 6.1425932877873874 487.85657548852873 515.6846242792024 9.634508170445672
0.5006663687474837 6.044663196238575 394.38770330010885 540.2257834862384 9.716589303168968
0.512464844435601 5.955513725013097 322.6682317446067 565.6809499771333 9.80142781926279
0.5243798715231868 5.87409520354895 266.9609605508192 592.0942053475128 9.889135082295978
0.5363921173356057 5.799508598701662 221.93946778273863 619.5126288076574 9.979860594422426
0.5484644405285394 5.731044027370019 185.89903783169981 647.986101884509 10.073720603702744
0.5605376151592611 5.66804490826322 156.8251732087031 677.5687185003347 10.17087057823658
0.5726075218157191 5.609830311693618 133.13035647307967 708.3176358369541 10.27147554545254
0.5846362690592456 5.555954962405804 113.69471032042257 740.2941517718364 10.375679206368197
0.5965883895976885 5.505909980611698 97.52257777218307 773.4927232447435 10.483430589465431
0.608441793752118 5.459278036604133 84.42448970685601 808.0255909194415 10.595029310513448
0.6201791376300124 5.415808690039983 73.33963893621666 843.9860992403147 10.710788193551766
0.6317801386327936 5.374940027027162 63.983476184563166 881.4553416814796 10.830904615432095
0.643216656698258 5.336505704095056 56.09412196420844 920.518728109173 10.955606307566557
0.6544961447553582 5.3001987338967425 49.299273440234984 961.2246004242112 11.085000254371954
0.6655504721236801 5.265828614839345 43.631413917102286 1003.6030327512148 11.21905859842286
0.6764196145394136 5.23314066167461 38.661739525205455 1047.8608133857228 11.358475470571731
0.6870691668659502 5.201969110017221 34.41203420318482 1094.1117115787333 11.503532389891262
0.6974523602278436 5.172098080237448 30.782538502267958 1142.3356597371585 11.654041006978979
0.7075883026077499 5.143521427997161 27.587710775539524 1192.7434894661599 11.810617335662867
0.7174791342637902 5.115782260547232 24.797989960035956 1245.524625202051 11.973864098559227
0.7270649866206087 5.089063771752884 22.33529867250735 1300.6130052301621 12.143294334817563
0.736382553470475 5.063041078392292 20.19905295217461 1358.3652426813358 12.320134038511824
0.7453628677915044 5.037757903785144 18.310819394512965 1418.805068160607 12.504222831601638
0.7540567499135588 5.01292257976706 16.642411520124597 1482.1772461585754 12.696288900408746
0.7624103699983467 4.988679816757899 15.175861125256208 1548.6030749541685 12.89655205739553
0.7704475584342494 4.964798303735435 13.86019021571415 1618.352238322059 13.105748433609806
0.7781366868706844 4.941273742394377 12.689563062595017 1691.52055571074 13.323970854190122
0.785466248758762 4.917947869580261 11.636938959951593 1768.4743374292907 13.552313524669026
0.7924297561360708 4.894814173172556 10.702235997169664 1849.3416753267716 13.79086774305666
0.7990337320057098 4.871872987032227 9.865529737588751 1934.4300028088264 14.040461494702654
0.8052495361954111 4.8489796817996815 9.11172630696313 2024.0669021266046 14.30193828260991
0.811088097087996 4.826064158814122 8.433931351271916 2118.54864468059 14.575969943358599
0.8165386077254583 4.803261493966593 7.821631399297656 2218.1392120527853 14.863034399914765
0.8215903092635878 4.780306203005959 7.269579418154598 2323.2722899535097 15.164249666813427
0.8262404515563838 4.757237834909125 6.768658929862417 2434.3507865955467 15.480564323188673
0.8304845554497183 4.734073973209268 6.3149285100366335 2551.8068275904493 15.812962941096648
0.8343130367515158 4.710789601652501 5.9045060448480156 2676.1149256495464 16.162525054583547
0.837725292656775 4.68730529237108 5.529686887369049 2807.796369835042 16.530434594369215
0.8407011297492281 4.663651025457233 5.190465445267724 2947.4239497864432 16.917986021279336
0.8432618649599107 4.639701008185481 4.880345085874664 3095.627374011579 17.326587334579166
0.845396538427841 4.615579161265892 4.598791636453068 3253.0764923451657 17.757706851359757
0.8470879490372093 4.5911601803241275 4.340636998162861 3420.4986465534075 18.212890053136178
0.8483534672010762 4.566490294625544 4.107499374641397 3598.778406826602 18.69419611737181
0.8491653175096755 4.541542835673764 3.892560225680549 3788.842494076703 19.20367406896394
