M[M_sun], R[km], Lambda[1], P_c[MeV/fm^3], rho_c[fm^-3]
0.23841724892012095 16.20908015294055 2780876.1263280716 3.453507347168396 0.169602847481901
0.2484156038511787 15.866213250935164 2282145.855755471 3.635561107555236 0.17197862566845087
0.2586942073184344 15.563004679642294 1881711.6263486121 3.824792027216732 0.17437522714623543
0.26926064538971556 15.2935386775447 1524876.9992229491 4.020307142975445 0.1767669836264259
0.2801133005458887 15.053924664305406 1295519.2775778223 4.222433139196302 0.17914581284543302
0.2912436008545469 14.839844413156602 1081227.8306348415 4.432538272428577 0.18154845026331268
0.30266518934240283 14.648505878436858 905594.2858030226 4.650970134241927 0.18397875460484883
0.31436727339791115 14.477040682421721 761041.7001696336 4.878095952118861 0.18643837763073198
0.32635196907213354 14.323237572157819 641602.490826667 5.111233237937933 0.18886769371464565
0.3386218650402363 14.184997878697795 542506.031966095 5.353569343068055 0.19131873613309033
0.3511735183991535 14.060717624527227 460005.55462678644 5.605603432477386 0.19379975080371437
0.3640075545037371 13.948885791181548 391112.4292731462 5.867748007717954 0.19631634230531517
0.37713353373134684 13.848272177245837 333408.08518582664 6.136911732491217 0.19880884517999028
0.3905364547564295 13.757593437645038 284871.46367717173 6.41648962392616 0.2013312271174475
0.4042243450479146 13.675962032836074 243989.30210401738 6.7073062884098675 0.20388822144257457
0.41819695950442376 13.602585325238671 209424.1044674446 7.009480912258808 0.20647166934136982
0.4324539194019254 13.536499523995092 180148.82575561557 7.319594015352472 0.20903135563853523
0.44699402101199825 13.477230220066804 155259.96583476095 7.642250922397513 0.21163550223614136
0.46181882994910367 13.42394933274384 134073.8120224888 7.977985533507296 0.21428414158845105
0.47692446189327514 13.376230094153893 115992.76419780395 8.32490281247306 0.2169402285477398
0.49231453543574893 13.33359093953781 100529.50452841716 8.682884231451398 0.21959318506410844
0.507981982086778 13.295518502452195 87277.71749345749 9.055467879004736 0.22229427376782485
0.5239338995580006 13.261668671045038 75897.61637704437 9.443258793358146 0.2250463353989203
0.5401665406088586 13.23161733872313 66101.11387864982 9.84089743758468 0.2277730728337121
0.5566711010694516 13.205095059140323 57663.04167467444 10.254443434989406 0.23054578183199065
0.5734584183044019 13.181821998686415 50374.44475585653 10.684915961303558 0.23336910807741593
0.5905228833292636 13.16139811429964 44068.13225699271 11.129393918823839 0.2361970678670074
0.6078475547714767 13.14373170971802 38610.082108269475 11.588579073918442 0.23904202847850176
0.6254495124391768 13.128452538079166 33870.08169893859 12.066611161950785 0.241946333781056
0.6433237685665066 13.115435199330106 29750.261443207586 12.563237256222163 0.2448992961103964
0.6614568182028324 13.104472933175195 26164.80394857069 13.073296917509296 0.24783074079830603
0.6798584693435605 13.095239357013261 23038.51423156845 13.604317295271732 0.25082082195812205
0.6985041476932026 13.087745371521265 20310.304546082738 14.15720455912506 0.2538713043662825
0.7174215344496073 13.08195840402207 17926.74909767368 14.726012187362794 0.25691864416720117
0.7365883140469094 13.07747543124849 15727.110895014188 15.316215638073961 0.26001372764979597
0.7559931280388862 13.0741939810067 14012.291599832328 15.930678420617575 0.26317472744354287
0.7756390393346625 13.07200852939928 12408.206675988617 16.56654787671553 0.26636140845808376
0.795529774060749 13.070950481169543 10999.8111506302 17.222828508368988 0.2695611024816851
0.8156530419052921 13.070746719397075 9760.764271648917 17.906162032530425 0.2728327325175111
0.8359933830447134 13.07134537023687 8670.376968989056 18.617322788118596 0.27617566298670676
0.8565449242868081 13.072539662709792 7709.267952594959 19.347615933156593 0.2795075540545556
0.8773061583565801 13.074623461623146 6864.79005036115 20.10794797066213 0.2829102614334387
0.8983070049800403 13.076841826072116 6112.137027079087 20.899570265085504 0.2863855907191034
0.9194908583225291 13.079743487367415 5450.014921649608 21.71723507654948 0.2898842523486055
0.9408564182026992 13.082803315896284 4863.699870100958 22.5639283394918 0.29342909638067366
0.9624097296458477 13.08628845325406 4345.0534608885455 23.445440756267832 0.29705735561038865
0.9841503698280667 13.090023369166067 3884.6449948067498 24.362392361327508 0.3007644241343297
1.0060392006182843 13.093793825234606 3476.141827185178 25.306019069543982 0.3044651493448831
1.0280858575911764 13.09763563789775 3113.50180417052 26.28849655587559 0.3082524125407139
1.0502867706218078 13.101518345357581 2790.8454988798594 27.3113251043028 0.3121280796284159
1.0726130296682947 13.105342985383672 2503.7276145312103 28.371017243198274 0.3160606285398889
1.0950611525772282 13.109018081378503 2248.152167946626 29.467229150678264 0.3200406797456123
1.117626241239765 13.11248588118938 2020.1643861772268 30.60846328134673 0.32410979672440493
1.1403075164133611 13.115855539374653 1816.807943463925 31.796572136724443 0.3282688732747328
1.1630677123831157 13.118904339964505 1635.316472588754 33.02616524648407 0.3324804749272684
1.1859029413365476 13.121545696834444 1472.9845796745867 34.30128545021754 0.3367644293041911
1.2088048533126374 13.123905431273709 1327.9133143379454 35.62890505109121 0.3411540949184943
1.2317705512940942 13.12580115062457 1197.9929402127937 37.01104466651613 0.3456483392321408
1.2547647943273965 13.127268877307975 1081.7147321818732 38.444259470009705 0.35020540747465134
1.2777785190958728 13.128160932430584 977.4349722047931 39.93021461453471 0.354839759376585
1.3007933705009276 13.12849417883316 883.9132853246249 41.47763182446503 0.35959132264938687
1.323809665925012 13.128277761392729 799.9676683321558 43.08897152380446 0.3644622531476528
1.3468371114917055 13.127548920494215 724.5009035266723 44.76682418800611 0.36945436974491763
1.3697837590448343 13.125916341810449 656.6401816028839 46.50373934137909 0.37450214251780833
1.3927087406167202 13.123690157555075 595.6428070103411 48.31207764838295 0.37967674038092675
1.4155298102242806 13.120636779903299 540.7497734154937 50.19588510341976 0.38498674953516043
1.4382915633162157 13.116857307717012 491.2584211485224 52.15835686022085 0.39043497802641397
1.460942611627564 13.11225783222358 446.58103393372807 54.20287969565989 0.39602293563774066
1.4834802935411524 13.106808659193309 406.383595569994 56.32825882812896 0.40172172394963035
1.5058664517820044 13.100365930372723 370.0192035164621 58.538627280865846 0.4075527690387415
1.5281071821531584 13.09313034525556 337.19148172542054 60.842910764720415 0.41354461755724364
1.55015710353065 13.084785449802451 307.5004555614827 63.245365863661355 0.41970034862349376
1.5720199949331946 13.075561009228323 280.6484162196528 65.7505134564685 0.42602074856301936
1.5936780842247256 13.065329097788506 256.33712780886106 68.36322369507315 0.43251153190285135
1.6151093681370856 13.05406473970575 234.32424919097122 71.08855893711822 0.4391875494970849
1.6362669979954005 13.041587863027873 214.3468021041866 73.93196506609692 0.4460559073025684
1.6571874778093494 13.028230332710123 196.24589816533887 76.8967444847161 0.453108937157035
1.6777964091393562 13.013609846224252 179.81572311239253 79.9895578742717 0.4603517237919181
1.698068849448359 12.99764417897754 164.88324486245452 83.21979945606088 0.46781613205788214
1.7180359544230008 12.98066163651791 151.3050740106138 86.59454668503443 0.475512574629767
1.7376586376110033 12.962510173443373 138.97289797716064 90.12133227606546 0.48344579372933283
1.7569008981711243 12.94308137231333 127.74520707318172 93.80822172290596 0.49162349085639
1.7757749320076195 12.922502206540164 117.52250547824552 97.66388678242647 0.500064922724093
1.7941946693461823 12.900421462401164 108.20839814145484 101.69758168044572 0.5087859910592594
1.8121983554699863 12.877055783915598 99.70966610503335 105.9192030441312 0.5177938581144629
1.8297622437388648 12.852476825257485 91.959854685483 110.33937991060029 0.5271013501656556
1.8468410591722604 12.82648725869377 84.8902996858809 114.96954103998344 0.5367322400607849
1.8634365059841025 12.799206844746163 78.431042825144 119.82195136621011 0.5467061801757757
1.8795086639676573 12.770448231195166 72.5264579511973 124.90701890590196 0.5570212946676781
1.8950617010051534 12.740319698308708 67.12249914088525 130.23682834555697 0.5676941864984101
1.9100732417294677 12.70888816314824 62.17972289312223 135.8300632084517 0.578766798964686
1.9244945653621117 12.675981825829885 57.66032289186109 141.70306902798944 0.5902574907644245
1.9383547069311933 12.641639011784667 53.51042995648537 147.87346472930923 0.6021848393944357
1.9515831609309675 12.605792336388511 49.71052110399946 154.36022468112657 0.6145842871225519
1.9641744353247281 12.5682860155138 46.2185563547112 161.1832151885848 0.6274855374730509
1.9761478504066796 12.529563002484284 43.01943311114393 168.3500711155503 0.6408555042336276
1.987431534865767 12.489223544251114 40.08196465967735 175.89805507033128 0.6547857079529178
1.9980653243618798 12.447539046061422 37.38377737378109 183.8529548864295 0.6693156556226749
2.007972653257389 12.404140324026354 34.898736209224275 192.23425464902556 0.6844412248590424
2.0171729463798442 12.359331342328376 32.61859171279812 201.06265860042456 0.7001840849332156
2.0210296320450403 12.3218314495479 31.22247617977158 212.24175465720293 1.951048860922295
