M[M_sun], R[km], Lambda[1], P_c[MeV/fm^3], rho_c[fm^-3]
0.23841724892012095 16.20908015294055 2780876.1263280716 3.453507347168396 0.169602847481901
0.2484037919523708 15.866558522457684 2282679.7682892396 3.635367106216032 0.17197615789804438
0.2586689853804499 15.563772204323792 1882408.5674521977 3.8243929816750493 0.17437034558116304
0.26922584788231474 15.294426636957663 1559112.154779316 4.019664273375028 0.17675911933661512
0.28006866127664465 15.054786859276396 1296496.6131392159 4.22155282976502 0.1791355189924032
0.29118604469917225 14.840919567541132 1082215.7771466286 4.431408403860642 0.18153573695978867
0.30259148080812326 14.64966713084019 906594.8675042825 4.649577948368082 0.18396367650286416
0.31428001727475197 14.478200194187927 761973.4447961628 4.876383892100824 0.1864201036327318
0.326249384586886 14.32441363720276 642468.185343206 5.109192610346159 0.1888464301513655
0.3385047859930624 14.186191470866584 543368.1440087421 5.351214622227832 0.19129524046478347
0.3510386228235078 14.061919365022645 460790.52575923665 5.60291988470616 0.1937739591072373
0.363859388204266 13.950177231405826 391882.8418898047 5.864719823067052 0.19628830078911985
0.37696377516630014 13.849427577181263 334071.373257177 6.133381475598819 0.19877615438757368
0.3903530976206448 13.758869306885131 285494.614749502 6.412569263370935 0.2012962852464079
0.40401894201567373 13.677095144278862 244548.09511875224 6.7029782825856605 0.20385121907152798
0.417972798786521 13.603680071077482 209920.90521859817 7.004529314907635 0.20642933556228
0.432209418329103 13.537487482853773 180586.65233420974 7.314183530520071 0.20898675530088523
0.44672860891466737 13.478200386604305 155672.1221983577 7.636360392247413 0.2115886695155879
0.46153251732037814 13.424935197789907 134447.470697654 7.971592974201069 0.21423519852784487
0.47661668759678355 13.377139759892858 116321.844751111 8.317708356773801 0.2168851459643097
0.4919864117222168 13.334438954864488 100828.48958534496 8.675127059746153 0.219536114050624
0.5076329347188058 13.296389767749167 87552.44980981045 9.047122853488426 0.2222350103126677
0.5235620108811706 13.26239987122145 76136.5190375085 9.434250554285866 0.22498425596703367
0.5397662927355537 13.232337224378664 66327.80621474731 9.830922780374854 0.22770467336698985
0.5562511515216754 13.205754336664782 57863.07122713869 10.243779754027086 0.23047531401571303
0.573007716982636 13.182314923346715 50554.77790495602 10.67353261473696 0.23329668233432413
0.5900430223771005 13.161922110954114 44232.40044333904 11.11679425307355 0.23611690337852997
0.6073528668211086 13.14415020264214 38752.13776916279 11.575174898508365 0.23895959932416647
0.624925399985704 13.128826940184886 34000.07381475515 12.052364272611825 0.2418616211008052
0.6427728501305173 13.115829103004659 29866.530545950936 12.547539732921441 0.2448059578917533
0.6608729537202336 13.104694182607677 26269.94973191462 13.056657573444797 0.24773530250015496
0.6792511723963548 13.095556061341247 23133.875825545878 13.586693276202794 0.250723285419036
0.6978684555103573 13.088010025887804 20397.48856821468 14.138549187325777 0.2537713597555518
0.7167606575671311 13.082205477314822 18005.28831801967 14.705565170097064 0.25680910096413795
0.7358896916201747 13.077507454450634 15910.314188204993 15.294614438882725 0.25990164967153145
0.7552695410171791 13.074321133539291 14076.220961737197 15.907867639999154 0.26306041045469164
0.774887362666394 13.072082799204994 12465.64108539181 16.541617644933368 0.2662364697689449
0.7947478625986059 13.07093776561982 11051.042386210733 17.196547498850894 0.26943371594807286
0.8148339707796323 13.070726358482606 9807.763310907749 17.87846345741264 0.27270253071716294
0.8351499379636951 13.071289476286815 8712.586141955138 18.587122810552522 0.27603370292439827
0.855673606998565 13.072530376574896 7747.785134006495 19.315827821209385 0.2793625704648738
0.8764223033823926 13.074388828358064 6895.945548855099 20.074492714221947 0.28276263659504197
0.8973723754443844 13.076750105799961 6143.693170420646 20.864365174766103 0.2862349535668905
0.9185258903093113 13.079604548730162 5478.499856327235 21.678966285066114 0.2897205060915903
0.9398623007966528 13.082748955580367 4890.023724701452 22.52369789621265 0.2932618167364731
0.9613807540372519 13.086163569523857 4368.647523346209 23.40314451593785 0.2968863596054271
0.9830735813403374 13.089796750022817 3906.0758161380177 24.316487255281945 0.3005788381418185
1.0049508170780777 13.093609256763559 3495.3435471191333 25.257797457467483 0.30427617340227525
1.026964478683404 13.0974520387366 3130.868342820656 26.237838215666887 0.30805938184845433
1.049122718277844 13.101274410234824 2806.578608958316 27.25809805379798 0.31193055246761064
1.0714169550852306 13.105090551051864 2518.183972466002 28.31336844948246 0.3158466921590726
1.093837866087284 13.108767665639256 2261.2065510797424 29.40668930422006 0.31982175264567836
1.1163815908217944 13.112295064546595 2031.9639130393853 30.544876585698525 0.3238864183626278
1.1390390798619439 13.115691638335445 1827.56863519712 31.729773385789557 0.3280400742292667
1.1617797138408554 13.118846883867963 1645.1252995138532 32.95393565626737 0.33223307417404024
1.184571147713086 13.121388275198616 1481.9360725201295 34.22543384253703 0.3365108189958925
1.2074478710031196 13.123766775137243 1336.106523122155 35.54922424673725 0.34089388802039267
1.2303697114883758 13.125647897938507 1205.4594396908303 36.92732045961389 0.34538212866588547
1.2533398252098464 13.12715645618186 1088.5085038583975 38.353841524974236 0.3499179134124425
1.2763358314836373 13.128094034456385 983.60243644517 39.835232536952766 0.354544496654137
1.2993427390009606 13.128530501359064 889.5420839391136 41.377818000501684 0.35928774231343835
1.3223299628942433 13.128346135119399 805.1687343368459 42.984040840912165 0.36414988106294627
1.3453237499114201 13.127562239261692 729.1992869392377 44.654617794990024 0.36912308424264595
1.3682680117607575 13.12615145781175 661.0079295966804 46.3847302193775 0.37415628163646436
1.391135124550793 13.123758369686486 599.60387151293 48.18693622897172 0.3793203102574434
1.4139769757470995 13.120908031158761 544.3220077246259 50.06423992370479 0.384619076809235
1.4366948125586356 13.117114552642986 494.55750929282624 52.01981271298326 0.3900555207809888
1.4593345238512598 13.11257312072773 449.66212236525377 54.0570215531599 0.3956318455658685
1.4818653736723109 13.107214682090017 409.14062664167477 56.17107172509072 0.4013002574865935
1.5042428284987714 13.10090842347522 372.543583438637 58.37312423717617 0.40711692793307336
1.5264590837995795 13.09365596682559 339.5133345240696 60.66857222179798 0.41309348434168514
1.5485196205482925 13.085512112920604 309.6260544645545 63.06163847224906 0.41923326323558757
1.5703603408978306 13.07629152033706 282.60402938957094 65.54993382005566 0.42550782305120954
1.5920282447466634 13.06616385790319 258.13020916097713 68.14080420747314 0.4319335234173968
1.6133278520615042 13.054932146565394 236.05999937691377 70.88074302648911 0.4678532997800768
1.6327995399663193 13.041872255875282 217.21706080437136 73.78988123886596 0.5621124262168179
1.6500082780159009 13.025669703825502 201.19706911778002 76.92749575281003 0.6550788873246446
1.6651605067509778 13.005866256340788 187.36670033407052 80.30016069207099 0.7474166694529543
1.6784092415041865 12.982193036524105 175.2612389042801 83.91790754519745 0.8383801959450802
1.6899966798564847 12.954711928417524 164.50760955900054 87.7910496540904 0.928812317953346
1.7000730630106444 12.923552223220897 154.86126479235165 91.93132767051894 1.0192037293022445
1.708724076829963 12.888403119515548 146.1307153885244 96.35118940160487 1.1093472808559899
1.7161450060770258 12.849730225832637 138.1507215477957 101.06371972070332 1.1994533398432699
1.7224454071553 12.80772317786205 130.81742843290917 106.08337162807226 1.2901308373992069
1.7276820140498397 12.762179584634724 124.01869722709317 111.42571339441427 1.3812159198061411
1.73196804884328 12.713337579327776 117.68863426471962 117.10761302216535 1.4731582796912361
1.7354152888333223 12.661633499846534 111.76730347807101 123.14753910617057 1.566278470655011
1.7380348376946353 12.606809967307715 106.21165191591673 129.56539052115605 1.6605044508307996
1.73992994024414 12.549225826570774 100.96450384143363 136.3799700995605 1.7560627765154058
1.7411483435375046 12.488992138404601 96.01673001176867 143.61042807497415 1.852451769390296
1.7417355165066852 12.42618009075601 91.32680944561797 151.28702556674898 1.9521674219479843
