M[M_sun], R[km], Lambda[1], P_c[MeV/fm^3], rho_c[fm^-3]
0.23841724892012095 16.20908015294055 2780876.1263280716 3.453507347168396 0.169602847481901
0.2484193161881354 15.866103549525274 2282116.7768009417 3.6356292388131712 0.17197949232381923
0.2587038614555691 15.562745708788917 1881443.7911688462 3.824932174859711 0.17437694158673778
0.2692720860794766 15.293316346064804 1557882.0826171297 4.02053293532994 0.17676974576747542
0.2801297463297134 15.053562363649045 1295129.2318258055 4.222742341451458 0.17914942848609067
0.291266165241152 14.839531925782746 1080840.0142841893 4.432935149078071 0.18155291592724015
0.30269069313727415 14.648108801829956 905228.5636686176 4.651459174466678 0.1839840511665522
0.314396367780169 14.476653777376287 760717.772286221 4.878681828009067 0.1864444825217547
0.32638918135716044 14.322767867326325 641269.876325223 5.111950130110159 0.18887516380969419
0.3386632527391522 14.184607708602176 542294.2622314607 5.354396614691392 0.19132699074201448
0.3512206678326419 14.060277706804172 459757.7830170585 5.606546268451923 0.19380881244202156
0.3640612760599399 13.948440190832395 385212.14964111405 5.868811971466824 0.19632619479455696
0.3771915889678951 13.847825546650038 333169.63090533175 6.138152169910955 0.19882033184609715
0.39060390093356256 13.75716853889414 284662.4606513711 6.417867187817165 0.20134350523808214
0.40429907304163476 13.675678958427303 243797.71769542672 6.708827152276492 0.20390122409816006
0.4182776467173207 13.602184323488729 209249.5509352275 7.011221005339278 0.20648654630143742
0.4325399349449264 13.536167072156923 179968.13655931855 7.321495442376841 0.2090470297028623
0.4470857692811546 13.47679934938234 155112.22161643193 7.644321129727799 0.21165196144081677
0.46191799059447347 13.423575444923543 133935.1653530687 7.980232258299756 0.21430134308513105
0.4770323671378312 13.375909356744549 115868.91587469504 8.327431517868046 0.21695958895966144
0.49242935041157593 13.333296090270032 99372.77727376149 8.685610815977233 0.21961324507414212
0.5081088362436751 13.295287519531373 87180.68846837815 9.058401190604112 0.22231510512179634
0.5240621604793356 13.261382846448711 75811.58678003667 9.44640849561928 0.2250679339311268
0.540306732481233 13.231456395511854 66024.40200085453 9.844403898025645 0.22779711777272096
0.5568177971278819 13.204909472977784 57596.743995899626 10.25819223728224 0.2305705546953355
0.5736143651947433 13.181602473243123 50313.35123165108 10.688917891685838 0.23339457007842263
0.5906865608048385 13.161225774139938 44014.01594115683 11.133823726782758 0.23622525220904614
0.6080244461619806 13.143581333717451 38559.41865159141 11.593291883507165 0.2390710099635284
0.6256369646702715 13.128226274196937 33821.42464567855 12.07162042221619 0.24197611908036315
0.643516227502776 13.115231242101427 29706.9743176856 12.568756906874905 0.24493211621517277
0.661668515473045 13.104310161165857 26125.519775158624 13.079147918887534 0.24786430039127158
0.6800699021675968 13.095163508788616 23004.25007061347 13.610514735138079 0.2508551204250831
0.6987258606002633 13.08771184927208 20280.867720560153 14.16376487145024 0.25390645069671575
0.7176569449468592 13.081866305057366 17899.063363065077 14.733203001480105 0.2569571683588133
0.736832472208117 13.07735866299232 15814.607164031022 15.323812584808218 0.26005314446288214
0.7562492360904465 13.074149074444398 13989.868473789533 15.93870100684832 0.2632149329023581
0.7759086099290698 13.07207336643414 12388.878359952962 16.575316445350744 0.26640535243263164
0.795808802652537 13.070962087941208 10981.592068008764 17.23207245288315 0.2696059087532155
0.8159338760835049 13.070704075679451 9744.03326053876 17.915904872455112 0.2728785303714911
0.8362895244555285 13.071344089043683 8600.38082783933 18.627846664941256 0.27622473145654175
0.8568529151706806 13.07261009561716 7696.178021221579 19.35879832025894 0.279558556222473
0.8776534800303695 13.074548921922874 6848.96007606623 20.11971717113574 0.28296219426859964
0.8986379876611804 13.076843063996742 6101.078509828182 20.911955402985175 0.28643858481416307
0.9198335071773907 13.079773114729347 5440.093663534085 21.73069893862552 0.289941862138057
0.9412084918824958 13.082955244219416 4855.4643663911065 22.578082774650056 0.2934879510361072
0.9627714954623509 13.086371444267906 4336.983284376414 23.46032245080231 0.29711751959405724
0.9845155417774375 13.090074452990146 3877.418532781126 24.378544941318584 0.30082972607669495
1.0064249416394617 13.093870047457601 3469.389682308186 25.322987262196644 0.30453164608903593
1.0284697468575164 13.097633335564403 3107.449347190586 26.3063227171798 0.3083203381032709
1.0506896125385479 13.10152761809505 2785.18104712097 27.330055735441825 0.3121975895553025
1.0730158442826825 13.105341111258538 2498.8479859842314 28.39130534213837 0.3161359182759116
1.095462593192967 13.109098678223623 2244.489100175757 29.48853533928018 0.32011772820797474
1.1180757324245387 13.11261225066128 2015.935210881867 30.630842460608566 0.3241884141828287
1.1407551181489823 13.115916238147099 1813.0289620505025 31.8200825259554 0.3283494010471731
1.1635263829006217 13.118950848648712 1631.825914605227 33.05158894222628 0.3325675561561331
1.1863699644171917 13.121578259579035 1469.8699471591794 34.32798489105987 0.3368536990458681
1.2092813224575083 13.12391849450983 1325.0446954848546 35.656953261726095 0.3412456895998705
1.2322431393346671 13.125778582670643 1195.4223361133393 37.04051715190898 0.34574205032616817
1.2552611282160033 13.127339079372843 1079.334608483612 38.47609070256126 0.3503066184715145
1.278273668770607 13.128157092968639 971.1227321122612 39.96365375185725 0.3549437087844472
1.3013053022417886 13.128473882198907 881.9360947411022 41.51277321611283 0.3596982039916552
1.3243374267419326 13.128303208549832 798.1650457914512 43.12591569444116 0.3645722336345938
1.3473521802823507 13.127415820637314 722.85600181515 44.80567582575108 0.36956727925509747
1.3703229393485707 13.125880151612032 655.21092704482 46.545645082469235 0.3746239277751318
1.3932506004199525 13.123618069779068 594.2962683633641 48.3561443163258 0.37980225188599254
1.416088926448647 13.12056969421415 539.4852685081785 50.24224370405107 0.38511622478902924
1.4388397668699968 13.116677488356485 490.06831087153483 52.20714678222238 0.39056860827912654
1.461494852601731 13.11207337214984 445.604116675891 54.254500779754295 0.3961610336214614
1.484034706296661 13.106593030354457 405.42615011710615 56.3984578331894 0.41983125780404695
1.4966678524386936 13.095987688335084 382.54145425752586 59.14270462382192 1.105253886191885
1.494204026246589 13.072592827154129 379.73387513222855 62.821784408176626 1.770384728396845
1.4836476975060715 13.037660598328522 386.0693016217454 67.71674258440076 2.388148855025325
1.4681345531499836 12.993126187702604 397.7329467729955 73.73546913009217 2.985519165248166
1.4493916537442493 12.941435029796827 413.18900749374524 80.90077814008559 3.6384918875583767
1.4280405375770528 12.882931233876711 432.0461839965147 89.268753290341 4.254920492465428
1.4032461448122164 12.812299834639033 454.65069627775495 98.4088744456631 4.318441735378176
1.3755796811262604 12.725928551766913 479.49225894406555 107.93352889349191 4.3649603587568
1.3467723164458498 12.626631319142763 504.2648816730275 117.83713768179835 4.412431369781761
1.3176664047518964 12.515785431599596 527.6145743022862 128.13300175965028 4.46157393486658
1.2889074126166433 12.394650353825181 548.2674539789564 138.83863976012037 4.512528597938077
1.2609450137074913 12.264237569584889 565.0691048246697 149.97276413437052 4.565378189316627
1.2340182693070476 12.125385734586507 577.2020873283911 161.55580165751883 4.620195487635496
1.208468890128894 11.979227128788562 583.7741229969496 173.61065192913298 4.677069313217779
1.1844168489560551 11.826331157775906 584.4220691532513 186.16208228916162 4.7361102421334
1.1620685959138726 11.66800593447512 578.7114354880855 199.2363165162241 4.797411473061335
1.1414877871306575 11.504937889104799 566.839289515958 212.8626083467754 4.861093386859172
1.1228036898579818 11.338567660033494 549.1391837745053 227.07167211051055 4.927284582618505
1.1059722569200279 11.169500135520481 526.2189430217095 241.8968323627926 4.996105087399554
1.0910405499735354 10.999037133124986 499.0170506058415 257.3746002765025 5.0677191557031716
1.0779680734013872 10.82807885823932 468.4692330458931 273.53114391360134 5.1421864625887785
1.0667176953353674 10.657621094815147 435.7248377784148 290.3676059809894 5.219503709833399
1.0571890310504652 10.488483806779232 401.77616194078416 307.97520117234103 5.300043191736632
1.0492975504982345 10.321478976025164 367.5366559590918 326.401505193252 5.384016891021063
1.0429323055875177 10.157363624083375 333.9267609242929 345.6992896665713 5.471618043588036
1.0380070047619196 9.996776603396246 301.5747375343695 365.92428099856284 5.563063433648865
1.034341984397699 9.839757416538873 270.9526991477809 387.08339714465666 5.658319947815754
1.0318618164072468 9.68727673717631 242.46381738696925 409.2409645517221 5.757626384663575
1.030425467223507 9.539316046139595 216.2777178374938 432.514958473073 5.861500213670698
1.029897866694263 9.396036581683115 192.41375429054284 456.98137450753063 5.97022199343928
1.0301794806004403 9.2575545234369 170.90733044282163 482.5997957648564 6.083480284189728
1.0311326839549366 9.12392151570357 151.70153357334215 509.56628554252103 6.202158755156365
1.0326616849107255 8.995129662104796 134.5631608434304 537.9598811865498 6.326525562334427
1.0346582041486938 8.870941731468678 119.39276660566482 567.7824691843595 6.456447080996096
1.0370174116798976 8.751369210491138 106.01620305440086 599.2637262926354 6.592935055747483
1.0396495314202654 8.636202227202757 94.2417930918893 632.3869447529437 6.735726515197046
1.0424675860876762 8.525153423683472 83.9187696298972 667.389291771723 6.885849204481851
1.0454119277047955 8.418198895562663 74.8482007308733 704.2909716860152 7.043158089107989
1.0483804916287809 8.315029786626459 66.90584709637675 743.3485846859197 7.208782355766375
1.051324083106258 8.215319890584396 59.935687200998295 784.5871786165817 7.382524731366234
1.054178458733635 8.119082495598189 53.822346961732954 828.278664838754 7.565511495002006
1.0568891948930907 8.026010342949267 48.46747675421582 874.5849530209409 7.758260483129972
1.0594046643780828 7.935907453658302 43.77041668611265 923.6414066856644 7.961060939326245
1.061667103660239 7.848547390589718 39.639056020353216 975.7361669234292 8.175021357754728
1.063646526703252 7.763765060030009 36.0021977935802 1031.0986258952632 8.40085430446512
1.0653197457836991 7.681303450297217 32.78582131150914 1089.9829905561626 8.639356456963169
1.0666312039849117 7.601140875222443 29.912042592506797 1152.6554761579152 8.891317999451315
1.0675557137324565 7.523024880591217 27.420314839869192 1219.4417002739365 9.157783350231014
1.0680719082651262 7.446875829870785 25.25495542012313 1290.7012956366955 9.439904637618401
1.0681471665933848 7.372552852213383 23.28810521640846 1366.8163623207308 9.738852319931953
