M[M_sun], R[km], Lambda[1], P_c[MeV/fm^3], rho_c[fm^-3]
0.23841724892012095 16.20908015294055 2780876.1263280716 3.453507347168396 0.169602847481901
0.2484070690740215 15.866451899566517 2282478.9688904616 3.6354221595574856 0.171976858197369
0.25868098214506785 15.563340644479899 1882185.5828532274 3.824506219088221 0.1743717308260619
0.26923570087611304 15.294128049177834 1558816.9061967186 4.01984669577719 0.17676135092858594
0.2800816412430461 15.054513744387924 1296174.7982530158 4.2218026223412295 0.1791384399290376
0.2912009718357014 14.840580002188602 1081979.5411716742 4.431729002242824 0.18153934433914026
0.30261314289725694 14.649322184817631 906294.5581398467 4.649972969344738 0.1839679547868807
0.3143045249219887 14.477888171963484 761728.8448866706 4.876877771742377 0.18642545260785315
0.3262793304768669 14.324124717526184 642239.3319768733 5.109771590985482 0.1888524631931179
0.338538506401631 14.185889991600142 543128.2275718043 5.351882704342752 0.1913019066629611
0.3510771976614371 14.061581599704557 460582.45841160143 5.603681244863519 0.19378127657342845
0.3639003683271101 13.949749364273707 391660.2801742188 5.8655789430194885 0.1962962563892028
0.37701166944708475 13.849058331094108 333877.7566497589 6.1343830079896495 0.19878542875158886
0.39040705011506677 13.75851378773255 285319.94654125033 6.413681444667954 0.20130619803246563
0.40407731462666063 13.676766655812116 244382.05239405096 6.704206085118168 0.20386171619346474
0.41803603550503715 13.603401137834117 209788.70372663095 7.005933980486759 0.20644134477831766
0.4322778800217858 13.537184189232796 180458.13195080837 7.3157183423925884 0.20899940724056604
0.4468030769514333 13.477871836615673 155556.15097742234 7.638031347720195 0.21160195446426314
0.4616139740325727 13.424616691918574 134333.76054157902 7.973406304678357 0.21424908184737268
0.47670420252622775 13.37689748648315 116231.26644195289 8.319749092594082 0.21690077035700572
0.49208223900431486 13.33430505364421 100745.42963223324 8.677327371174707 0.21955230216763114
0.5077330710946528 13.296140374361732 87470.91933049234 9.049489865611099 0.2222518200056416
0.5236671173693509 13.262189868179945 76071.18235178602 9.436839953292303 0.22500231932616277
0.539882587684412 13.232175654122663 65630.09530906638 9.833751887257096 0.2277240734724747
0.5563684865664017 13.20561942502598 57808.80723909602 10.246804235082179 0.2304953004140382
0.5731355378540934 13.182112487214502 50501.589578167535 10.676761154699651 0.23331722369310043
0.5901809857991781 13.161751134300067 44184.56306729274 11.120367650214186 0.23613963886688205
0.6074930809361436 13.144022306982764 38712.15907566923 11.578976398428145 0.23898297669830598
0.6250762097508756 13.12874177239328 33963.66212407666 12.056404703115113 0.2418856456923604
0.6429255498542026 13.11561600496627 29833.15603695784 12.551991418250312 0.244832427824022
0.6610410047072003 13.104611870907654 26240.32496081106 13.061376273183312 0.24776236754976172
0.6794240911131293 13.09550217839434 23106.814013542597 13.591691135281716 0.25075094505078577
0.698049763986624 13.087919789506666 20372.753192869754 14.143839434226413 0.25379970181556766
0.7169479845101152 13.082071493128172 17982.402694572233 14.711363293022305 0.25684016392793024
0.7360871997641579 13.077554043336649 15777.178973809823 15.300739752919576 0.25993343090772153
0.7554732425676842 13.074294608473698 14058.220132526889 15.914335844441052 0.2630928260772624
0.7750742998021893 13.07224435907467 12456.26375154005 16.548686596125414 0.26627189605391643
0.7949742018761919 13.071004111356375 11036.607620726802 17.203999344860534 0.26946983574900846
0.8150695681975687 13.070737535114231 9794.242258449005 17.886317123668388 0.27273944819329604
0.8353902786799661 13.07129401290903 8700.4476154902 18.59568542423789 0.27607395292689046
0.8559235414777379 13.072540538408541 7736.6022407126475 19.324840578191232 0.2794036770855604
0.8766815662323012 13.074421217932708 6844.12055248997 20.083978001706974 0.28280449142388264
0.8976453103885664 13.076853170588437 6134.7220166416755 20.87434642210764 0.28627766178497543
0.9188012301756462 13.079646913876193 5470.607120525988 21.68981575313896 0.28976692929228914
0.9401459824366943 13.082766283635708 4882.4562315157455 22.535103327670324 0.2933092409346843
0.9616712076485099 13.086211415371283 4361.869434088435 23.415135417230868 0.29693483663792447
0.983376596012277 13.089773255524797 3899.8526998393195 24.32950078166627 0.30063144946152026
1.0052618116391117 13.093661014041679 3490.0990061435755 25.271467468229815 0.30432974488315345
1.027284662190833 13.097518339772899 3125.9097517389437 26.252198769399627 0.3081141019126499
1.0494595921388186 13.101394034404663 2802.165174085038 27.273186539853373 0.3119865462862255
1.0717662967399737 13.105222017649146 2514.06985020316 28.329709763840757 0.3159073352606235
1.0941921965319632 13.108892543645167 2257.4869250503843 29.42384984662236 0.3198838094231765
1.116735523169095 13.11238615152234 2028.731733800407 30.562900487881823 0.32394973584911607
1.1394017860596084 13.115767185763552 1824.5137933325948 31.748707443872714 0.32810492715474204
1.162130977698193 13.118738562105422 1642.2771386159895 32.97440828042506 0.3323031969951995
1.1849484848025351 13.12144045431097 1479.4225000066117 34.24693272129483 0.33658270062683704
1.2078327165453662 13.123763923209296 1333.719289603236 35.57180805955413 0.340967638077612
1.230776083924089 13.125786946009654 1203.405527604817 36.95104987458972 0.3454575790192701
1.2537385751976053 13.12714261860364 1086.5918783807606 38.37946706715639 0.3499993927163059
1.2767554368550036 13.128122585106416 981.8082647453605 39.86215113046071 0.35462817620091014
1.2997529727948653 13.128523311798995 887.9479680014532 41.40610543174141 0.35937377756925654
1.3227505785263376 13.128338283359518 803.6891786134048 43.01377784933732 0.3642384062784377
1.3457491083271023 13.127518398947435 727.8772915140025 44.68670192992378 0.3692185967070559
1.3686917716568214 13.125998779026531 659.7725896591272 46.41845495746068 0.37425429149856876
1.3915889435634545 13.123793511163568 598.4310721576442 48.22239804707374 0.37942131326879264
1.4144225514484658 13.120842738286223 543.3164050932075 50.101543999071275 0.3847232636173492
1.4371467382003156 13.11701392554567 493.6093820926169 52.059070942153774 0.3901630447709829
1.4598014959843655 13.11250906934334 448.7948651596396 54.09835144077319 0.39574266357328386
1.4823174354803466 13.10708015461089 408.3399487105049 56.215609791496966 0.4014196775977598
1.504708892738655 13.10078513204568 371.8333555329201 58.420017575672006 0.4072404183779791
1.5269399818532015 13.093622472188645 338.8682549276989 60.71796791352997 0.41322130482746094
1.5489746180210402 13.085301001388064 309.02081471933633 63.11369315834694 0.41936560051562766
1.5708417165038384 13.076107739791945 282.0417941088998 65.61169136354297 0.4256743619224977
1.592492594123379 13.065961339430647 257.6224556435515 68.21680150954316 0.43215200422488614
1.6139040216449418 13.054654633704233 235.49456323537564 70.93404918012939 0.4388140448767495
1.635074627335711 13.042369215588014 215.4386874867612 73.7682656573108 0.44566534650253903
1.6559705054533231 13.02898304116891 197.25660220341268 76.72108059417046 0.45269104344912897
1.6765666444576468 13.01428764225727 180.7226372824746 79.80404568683245 0.4599175934315872
1.696883141365693 12.998692161011903 165.72925042132601 83.0237951468948 0.467363970694996
1.7168566625236679 12.981718277799365 152.0819833243978 86.38735445467191 0.47504121722114995
1.7364839997482493 12.963643067294988 139.68192862800896 89.90220792558534 0.482954468074717
1.7557259308421136 12.94427681882137 128.40328214686267 93.57636961561307 0.4911110884837996
1.7746159462263018 12.923869185951716 118.13593247017711 97.41844841521309 0.4995293898719734
1.7930451180290898 12.901811360247294 108.76700361764583 101.43762943840214 0.5082258116344821
1.8110867792164438 12.878779413478352 100.23519628464078 105.64374212794553 0.5172080234443076
1.8286625762748174 12.854248457135125 92.45129281973438 110.04734223325966 0.5264881390708153
1.845743816933498 12.828314167693794 85.33699604927754 114.6597717390021 0.5360892193545769
1.8623460186119323 12.801063691041472 78.84271414279542 119.49320155658555 0.5460313528403052
1.8784791457221415 12.772505532755723 72.89834884976473 124.56067309353637 0.5563231964607991
1.8940293884525345 12.742407437063413 67.467992802994 129.8710864757536 0.566968305856669
1.9090597499270388 12.711077432292438 62.505348712671214 135.4411742934379 0.5780027448269578
1.9235308807356246 12.678335567318339 57.958328368353556 141.28935127142572 0.5894535727618736
1.9374026745336292 12.644057542267733 53.78642267601827 147.43309998475124 0.6013377629511714
1.950685509184735 12.608436429784136 49.967967942433916 153.89123921465375 0.6136906077534489
1.963297189744102 12.57102457877994 46.45657762240183 160.6841117586812 0.6265442380268518
1.9752962060208532 12.532327487114925 43.240497609796336 167.82327803986888 0.6398799034468861
1.9866479413576137 12.492267259308457 40.287798990644546 175.33594268180764 0.6537536343632203
1.9973029183587034 12.450611048283674 37.574103354296625 183.25280523878777 0.6682230162166678
2.007277152948397 12.407489422486218 35.07818273530363 191.60150183198925 0.6833124245045467
2.0165126660057062 12.362788745143312 32.78327810263795 200.39048315735195 0.6990009914715906
2.0250457257938494 12.31658571048684 30.66997565128926 209.67141852161035 0.7154032446924737
2.0328435321473024 12.269030026390565 28.72635824267197 219.4753067235254 0.7325376169380932
2.039873681620287 12.219718595450619 26.93197023236887 229.82210079691865 0.7504092222334862
2.0461323020171918 12.169020967971413 25.28133401820049 240.7733179474175 0.769143732504677
2.051615084274145 12.116924436277724 23.761860282132382 252.34892010889013 0.7887021100616827
2.056314779320843 12.063307608367717 22.356582321426092 264.61504521210094 0.8092253317362785
2.060203571471631 12.008233337538234 21.063122963523302 277.6031106463574 0.8307070421510916
2.0632568657677504 11.95155004089146 19.867750852803887 291.3882277118873 0.8532731247019321
2.0654921696628423 11.893471768718559 18.76605551590211 306.00784619960626 0.8769283904191671
2.066110894179832 11.837288903428831 17.84564507607051 322.22238077797437 1.326249334110386
