M[M_sun], R[km], Lambda[1], P_c[MeV/fm^3], rho_c[fm^-3]
0.23841724892012095 16.20908015294055 2780876.1263280716 3.453507347168396 0.169602847481901
0.2484184583660269 15.866124492334515 2282137.876221839 3.635616865187357 0.17197933492661913
0.2587032877358779 15.562677451796517 1881423.8499242037 3.824906721742625 0.17437663021614377
0.2692693535558065 15.293412183424346 1557819.595528088 4.020491927262464 0.17676924411157663
0.28012767035188746 15.053575128711051 1295182.279740721 4.222686184027037 0.1791487718121383
0.29126252955336984 14.839556212100055 1080933.6885429672 4.4328630674812315 0.18155210486368362
0.30268674166157805 14.648149497767402 905257.693806243 4.651370353062895 0.18398308918424092
0.3143928860228173 14.476645577892949 760746.3057983058 4.8785754179316605 0.18644337371707925
0.32638177860234424 14.322881523349988 641336.6587783444 5.111819922617152 0.1888738070333386
0.338655088839852 14.184674358699446 542273.1381843376 5.354246357859817 0.19132549146251807
0.3512136160204617 14.06034029464955 459807.5077913429 5.606375020219484 0.1938071665676754
0.36405068461099976 13.94853253827802 390926.9383622803 5.86861872100467 0.1963244052616886
0.3771814490370097 13.847936144425537 333210.08515757753 6.13792686342702 0.19881824546889545
0.3905927710553165 13.75724581396153 284700.3554741371 6.417616972300158 0.2013412750864917
0.4042854293349611 13.675732094977395 243828.58575573977 6.708550906022799 0.20389886232537263
0.41826205450160014 13.602238227789329 206680.62498475256 7.01090493497276 0.20648384405161296
0.43252644068545143 13.536329377180651 180012.4807598242 7.321150064564505 0.2090441826443224
0.44706854475379065 13.476923862751532 155142.3257391215 7.643945091485301 0.21164897174490152
0.4618979506921244 13.423696307063635 133962.0319603626 7.9798241538028 0.214298218533262
0.47701316192932636 13.375941006497406 115889.66810607146 8.326972187567806 0.2169560722100083
0.4924074473179885 13.333312586585263 100439.84005380629 8.685115537935001 0.21960960121773404
0.5080871096637904 13.295341036768619 87201.04280293388 9.057868357138876 0.2223113211247179
0.5240395637469789 13.261355205735258 75822.01224335519 9.445836350854416 0.2250640105485001
0.5402814963831469 13.231474308336068 66042.44987046934 9.843766939961169 0.2277927499442314
0.5567937369012856 13.204965154814417 57609.29272530838 10.257511252347658 0.23056605460559843
0.5735851381373503 13.18157828563745 50322.924208359895 10.688190919971259 0.23338994477194291
0.5906576506231053 13.161277201434913 44022.98212265823 11.133019018484124 0.23622013230900976
0.6079916287478575 13.143608553390127 38569.37927066786 11.59243575997323 0.23906574522050988
0.625602218691976 13.128261597694111 33829.48218323215 12.070710439662536 0.24197070828090597
0.6434792806916733 13.115287703718812 29715.382425506443 12.567754193549321 0.24492615403414417
0.6616335924630474 13.104471983154564 26133.203565325923 13.078085004519759 0.2478582038325402
0.6800296304622186 13.095188855523839 23010.28893338336 13.609388878108621 0.2508488895989742
0.6986850330050576 13.087731875662158 20134.593921907297 14.162573085515598 0.2539000658021881
0.717612508347504 13.081872422090472 17904.142848868953 14.731896657187116 0.25695016972736023
0.7367868985697449 13.07738056561923 15820.076195368758 15.322432450144932 0.26004598362419795
0.7562021219605073 13.074180667926994 13994.226475427711 15.93724353710256 0.263207628744054
0.7758564139890853 13.07197514681305 12391.527004917392 16.573723430408442 0.26639736898504845
0.7957516656284956 13.070948761072795 10985.223109317842 17.230393064214365 0.26959776859783235
0.8158806210402928 13.070706040914954 9747.194663940327 17.91413483608157 0.27287021001849326
0.8362340589817867 13.071354667801387 8658.283530345409 18.62598135082851 0.276216223875582
0.8568002968047205 13.072577603662825 7698.326142498624 19.35676671181064 0.27954929018345337
0.8775935526418331 13.07455098654542 6851.445568555853 20.117578937412443 0.2829527590873623
0.898576730384767 13.076833718513864 6102.982717047883 20.909705251368354 0.28642895676240887
0.919770644264961 13.07975739002396 5441.917746544348 21.728252767288694 0.28993139534815077
0.9411433831245815 13.082893812144597 4856.8268381247835 22.575511120921814 0.29347725800651064
0.9627157408383492 13.086340964097698 4338.202838275531 23.45761864759988 0.29710658860959593
0.9844509208705983 13.090036153118094 3878.6866748370176 24.375610191811663 0.3008178614183392
1.0063582447941228 13.093879065129752 3470.7716550692426 25.319904305092006 0.3045195642713658
1.028406592342525 13.097681043187162 3108.485328724152 26.303083854778333 0.3083079966043408
1.0506207217837717 13.10161672664774 2786.3057277462044 27.32665251662918 0.3121849601094985
1.0729463666534804 13.105358215576318 2499.6998238179417 28.38761908658592 0.3161222384723837
1.0954065497611496 13.10900911276314 2244.332510714814 29.48466407617536 0.32010372876043397
1.1179901926618758 13.11259071354784 2016.687603190975 30.6267762118949 0.32417412955981156
1.1406804226500435 13.115954941373717 1813.7173056254476 31.815810710390654 0.32833476922681804
1.1634400397934133 13.11890193151195 1632.3968074161944 33.046969408097766 0.33255173333034205
1.186289034006732 13.121607616577794 1470.45767786744 34.3231335186842 0.33683747845303574
1.2091948735396676 13.123878222649145 1325.544011416773 35.65185677847528 0.3412290464433578
1.2321583844449897 13.125840532211374 1195.9326044889463 37.0351618342137 0.345725022489072
1.2551705991398856 13.127299340007209 1079.7953451067492 38.47030669328367 0.3502882275611436
1.2781855419038093 13.128157919805114 975.6377336772392 39.95757752900667 0.3549248201462248
1.3012096933263437 13.128500305054724 882.3288752178471 41.50638763024814 0.3596787824503791
1.324234773509645 13.1282452630775 795.1985277651341 43.119202473478985 0.36455224879537185
1.3472495353131637 13.127390604349307 723.1581351661353 44.798615940612486 0.3695467620203246
1.3702211185354527 13.125853455236824 655.4592294172875 46.53803009559896 0.3746017973197005
1.3931524911566915 13.123603303524824 594.5276938915222 48.348136589972775 0.37977944413052467
1.415989079274608 13.120602560453579 539.7208565176221 50.23381942426746 0.3850926965602046
1.4387399470989466 13.116734333057273 490.3206721233853 52.19828061090466 0.3905443248069426
1.4614036005677435 13.112133194910173 445.78442494185686 54.24491265353033 0.39613563879049435
1.483941018314205 13.106632312831387 405.5868871339052 56.37356010910377 0.4018431904713389
1.50633070723872 13.100270837218657 369.32675858517786 58.58632704452551 0.40767838314993887
1.5285742421508954 13.092900670007882 336.5176877504328 60.89315899042757 0.4136746441323164
1.5506365669224305 13.084647351314159 306.893460152342 63.298322295592826 0.4198349783886077
1.5725012523349997 13.075357414520463 280.09212181915825 65.80634703850679 0.42616006361369296
1.59415901585136 13.06513210299934 255.83923835539807 68.42211593340872 0.43265613696814476
1.6155754005120995 13.053718395850666 233.84288729404008 71.15070615861475 0.4393377812677014
1.6367479105769913 13.041309890250698 213.92314846477726 73.99757672463392 0.4462119934462984
1.6576523295746528 13.027814719520574 195.84151933960615 76.96740748779807 0.4532770401421048
1.6782606089681793 13.013134810263878 179.44031815275216 80.06418515705096 0.46052636444281375
1.6985483063910023 12.997275682058273 164.53973848002175 83.2986503782737 0.46799803285692204
1.7185240346483042 12.980332115274969 151.0023233914052 86.67790156139613 0.47570220499596705
1.7381266505831816 12.96203460536833 138.67338300730026 90.20949093817102 0.48364346510758977
1.7573659454124089 12.9425189696757 127.47851478684723 93.9015047459035 0.491829650044954
1.7762330429104733 12.921984201898045 117.28754328765065 97.76264009364768 0.5002803969509426
1.794649227242097 12.899762940171856 107.97901383560877 101.80217908017013 0.5090113913510599
1.8126578165493505 12.876539434159604 99.50852132929602 106.03004543234063 0.5180295914258707
1.8302028830763426 12.851785142075476 91.76880036946308 110.45689775066553 0.5273481102550589
1.8472882905287038 12.825934685042258 84.72007935333961 115.09419980017641 0.5369910073555438
1.8638669227136502 12.79842261135128 78.26185099891431 119.95425444658002 0.5469777597557077
1.879940130399442 12.76968965693252 72.37247109027827 125.04552412739307 0.557299044968269
1.8954861243283523 12.739592947906116 66.98668134265891 130.3840286825379 0.5679863320904083
1.910483892578137 12.708112406277658 62.059117963356 135.98658736763485 0.5790743236249711
1.9248851863347127 12.674995330084736 57.538556217312546 141.86959509067188 0.5905810768265656
1.9387197003030214 12.640575664293925 53.397811775961 148.0507258080938 0.6025258151105929
1.951933406405037 12.60460305714799 49.604551145638126 154.54901668804786 0.614944041387233
1.9645266887029926 12.567260450977363 46.12697780916459 161.3820725763864 0.6278571868134857
1.976483383147914 12.528456299006763 42.93278064507921 168.5621522209826 0.6412482703933672
1.987747323042212 12.488081993378843 40.002324460180354 176.12436851802119 0.655201233632698
1.9983613615596494 12.44619871166636 37.30606299216601 184.09459703323807 0.6697555921165023
2.0082597405607676 12.402852430255313 34.830152875706865 192.49200893150993 0.6849054488117687
2.017445252332361 12.358003017736232 32.55215681498345 201.34232047298275 0.7006898523241576
2.0259170347702375 12.311654395609864 30.45550911511595 210.6897013036406 0.7171959234806674
2.033630379761845 12.263720418018268 28.524886437446597 220.55559982280795 0.734408298784939
2.040575145761362 12.214317720221832 26.749232785055792 230.97942857915265 0.7523984861999055
2.0467685427009683 12.163435811037893 25.111191048691435 242.0089275089254 0.7712432354228308
2.052179836935254 12.111105730640446 23.601394619785257 253.6691175863338 0.7909202275946257
2.0567747824816727 12.057175601511897 22.20833622422242 266.0285022302941 0.81157760353936
2.0605684690038997 12.00178105246334 20.923168945156252 279.11458375719025 0.8331918613667473
2.063547326122488 11.94500872355167 19.738889993593578 293.0026935583079 0.8558929377161513
2.0656872927175396 11.8866619906095 18.644513340184645 307.74015756142944 0.8797219570211049
2.0670069650964 11.82700480239583 17.635824634710715 323.39524804333416 0.9047475110522816
2.0674698156445723 11.765860887675453 16.702255992179815 340.0473411093157 0.9310962977129617
