M[M_sun], R[km], Lambda[1], P_c[MeV/fm^3], rho_c[fm^-3]
0.23841724892012095 16.20908015294055 2780876.1263280716 3.453507347168396 0.169602847481901
0.2484267267117955 15.865914773465054 2281654.649391703 3.635773641621632 0.1719813291821564
0.2587194421634368 15.562283000571526 1880729.1365203748 3.8252292269331374 0.17438057545524363
0.2692958891028511 15.292873796715302 1557313.0040249154 4.021011537514787 0.17677560055712993
0.28016552446360193 15.052808750680258 1294298.5785860617 4.223397769599656 0.17915709270141017
0.2913101714575095 14.83872304912154 1080119.3765800984 4.43377645600055 0.18156238232940927
0.30274642295098164 14.647221260369951 904415.9440897561 4.652495889755722 0.18399527933597337
0.31446340493396663 14.475691900186815 759924.5903415827 4.879923869516635 0.18645742473046498
0.3264645091451373 14.3218692098989 640605.2637689766 5.113469989481523 0.18889100091101055
0.3387532804551537 14.183522198639139 541523.8298984136 5.35615054685554 0.19134449167361434
0.3513203639981794 14.059304780615697 459141.5920865975 5.608545280908012 0.19382802503926844
0.36417388701445746 13.947536141990396 390351.08570096944 5.8710678749333685 0.19634708485275512
0.37731558914774654 13.84694764745551 332679.0369371388 6.140782365608361 0.19884468791540874
0.39074253082329674 13.756325545829824 280417.30247501173 6.420788237187433 0.20136954032566104
0.4044479667309774 13.674772780675292 243382.86707751578 6.712052162439885 0.20392879638607783
0.418441747639797 13.601348536938765 208875.69102183284 7.014911063591582 0.20651809452715184
0.43272243008301453 13.535355718736612 179627.64091207282 7.325527749867691 0.2090802692888091
0.44728302760322936 13.476045928398 154805.13843195827 7.648711496329153 0.21168686709564394
0.4621303353535323 13.422908661351773 133661.00566956357 7.9849971114421505 0.21433782401318446
0.47726357725939966 13.375350880787671 115623.1014940657 8.33279464761735 0.21700065044564612
0.4926776851634795 13.332709400554615 100201.39671026714 8.691393792397434 0.21965579155084758
0.5083694465518649 13.29466754383706 86979.35447847517 9.064622800839945 0.22235928882363112
0.5243430159045408 13.260755185274697 75626.34709439297 9.453089258343725 0.2251137460926916
0.540602048598188 13.230893895103565 65860.85508115674 9.851841729752584 0.227848121402519
0.5571329928022405 13.20445649931886 57448.955214101865 10.266144333931905 0.23062310379988116
0.5739485742031536 13.181131446777687 50178.79302253484 10.697407157771085 0.23344858243769945
0.5910386038794845 13.160783588910732 43892.769125588224 11.143221108286555 0.23628504238889772
0.6083954015828722 13.14326835582749 38451.941091447225 11.603289883791904 0.23913249279878696
0.6260273839694532 13.1279195143037 33724.81915400898 12.082247601574569 0.24203930879325666
0.6439284451105198 13.115068513032396 29622.254779151153 12.580467471640128 0.24500174778911926
0.6620944690749014 13.104062153987782 26046.689853466516 13.091561795956695 0.2479355026752285
0.6805243978323423 13.095061743819372 22934.39365082281 13.62366396785168 0.25092789217172645
0.6992023102390506 13.087567839458172 20217.491062686153 14.177684362338754 0.253981023217349
0.7181588839649458 13.081803911156959 17841.701680170525 14.748461057602997 0.25703891213192687
0.7373475606920931 13.077252967613674 15762.284324379683 15.339932801550585 0.26013678432406184
0.7567849640005163 13.07412654759189 13943.150320438745 15.955724816804052 0.26330024829447335
0.776464399258686 13.071970447271118 12345.942270798914 16.59392419762471 0.2664986058045715
0.7963778082775003 13.070883974428838 10870.486828634304 17.251689471711614 0.26970099429498834
0.8165449546337272 13.070756093241483 9709.5789940775 17.936581117896527 0.2729757225328014
0.836913877261732 13.07134815629494 8624.182510086019 18.649636259984398 0.2763241124362084
0.8575088076156598 13.072654713229417 7667.516770290421 19.382531418768405 0.27966680139984895
0.8783154302586692 13.074530002849187 6823.532003095774 20.14469629945762 0.28307241730002075
0.8993303929433772 13.076958620720104 6078.095040923151 20.938242434487435 0.2865510629680239
0.9205487251648468 13.079817093449918 5419.09266983587 21.759277102264186 0.29006414369299544
0.9419513157593542 13.083037368872956 4836.216307070329 22.608127456928273 0.29361287791615037
0.9635409411541626 13.08655243432532 4319.891449976276 23.491911599963792 0.2972452287772992
0.9852999617567546 13.090131307883862 3861.82939977453 24.411945729817983 0.3009613603826391
1.0072317500071146 13.093917436144928 3455.294421444329 25.359008301180232 0.30467280913818573
1.0293172506265413 13.097861251725519 3094.50397313456 26.344166021381934 0.3084645378377555
1.0515481544495757 13.101720442037353 2773.6183196078814 27.36982012263357 0.3123451563738403
1.0739064380726129 13.105528386393232 2488.2097477925877 28.434378677585116 0.31629576469942206
1.0964021169537674 13.109251533344066 2233.8752779203073 29.533771291315848 0.32028131262999265
1.1190047255510376 13.112874519123517 2007.3867159976978 30.6783577132442 0.32435533399498395
1.1417093334208703 13.116073724749421 1805.0453850679717 31.870000820017935 0.32852038116091703
1.1644947650750883 13.119034197736266 1624.4954139048 33.10557288823204 0.33275246193870756
1.187360053364087 13.121699973275465 1463.2112973718151 34.384679185463085 0.33704325676154545
1.2102910659290533 13.124045334149589 1319.0759344949452 35.71651313706796 0.34144018927315667
1.2332834334905283 13.125908179861657 1189.9346989656758 37.10310311936185 0.3459410494741054
1.2563036034447352 13.127312459636622 1074.361768793394 38.54368974565756 0.35052155725931333
1.2793507167980498 13.128268382551049 970.7708079854069 40.03466939069535 0.3551644690730567
1.3023988896243726 13.1285646842838 877.8067254338779 41.58740605506415 0.359925197221871
1.3254485578384143 13.128248115587343 794.3536351588027 43.20437947728196 0.36480581541205254
1.3484698173216023 13.127337959329498 719.394018319435 44.888193158578986 0.369807088750185
1.3714544685499106 13.125740870269288 652.0087492206133 46.634654782755405 0.3748826052014616
1.394397368588189 13.123498112173232 591.4195953988442 48.44974670085319 0.3800688519424119
1.417258986851949 13.120424427634005 536.8232667276601 50.340717390126265 0.3853912526227075
1.440026359101663 13.116503865915057 487.6764291330838 52.31078823062812 0.39085247085512165
1.4626903641547684 13.111809829472973 443.36051674079164 54.3633679009205 0.396453253360524
1.4852406978067152 13.10628460175317 403.3773239345878 56.501234584103756 0.4021855245964563
1.5076444429117688 13.099807567229712 367.27036339217864 58.72076566344548 0.4080324181876536
1.5298894996029182 13.092453113635063 334.68849037190245 61.03478503021506 0.4140411276973682
1.5519616649307786 13.084054382966059 305.1868812775942 63.44758661722759 0.42021444920695117
1.5738454557693473 13.074765021590785 278.52231188420905 65.96372649446512 0.4265527542862489
1.5954992517533728 13.064390909592777 254.39226415764588 68.58938966348666 0.4330679872689682
1.6149986020260356 13.053080313806092 234.24373140783848 71.72845452784031 0.9327629046513861
1.6149851040952967 13.034980247640014 231.12704014619382 75.75783889267845 2.3144370295097008
1.5999874617244918 13.008382097602777 239.8670324548556 83.0803310084327 3.8788448586673723
1.5781295876206227 12.97455857160962 254.3059138747366 93.94174151417894 5.4069803148463444
1.5509467882915666 12.931715392480264 273.6691024533797 107.45604202496568 6.195290761147066
1.5165158791481617 12.870216902383985 299.306692366606 122.37813119496742 6.274246441388493
1.478243509037944 12.792111667869543 329.12851470100907 137.87899422055193 6.334979085644872
1.4380337359521662 12.69864589226731 361.7194196079446 153.9649533385753 6.397821036718047
1.3968892072607064 12.59135447038306 396.5165953719476 170.6658241226783 6.462866136217851
1.3555205832206327 12.471038688657055 432.50815264592967 188.01338752597445 6.53023145576983
1.3143929868373827 12.338231101381691 468.8434004998694 206.0410331676822 6.6000238800435564
1.2739820378229527 12.193440507994627 504.28745204638864 224.78612742498362 6.672361272235002
1.2347966089878954 12.037553279673917 537.1676142467531 244.28733047198 6.74738418395133
1.1969871568511714 11.870666506218834 566.2490263192709 264.58675696965446 6.825220211690088
1.1609957475857278 11.694119863629112 589.807664902979 285.7303701798111 6.906035059050251
1.126859888511499 11.507937517968035 606.6021417860603 307.76575340526324 6.98996366923375
1.0949950990394912 11.313807524619117 615.0676178379333 330.7416111668843 7.077195181018395
1.0656004191533153 11.113239058998508 614.5008843883588 354.5855132957538 7.167351521555855
1.0386344210474991 10.906771076536588 604.6820229718147 379.47877208460386 7.261160418195753
1.0143140472826524 10.696641821528692 585.8787836118903 405.4867710688237 7.358808258333909
0.9924180402341743 10.483092861469995 559.1971679355019 432.67797717338175 7.460530153009973
0.9731820293534111 10.268978354919103 525.6939422894897 461.12761596572557 7.566569862257127
0.9564516382965075 10.055791371493987 487.57890900393227 490.727530758956 7.676417659814971
0.942049685012972 9.844216436789404 446.23058510577306 521.7344067886903 7.7910454032829595
0.9298959694365282 9.636015699074973 403.67749315411004 554.2464462935162 7.910771758900192
0.9197863697935732 9.432001675183143 361.38159004420055 588.2345894975881 8.035391745829106
0.9116254912977431 9.233715976908274 320.69609384538523 623.8270220357781 8.165334672229978
0.9052169276599937 9.041960054895728 282.51861544368234 661.2348038185758 8.301348011335648
0.9003257629444422 8.856687042371398 247.38594734248207 700.3561941351172 8.442911753539219
0.8968014288669441 8.67855688464292 215.65323036499214 741.5091214876486 8.591183182737991
0.8944984519589521 8.508282506139972 187.45626790434994 784.6957457586237 8.746045789133765
0.893187298946928 8.34513772601998 162.60490501245798 830.1287352091479 8.908209739599814
0.8927664746491396 8.189662434671199 140.95259144805377 877.8867217467375 9.07781372278049
0.8930810901156656 8.041703884910852 122.17578602582508 928.228867065687 9.255762929021564
0.8939728359477679 7.900553290060923 106.01705224741154 981.1752305273259 9.441901124364453
0.8953307262045513 7.766291989591625 92.12597143614066 1037.0746481791946 9.637440442203713
0.8970510758792727 7.638331455851338 80.22902241340864 1096.0485533182832 9.842633705993453
0.8990176707312768 7.516635693219583 70.0978652918065 1158.2918872225723 10.057990682865546
0.9011591353191059 7.401046011831048 61.26538400526737 1224.1203899444643 10.284512110849594
0.903368112851909 7.2903841563794325 53.978569960004265 1293.7829725387476 10.522867039566314
0.9055842783502355 7.184997475816861 47.52255802200646 1367.5554115460257 10.77380361111422
0.9077515056693282 7.084311075917802 42.17485504411424 1445.6986323906717 11.037955153538839
0.9097987922465887 6.98782700074334 37.4017614339915 1528.6177215830692 11.316532832793552
0.9116680440539727 6.895676864202475 33.448173440974834 1616.6856596032203 11.610541616408627
0.9133270209535151 6.807138019198991 29.986672322799134 1710.3152726674114 11.921090585328507
0.9147236361153225 6.722215741517223 26.981446604754765 1809.9626296692727 12.249395307134357
0.9158257352803648 6.640431479640493 24.340197397185182 1916.1321867672575 12.59678611139859
0.9166167697452832 6.561809542892095 22.086423589582353 2029.3264974353572 12.964479177869661
0.9170316562280862 6.486113206791668 20.170941397505597 2150.2017343601474 13.354285497044271
0.9170945866373924 6.41259424764307 18.444394845010425 2279.4435271209827 13.767983064822236
