M[M_sun], R[km], Lambda[1], P_c[MeV/fm^3], rho_c[fm^-3]
0.23841724892012095 16.20908015294055 2780876.1263280716 3.453507347168396 0.169602847481901
0.24841603999172246 15.866142938857744 2282118.9521107418 3.635557645955878 0.17197858163559784
0.2586956149335224 15.562924176966277 1881713.2770499652 3.82478490672023 0.17437514004047083
0.26925852066242123 15.293610504065036 1558201.2791694582 4.020295671284784 0.17676684329205652
0.28011222346794346 15.053960635974832 1295505.7570507668 4.2224174299581 0.17914562915026458
0.2912415257922171 14.839894511841422 1081221.6127881573 4.432518109088791 0.1815482233850137
0.3026632446454702 14.648554246786578 905625.2980753259 4.6509452888351115 0.18397848551608356
0.3143667091776674 14.47700841797326 761006.6377198974 4.8780661873911155 0.1864380674790049
0.3263512906730923 14.323216635418838 641590.0485473189 5.111196817622903 0.18886731421096922
0.33862018446508113 14.184968419117391 542516.6910267976 5.353527315631405 0.19131831677861974
0.35117136614998384 14.060724771424837 460034.7168012721 5.6055555346327015 0.19379929045540784
0.36400722818692555 13.948972585361878 391167.27964229346 5.867693956954519 0.1963158417858512
0.37712976010398314 13.848231429073765 333411.46129607543 6.1368487175864015 0.19880826165101909
0.3905333049158917 13.757575439410367 284895.43122482224 6.416419643677725 0.20133060338889455
0.40421947861648616 13.676005819225924 244001.99612153976 6.707229029337181 0.20388756091461077
0.4181922349177582 13.602550099897334 209430.21440174754 7.009392517829853 0.20647091361145828
0.43244926603493344 13.536492604461639 180135.883559609 7.319497426364007 0.20903055942495508
0.44698945396334017 13.477236873324088 155265.69013269115 7.642145760737785 0.21163466614728393
0.4618135275299311 13.423973041972973 134080.1468945957 7.9778714062998 0.2142832678015113
0.4769193656174018 13.37624241448018 115996.09974270753 8.324774363490457 0.21693924510964574
0.4923082135529456 13.333594050524958 100535.80780518547 8.682745732263303 0.2195921660987778
0.5079753915620061 13.295552894447807 87284.52940070115 9.055318880341744 0.2222932156313859
0.5239268008354837 13.261668663782887 75902.00675064328 9.443098804532198 0.22504523830353684
0.540159646150747 13.231599937021237 66104.46871475432 9.840719330142072 0.22777185149308482
0.5566641787089944 13.205074995057592 57665.66645912218 10.254253019743352 0.23054452352853777
0.5734508635302618 13.181867714592212 50381.180651518705 10.684712690578293 0.23336781478170188
0.5905126722062027 13.161414980222425 44073.080480366785 11.129168918564321 0.2361956363186577
0.6078378613161318 13.143628666248237 38611.460383059595 11.588339701443248 0.23904055645429304
0.6254415709142342 13.128414737246441 33869.951639678126 12.066356734389416 0.24194482094269948
0.6433134395379093 13.1153610388235 29749.671702590775 12.562956909942821 0.24489762915811256
0.6614464665922754 13.104403638139175 26166.62490048267 13.0729997442657 0.24782903630151126
0.6798471645774147 13.095259764437856 22862.133752252026 13.60400252901304 0.2508190799484605
0.6984941347295647 13.087741700585502 20311.973852008203 14.156871365450344 0.2538695193087412
0.7174121907198329 13.081898585876765 17927.301262032935 14.725646977260942 0.2569166875843007
0.7365751201208296 13.077446507386568 15841.341097822626 15.315829804323236 0.2600117257485892
0.7559813667206018 13.074188112327318 14013.394176458627 15.930270972827117 0.26317268550533396
0.7756261858840856 13.072023187949354 12409.25760751214 16.566102550166228 0.26635917668920994
0.7955147818511035 13.07095701409429 11000.838673006361 17.22235904286425 0.2695588269380741
0.8156354277957395 13.07079234376585 9762.062058548501 17.90566723398853 0.27283040663393443
0.8359782616145829 13.071345426314819 8671.116067821371 18.61678327930209 0.2761731269349816
0.8565395261522563 13.072606044929161 7709.742626709212 19.34704804085341 0.27950496393329244
0.8773164115474466 13.074499793948478 6861.687989365811 20.10735028213456 0.2829076240699364
0.898289658583188 13.076851620495326 6112.903815765727 20.89894130177746 0.2863828994821058
0.9194759573094995 13.079727982642494 5450.694552654789 21.716551344325023 0.28988132676386097
0.9408440609875423 13.0828841509444 4864.525368982949 22.56320954385232 0.29342610760230026
0.9623938192050858 13.086272431106792 4345.419366015855 23.444685034814057 0.29705430036603475
0.9841262230049133 13.089963260491706 3885.0301535239482 24.36157211746813 0.30076110803762807
1.0060203447137617 13.093788103080367 3476.7826026944863 25.30515741510061 0.3044617726025133
1.0280654451208275 13.097626711965384 3113.7557066620725 26.287591340713348 0.30824896327039253
1.0502641026328956 13.101509045617671 2791.0646345033438 27.31037396788972 0.3121245499330179
1.0725928309133332 13.105309955546536 2503.928410372947 28.369987039168876 0.31605680542222514
1.095044911628923 13.108993560030967 2248.273389419829 29.466147258415475 0.32003676735485825
1.1176026270206745 13.112524435199829 2020.353760153976 30.60732691404987 0.32410580469647265
1.1402769436914535 13.115828356687343 1817.005216687724 31.795378339187923 0.3282647842800583
1.163046357177013 13.118893018431352 1635.3815504347644 33.02487432217623 0.33247605325402946
1.185876824845585 13.12155515393237 1473.1777381872357 34.29992975995419 0.33675989654560945
1.208779761587912 13.123871675312907 1328.0535177866625 35.627480888339775 0.34114944415003196
1.2317457347739604 13.125809942229063 1198.1072474141015 37.0095481989021 0.34564358104444753
1.2547396297161568 13.127266266743549 1081.8292406038115 38.4426432705176 0.3502002685859369
1.2777536101379394 13.12814393387038 977.5108620221544 39.928516790843226 0.3548344814961875
1.3007646797649923 13.128503727282094 884.0510131134367 41.47584758797521 0.3595858959550525
1.3237832999847687 13.128240394232817 800.0428016016335 43.08709577258767 0.3644566691535166
1.3468040535948134 13.127476695082123 724.5674891537404 44.764851608903015 0.36944863709236425
1.369762607382714 13.125962360758532 656.7731969345488 46.50161174516167 0.37449595935898383
1.3926659549042515 13.123632687118628 595.7488014898896 48.30984036210239 0.379670368100438
1.4155025514903203 13.120620654409374 540.8099411137489 50.19353147863405 0.3849801760803432
1.4382604573250632 13.116853473619345 491.3147243553044 52.15587982318736 0.3904281936932733
1.4609022131100369 13.112198277466195 446.68982607184364 54.20027181754678 0.3960159431228134
1.4834544992176988 13.106804494107683 406.42196053271624 56.325448224018146 0.4017141878646038
1.505835280861433 13.100397454071237 370.0816554261947 58.53566789589474 0.40754497569797177
1.5280758846246034 13.093115357974165 337.2486062849723 60.83979329737335 0.4135365505340536
1.5501571265546679 13.085087789107492 307.57395963587453 63.24208040697727 0.4196919960920724
1.5720102758777752 13.07569234321067 280.6970776211053 65.74704953310348 0.42601210543747536
1.5936507049555468 13.065334911773064 256.3601922488374 68.35957004879346 0.4325025606738106
1.6150684300040947 13.054031814159096 234.3481679369379 71.08470339278787 0.43917822928553735
1.6362418801281036 13.041673438560153 214.38867628907894 73.92789463473311 0.4460462239940061
1.6571528968849483 13.028264598124347 196.27559407565255 76.89236076535273 0.4530985085553828
1.6777578865570066 13.013568241299664 179.83592070928614 79.98492827356334 0.46034088973162557
1.6980341724525672 12.997696365732656 164.90518599817386 83.21490789116267 0.46780484773122405
1.718011476144239 12.98074363960391 151.33283588570603 86.58937577401586 0.4755008109298752
1.737618146890415 12.962491558259957 138.994337380133 90.11586342712732 0.4834335313505573
1.7568805308291962 12.943133881940714 127.75971751468292 93.80243505836609 0.4916107020977532
1.775731061653663 12.922461571605064 117.53865795221745 97.65776085302784 0.5000515562872152
1.7941594210103309 12.900405478086187 108.21699491187343 101.69109330913574 0.5087720090597982
1.8121694862122186 12.877120223324145 99.7206987061926 105.91232737407175 0.5177792353289252
1.8297293375165313 12.852520759626675 91.97803743714637 110.3320902524889 0.5270860435816827
1.8468231429577724 12.826551767667453 84.8959609029826 114.96180853477975 0.5367161888867625
1.8634049014528011 12.799200847778051 78.43992690483188 119.81374480378076 0.546689334500142
1.8794851734047051 12.770572586938135 72.53939219677383 124.89842768530052 0.5570040663344875
1.8950558070764265 12.740565484409485 67.13606469423817 130.22769791856487 0.5676760655208803
1.9100460915892672 12.708882764550046 62.1832776525635 135.82035459840654 0.5787477243565132
1.924469865690238 12.675961373242078 57.6615691287517 141.69274019821933 0.5902374202403395
1.9383158179406588 12.641603562244166 53.516493417241215 147.86247023262223 0.602163690609788
1.9515429777754196 12.605679873572594 49.71233486279039 154.34851517846064 0.6145619739770429
1.9641552278815086 12.568422606889044 46.226505763034744 161.17088151063587 0.6274624867665847
1.976116488646954 12.529637101827442 43.026961914160196 168.3369174939957 0.6408311442256291
1.9874136355094543 12.48933300324862 40.088170627128676 175.88401898419727 0.6547599368187151
1.9980345625580163 12.44752727642132 37.38789347733949 183.8379683783169 0.6692883710122671
2.0079531291389596 12.404214061780273 34.904184042331885 192.22059324935051 0.6844200205037962
2.0171747137746676 12.359529820679223 32.62214266260399 201.05212303082342 0.7001749501538711
2.0256636263776144 12.313243865023653 30.52167017688084 210.37923195635616 0.7166493446490472
2.0333873545842702 12.265336282070182 28.587085643256966 220.22621374519926 0.7338379197309622
2.0403679058513506 12.216046951190144 26.8067611487331 230.62653762284785 0.7517919222910211
2.04657784849083 12.165128654649331 25.161272465026407 241.63369269245644 0.7706083138512987
2.05201071622554 12.112894627425975 23.649527568739813 253.26653093663376 0.790243825373378
2.056619174931417 12.058974907213665 22.25217778560785 265.59949407524954 0.8108668498954696
2.0604548787392503 12.00372976588973 20.96557510375334 278.65362741830364 0.8324340621308663
2.0634691923535757 11.94702335961921 19.778105548896445 292.5104404657687 0.8550943632450102
2.0656325077177113 11.888783823522154 18.681643565964492 307.21044523165193 0.8788684340595185
2.0669813005245254 11.829080015611488 17.667578025491686 322.8283799208054 0.903846466335098
2.0674639311006944 11.768032541233028 16.734079549376048 339.4399426620836 0.9301431865969877
