M[M_sun], R[km], Lambda[1], P_c[MeV/fm^3], rho_c[fm^-3]
0.23841724892012095 16.20908015294055 2780876.1263280716 3.453507347168396 0.169602847481901
0.2484130024981292 15.866307957193385 2282402.7277282733 3.635518407919769 0.1719780825129386
0.2586921819769111 15.562950069677319 1881561.764385671 3.8247041948871128 0.17437415268433143
0.2692526874540516 15.29376396776898 1558278.8831225333 4.020165639173657 0.17676525259589362
0.28010278112563236 15.054147353230542 1295794.1695334208 4.222239366461626 0.17914354697393253
0.29123059235694093 14.840053711002469 1081397.247836298 4.432289560296592 0.18154565174947332
0.3026487085189587 14.648702855584707 905821.3954474593 4.650663671517035 0.18397543545306944
0.31434847930403376 14.477270879708264 761238.1406593058 4.877728813061844 0.18643455200149764
0.32633017564011646 14.323489174091598 641811.8572340371 5.110784007836673 0.18886301268772826
0.3385963660273655 14.185234504333819 542678.2394048199 5.353050954678122 0.1913135635956685
0.35114385183703145 14.061002188629857 460192.37704612577 5.6050126390924815 0.19379407266232723
0.3639771416635541 13.949202906547635 391309.88750423444 5.867081325547291 0.19631016871253898
0.377095887865814 13.848460318353201 333534.07721298584 6.136134489724179 0.19880164777687515
0.39049540622778656 13.757834748834284 285009.90626161126 6.415626473853874 0.2013235339274746
0.4041798516324685 13.676266822260072 244113.15728158556 6.706353365402802 0.2038800744085551
0.4181472068870807 13.602812640911468 209544.8162999118 7.008390653648436 0.20646234815390466
0.4324024916363005 13.536875773073621 180245.4354450746 7.318402691587341 0.20902153517995875
0.4469395540192378 13.477555276632891 155355.64171370977 7.640953870877712 0.2116251900146906
0.4617560985522037 13.424160517375862 134148.81445886884 7.976577909573179 0.21427336446144793
0.47685688976342433 13.376444484672506 116068.6371909202 8.323318560157091 0.21692809910890293
0.49224165693582533 13.333752622461533 100591.0704494918 8.681176031820922 0.21958061750883837
0.5079032135784773 13.295693801558464 87334.96113490399 9.053630192075985 0.22228122315741244
0.5238516532306036 13.26177655854999 75948.21159869083 9.441285568389748 0.22503280435392073
0.5400775976753411 13.231748466888975 66147.95801160546 9.838700765812769 0.2277580095413501
0.5565794179439859 13.205205203232543 57705.69798496099 10.252094977737489 0.2305302627392169
0.5733525552785549 13.181892189388467 50415.012692754586 10.682408965222317 0.23335315749091223
0.5904146100469032 13.16151444757293 44105.6069134608 11.126618951335375 0.23617941233124456
0.607742322195882 13.143779765139922 38639.09834049988 11.585626865547328 0.23902387383399676
0.6253341850372571 13.128548063191875 33897.2648639115 12.063473292343998 0.24192767585943228
0.6432036776976822 13.115534204889963 29775.997421129578 12.55977976166476 0.24487873768364501
0.6613257725161742 13.104446454818056 26187.240676607256 13.06963191408078 0.24780971943540978
0.6797225328214613 13.09531877666944 23059.016861004566 13.600435337104178 0.2507993380523762
0.6983652350155851 13.087838662197296 20330.723707571666 14.153095357559286 0.25384928965891973
0.7172770403072486 13.081983363215187 17943.949559762616 14.72150817719472 0.25689451430542093
0.7364345508516537 13.07747318213435 15855.778233041015 15.31145730508584 0.2599890390046658
0.7558359583344051 13.074201426441704 14025.940729969518 15.925653552908267 0.2631495451512087
0.775474793127358 13.072077079586526 12421.199796885043 16.56105592084259 0.2663338853378188
0.7953522370857936 13.070955767879566 11011.384284172316 17.217038886404154 0.2695330396375802
0.8154711651757973 13.07071681538158 9770.972143097348 17.9000600212357 0.27280404898946176
0.8357799047862895 13.071483039756083 8684.672481265492 18.61066946175956 0.27614438790968326
0.856354754872352 13.072547702503103 7717.7064432389925 19.340612607167316 0.2794756123229005
0.8771340695405736 13.074451763754169 6868.765313988243 20.100577226087765 0.2828777372476325
0.8981023416908042 13.076802635421684 6118.84575037253 20.891813871514426 0.2863524023071894
0.9192804361883785 13.079703263242148 5456.422701493503 21.7088033569554 0.2898481743207866
0.9406415376818614 13.082866267407388 4869.7192014214725 22.555064260436364 0.29339223921804514
0.9621844373647268 13.086264890213542 4350.1021734313235 23.436121355094865 0.2970196789668672
0.9839162028910768 13.089982067239 3889.396573437235 24.352277388769906 0.3007235311404335
1.005801523395023 13.093810073740043 3480.5559769519086 25.295393483000286 0.30442350867493473
1.0278385477354224 13.097608746891195 3117.3869236914497 26.27733384562766 0.30820987767522534
1.0500385936118444 13.101563175773922 2794.39276016182 27.29959616676075 0.31208455319383105
1.07235047546636 13.105259483237123 2506.877398127794 28.35831341975291 0.3160134842748445
1.0947991999211775 13.108961757667382 2250.8274184413317 29.453888001966952 0.31999243484298984
1.1173532905828172 13.112505088898669 2022.870929938581 30.594450449082093 0.3240605700193022
1.1400302895437155 13.115785409717754 1819.0756149025822 31.781851186594405 0.328218451084333
1.1627831451592423 13.118848692143649 1637.3993665542969 33.01024678314391 0.3324259510152709
1.1856071320436663 13.121512212712943 1474.9902906779957 34.28456843388726 0.33670853585914756
1.2085070572942302 13.123856769760117 1329.7076605979046 35.611343785757335 0.341096746571972
1.2314772191714498 13.125935468447265 1199.6880699241442 36.99259190505443 0.3455896665942091
1.254452334480158 13.127211885982302 1083.153650329466 38.42433053670592 0.3501420411817241
1.2774602583706545 13.128179308384633 978.796590849262 39.90927929980721 0.35477467954069264
1.3004671794840514 13.128484147900739 885.155660906989 41.455631094229126 0.3595244081799184
1.3235075048976894 13.12833933821897 801.0183913752508 43.06584248177075 0.3643933994351048
1.3464887839188953 13.12743624300319 725.5149526700151 44.74250133437094 0.36938368336849897
1.3694573706585713 13.125975259234304 657.6350698290097 46.47750536324727 0.37442590208644283
1.3923535423025977 13.123691504265022 596.5331206119066 48.28449130571742 0.3795981684455197
1.4151958327129288 13.120744188276559 541.5339341859424 50.16686443796482 0.38490569751943843
1.4379425468625198 13.116972156574361 492.0071139180501 52.12781467167983 0.39035132631709163
1.4605835548066877 13.112273962079279 447.3063191025867 54.170724407262966 0.39593671752310766
1.4831276495105392 13.106868273359831 406.9665037772533 56.29360434665387 0.401628804737727
1.505505188522971 13.100505974440654 370.5886901115081 58.50213856570227 0.4074566784677963
1.527744013965038 13.093258313406432 337.71039522812424 60.80447315825676 0.4134451531432842
1.5498007342775635 13.084988156572768 307.9737756100109 63.20485724637799 0.41959736461511105
1.5716567516973428 13.07570631613342 281.07237313529345 65.70780467925012 0.4259141823130104
1.5933094279013202 13.065498370073914 256.7423924306102 68.31817600930675 0.4324009210018962
1.6147255273342158 13.05416644728365 234.67297838342137 71.04102226918688 0.4390726365915589
1.6359044360695587 13.041828646872831 214.67567194071586 73.88177931251205 0.44593651844818005
1.6568005823757967 13.028391433642224 196.55913705666106 76.84269681759027 0.4529803610452984
1.6774125269912692 13.013781076691354 180.0917180045891 79.93247910469623 0.46021814967398494
1.6976987355586346 12.997930864713954 165.14041419046697 83.15949135327153 0.4676770075964541
1.717651532468951 12.981045572629581 151.60120821966598 86.5307950089387 0.47536754107910295
1.7373040735795808 12.963025143649176 139.19786576188963 90.05390787722092 0.4832946131926796
1.7565486310086842 12.943496888452227 127.950223799173 93.736879606013 0.4914658219424069
1.7754102758010823 12.922876897787683 117.71169635636262 97.5883625857294 0.49990013313182
1.7938337028383713 12.900798697384953 108.3782092128896 101.6175897509718 0.5086136138845627
1.8118531855213518 12.8775567551981 99.87169052234607 105.8344370299254 0.5176135825579148
1.829421279139313 12.853058829330632 92.1144690364979 110.24951087965236 0.5269126461348551
1.8465291794799845 12.827225941941284 85.03164270158963 114.87421332435851 0.5365343582990088
1.8631031321963314 12.799807759438336 78.55892291363567 119.72078032790084 0.5464985055849159
1.8791840675334714 12.771125617146234 72.64181164675917 124.80110619573364 0.5568089034901548
1.8947708537620547 12.741146066045555 67.23072629342442 130.12426939512386 0.5674707929798665
1.9097663731069905 12.709541142509115 62.27744486535202 135.7103776828614 0.5785316515549168
1.9242019960754555 12.676663922377687 57.74869786433693 141.5757388897393 0.5900100684849052
1.9380467725032582 12.64231874561424 53.59610797581121 147.7379299201711 0.6019241274607897
1.9512835367270818 12.6063838081233 49.783712172972876 154.21587719206673 0.6143092244987038
1.9639132562227053 12.569201187257752 46.29565995141095 161.03003930245026 0.6271973817360611
1.975886003088696 12.530511963557935 43.089455568486315 168.18792426196245 0.6405552144135244
1.9871952099498078 12.490286265611365 40.149027603130016 175.72503196161134 0.6544680266767833
1.997834700319655 12.448438581622234 37.440461221155225 183.6682181306728 0.6689793217434986
2.00775191723913 12.405136776192558 34.95408289999757 192.04106536831233 0.684098933988703
2.0169791023173143 12.360396923331715 32.6665024632642 200.86017806922678 0.6998343790014644
2.0254814175361116 12.3142259374675 30.5649631388533 210.1738852773902 0.7162878334440022
2.0332220450251106 12.266362353916623 28.62793133001695 220.0083602653355 0.7334606753050523
2.040221100635043 12.217064928302081 26.841378793439734 230.3931462208862 0.7513907592729708
2.046452610560105 12.166359416470495 25.198567209210978 241.38545929317476 0.770188164354407
2.0518938959157675 12.114014846899577 23.68152987553347 253.00028852338374 0.7897965006549682
2.0565450724756884 12.06025966605841 22.282409062386858 265.3143049869315 0.8103920274703569
2.060374809822888 12.004997964651961 20.993290799795318 278.3488032943752 0.8319329398580954
2.0634019231772327 11.948302310415752 19.803704374831792 292.1849298448008 0.8545662924701791
2.0655881776377294 11.890099243220956 18.705610966783418 306.86017812491235 0.8783040503337022
2.066952681070013 11.830483780311717 17.69044954493413 322.453555931364 0.9032506784222882
2.0674736404632896 11.769462495007746 16.753816639179128 339.0383327297068 0.9295129925413753
