M[M_sun], R[km], Lambda[1], P_c[MeV/fm^3], rho_c[fm^-3]
0.23841724892012095 16.20908015294055 2780876.1263280716 3.453507347168396 0.169602847481901
0.2484053743769395 15.866554544380211 2282498.193822237 3.6354003504748986 0.17197658077759023
0.2586763964184678 15.563497837654468 1882102.0844869735 3.8244613604175517 0.17437118206533897
0.26923099491362096 15.294267781395629 1558850.7558829498 4.019774429189556 0.17676046688400146
0.28007421985493663 15.054751536797902 1296380.8261981967 4.221703666470964 0.1791372827936614
0.29119375762615507 14.840698895744517 1082021.7727052977 4.43160199574542 0.1815379152595138
0.3026027832868917 14.64949935600564 906452.4922087295 4.649816479098326 0.18396625991557122
0.3142949013722882 14.478027734797708 761890.1227652116 4.876682116616697 0.18642333356039387
0.3262677417877528 14.324233828981725 642316.1042524485 5.1095422210061505 0.1888500731327807
0.33852580136780663 14.185984566459728 543192.5706594574 5.3516180343288475 0.19129926575591544
0.35106237774048715 14.061683446839437 460682.1988552473 5.603379619861556 0.19377837764217637
0.36388553418551833 13.949930052727403 391748.6558132126 5.8652385871560435 0.19629310463475017
0.37699216872815505 13.849201474200783 333955.4594231265 6.133986230081554 0.19878175451919602
0.3903834710151259 13.758634256964376 285390.1689460421 6.413240828680596 0.20130227085617883
0.4040538434680088 13.676895985600824 244443.4595673011 6.703719660760244 0.20385755749883516
0.4180106246342752 13.60346383683214 207241.18103673306 7.005377483450518 0.2064365869959445
0.4322513557063178 13.537336891364003 180508.7461023956 7.315110281413112 0.2089943948016005
0.44677383270272536 13.47800986602686 155600.14508978603 7.6373693463505425 0.21159669121556382
0.4615817277043594 13.42471017568995 134379.7102186373 7.972687893706375 0.21424358151017478
0.47666314123205406 13.376949247088685 116277.12438582738 8.318940581514356 0.21689458019045738
0.4920425982959158 13.334315751381283 100778.09605858686 8.676455634578165 0.2195458886327828
0.5076929660305473 13.296239666261243 87507.15824601125 9.048552080131174 0.22224516018086002
0.5236251440411037 13.262274542966416 75351.89969850754 9.435833035196808 0.22499541456148606
0.5398372217186627 13.232219780151848 66286.03864546142 9.832631011429536 0.22771638726258756
0.5563202956511464 13.205600962753445 57827.74452107002 10.245605948086986 0.23048738188495585
0.5730857754523695 13.182346079277961 50527.3998331041 10.675482015108086 0.23330908525728147
0.5901259432264212 13.161801448753089 44202.970371279334 11.118951868185754 0.23613063105315474
0.6074392520678704 13.144071720495171 38728.17641666945 11.577470235827795 0.23897371453143335
0.6250174670439851 13.128808139238204 33978.26504862387 12.054803869266648 0.2418761270583124
0.6428665081882536 13.115658147810079 29846.220395337117 12.550227629829791 0.24482194025435378
0.6609720127114438 13.10460734280476 26045.69690117806 13.059506684422248 0.2477516441481116
0.6793539642283587 13.095479309255296 23117.585566718008 13.589710933501118 0.2507399860278968
0.6979777496729169 13.087957967673162 20382.58275730402 14.141743377365318 0.2537884723643776
0.7168736725163298 13.08209694372455 17991.22268122046 14.709065991385444 0.25682785632450655
0.7360110581633049 13.077585727795773 15898.422468592687 15.298312804054921 0.259920838665981
0.7553928487801124 13.074306860739807 14065.066401899592 15.91177302708785 0.2630799824325098
0.7750174462010919 13.072097254148595 12456.225367172483 16.545885729244166 0.2662578594160041
0.7948777121477342 13.070974317497763 11042.951238584785 17.20104675590013 0.26945552427164343
0.8149769315059916 13.070714293375753 9799.538834499761 17.88320531281902 0.2727248206042158
0.8352958681294116 13.071286641224615 8705.148552486067 18.59229268288248 0.2760580047768246
0.8558239045314874 13.072534337626575 7741.066877614233 19.32126946439953 0.2793873894589929
0.8765783721733278 13.07440380046239 6889.727698874059 20.080219643677307 0.282787907273713
0.8975318468516734 13.076765234589478 6138.378085209843 20.870391535012946 0.2862607394330126
0.918691387128511 13.079628862700824 5473.712246109024 21.685516812383923 0.289748534787773
0.940041911901222 13.08281130918715 4885.50924952798 22.530584077767777 0.2932904497294643
0.9615569636628554 13.086165523873312 4364.549017735216 23.410384164846022 0.29691562818889844
0.983259083207236 13.089804637538482 3902.3291993317184 24.324344280645942 0.3006106026659853
1.0051288451938558 13.093610339411155 3492.1834796852236 25.27136345000179 0.3070065377346211
1.0258873175111085 13.096327448092767 3145.790782695194 26.278879183457217 0.372689917074173
1.0445253498286866 13.095800346344602 2861.5183608075654 27.353564134433896 0.4411146239787039
1.0613146778916005 13.091147221946429 2622.5369233245938 28.51857660473542 0.5060075554985737
1.076600856149057 13.082588665867396 2417.1151435482434 29.766118190646687 0.5667057748064437
1.0906836049299595 13.070032979565303 2236.4405773680155 31.09726102495742 0.6260171079818978
1.1037762902150283 13.053608455922975 2075.0921647666833 32.515729692818496 0.684395784478018
1.1160366447151568 13.033553898541978 1929.1994402263435 34.020138695101494 0.7400372592104394
1.127590797879687 13.01016629861482 1796.848044865326 35.61313795731403 0.7942731191490541
1.1386287835651325 12.98336996108064 1673.6461935272964 37.299665869794204 0.8476680010888823
1.149200138924878 12.953687159961191 1560.2425363586176 39.08332987936928 0.9001953975099658
1.1594235436674747 12.92116635896263 1454.4743952215476 40.960434632932156 0.9509141664246836
1.1693770986404863 12.885976678255796 1355.520781297793 42.93399994311131 1.000336548583517
1.1791124419281642 12.848234614551926 1262.7621397257105 45.012592313056544 1.049203776169103
1.1887351058158697 12.808343127995002 1175.5626229943916 47.200060587351345 1.097465536084047
1.1982579307446528 12.766312501912468 1093.4797797607976 49.500181305565626 1.1450640516189272
1.207765050295632 12.722402245125274 1016.1490147652303 51.90303167062615 1.191440694976078
1.2172393940008304 12.676683538527541 943.4062526467463 54.42397944399891 1.2380583085236612
1.2267257870437445 12.629293487136263 875.0780862357833 57.06976524448851 1.285090717871936
1.236275537622658 12.580480209473034 810.7886795261031 59.845498455641156 1.33260336503323
1.2458696418378423 12.530377657626943 750.4713936872234 62.75653908384639 1.3806704571436919
1.2555122705546227 12.479047360397507 694.0875469077997 65.80626779186187 1.429286783011114
1.2652097626015106 12.426597917950183 641.3233152947984 68.99081825461755 1.4782133760145957
1.2749880864437808 12.373154917428735 592.0806527029208 72.32912707191433 1.5280446865299844
1.2848154943507022 12.318877352035573 546.1928438323674 75.8281691986277 1.5788702186687344
1.2947023806600872 12.26369598738902 503.49328009688315 79.49533519837746 1.6307655392615608
1.3046495184109996 12.207897115233186 463.8674513992415 83.33849035326939 1.6837913749860185
1.314627397341587 12.151384445127533 427.08038309661976 87.36614643670707 1.7380697895542887
1.3246159611439599 12.094170245071343 393.0263161448657 91.58724085160716 1.7938373695568133
1.3346263023176888 12.036511927906373 361.5507224300274 96.01150627410931 1.851272385474121
1.3446593982574453 11.97855388606022 332.36037282730643 100.64940224263756 1.9106057058234949
1.3546281995752276 11.919985867818175 305.75159462872085 105.50844904417869 1.9720834738066768
1.3645543386433427 11.860994910081654 281.11142397220254 110.60379325149333 2.0366120955630485
1.374419441106873 11.801553743701058 258.41561048433044 115.95148280681966 2.1056602305254617
1.3841877618598624 11.741948953436799 237.60146206159746 121.56751382526656 2.184323299669438
1.3937826053400721 11.68207696936156 218.5679146921482 127.47263360060423 2.2832921095547536
1.4031635663351494 11.62183586056402 201.14741389280087 133.6800425842681 2.354329628911161
1.4124618291612634 11.56101206653158 185.07725663383889 140.1928033816308 2.4017759165797825
1.4216528024610988 11.499504847441395 170.2525942012498 147.02180375441017 2.44835266933351
1.4307515251064398 11.437583814311202 156.61455723322183 154.18557632583963 2.4969140365709617
1.4397556482144842 11.375294922028838 144.04536107790437 161.69587108293814 2.547472895460402
1.4486168190165831 11.312997566895024 132.53739639249773 169.58257833477606 2.6002400969001562
1.457267411711902 11.250222065558177 121.97737525492501 177.87042801397175 2.6553064762922722
1.465751797623778 11.18753528563956 112.31935588704026 186.58566254651765 2.712837174369529
1.4739679573357805 11.12442056925004 103.46935967516887 195.75718983731284 2.772959018614387
1.4819261436735225 11.061241873174259 95.37824143055008 205.41570983428787 2.835830670055944
1.4895621655336142 10.997917958143093 88.00271271829897 215.5950037164867 2.9016344782071033
1.4968705308701913 10.934303714210612 81.25125403694702 226.31740908426448 2.970399642061743
1.50379893194284 10.870398857611374 75.09071833329429 237.6211936781416 3.0423341731754854
1.510336754539582 10.806330041308788 69.47090256929144 249.5612552709972 3.117743524693789
1.5164651465688423 10.742047078494144 64.34065397615007 262.18393921019873 3.196871907100568
1.522110838491052 10.677377335973008 59.65572864381988 275.5178250106499 3.279727267889969
1.5272682132027349 10.61227561594245 55.38093351415965 289.62144917389907 3.3666418101221227
1.5319166198352498 10.546907566642247 51.478074409836694 304.5686768543839 3.4580121188927797
1.5360394055743414 10.481161174230458 47.91457993531645 320.39555357813106 3.5538775817302026
1.5396284330934809 10.415046694992146 44.64794642721462 337.182070889914 3.6546666897099316
1.5426210718303968 10.34851319926783 41.67751023349636 355.0092327010953 3.7607575062144316
1.5450340972999939 10.281569033362446 38.95344436737636 373.9300352771478 3.8722583164894715
1.5468404340228428 10.214268285439612 36.468103037539684 394.0658947644374 3.9898614242596273
1.548015865521681 10.14640050096125 34.194630927251154 415.47363751873837 4.1135812054421494
1.548571677778242 10.07813060020833 32.114273302526406 438.2906888186182 4.24422240943913
