M[M_sun], R[km], Lambda[1], P_c[MeV/fm^3], rho_c[fm^-3]
0.23841724892012095 16.20908015294055 2780876.1263280716 3.453507347168396 0.169602847481901
0.24841389465324373 15.86621799327545 2227615.4023725847 3.635514330424706 0.1719780306456593
0.2586905488371954 15.56302865682736 1881659.7442283188 3.824695807632752 0.17437405008218793
0.2692519208039641 15.293798678381211 1558360.528648746 4.02015212686945 0.17676508729848928
0.2801027205469386 15.054172628124702 1295743.2259873403 4.222220863117131 0.17914333060602597
0.2912294421586909 14.84006747006525 1081526.5535670798 4.432265810991301 0.1815453845218194
0.30264635879176627 14.648816004524448 905844.7827328709 4.6506344078951996 0.18397511851272205
0.3143451180588091 14.477332630989245 761244.0901887385 4.877693755833255 0.18643418670133138
0.3263284812820509 14.323496112975004 641814.4932031396 5.110741112345844 0.18886256571200993
0.3385944097399083 14.185298869174783 542717.7937529566 5.353001455870586 0.19131306969102232
0.35114059582170415 14.061051469978334 460223.11999929004 5.604956227045178 0.19379353048364226
0.3639745429655442 13.949241827951557 391317.2105646903 5.867017667703245 0.19630957922983877
0.37709142863401085 13.848574883128181 333570.49119285494 6.1360602757859715 0.19880096054290824
0.39049153361946937 13.757849489823569 281208.50633977156 6.41554405775905 0.20132279935918262
0.4041757880547457 13.676309848157876 244132.86430133152 6.706262378152337 0.203879296511265
0.41814181368162534 13.602856061029927 209550.3983078132 7.008286554337667 0.20646145815479672
0.43239819497895216 13.536865329320444 180249.5281699152 7.318288943206998 0.20902059751608432
0.4469297124817401 13.477477541422768 155359.61933183658 7.640830028354814 0.21162420540343835
0.46175029941895634 13.424188611445523 134166.97081015643 7.976443510457018 0.21427233546761734
0.47685038024171505 13.376461752102585 116077.84213771045 8.3231672982309 0.21692694100910812
0.49223457641442453 13.333758380067499 100599.51476563532 8.681012936622974 0.21957941758590319
0.5078971625940162 13.29569720877288 87336.7345586712 9.05345473479097 0.22227997712108552
0.5238429459193144 13.261820010670355 75956.62135957796 9.441097171446064 0.22503151245484
0.5400688097535947 13.231747675573946 66156.20226832369 9.838491037129186 0.22775657136359503
0.5565700494994177 13.205296686682201 57179.263264093825 10.251870758564984 0.23052878105240446
0.5733456492985016 13.18187587708546 50417.456910306544 10.6821696109352 0.23335163461607
0.5904051324483996 13.16151516556755 44109.84517176046 11.126354015466777 0.23617772669538672
0.607727612529745 13.143846942004478 38645.091876505736 11.585345009482808 0.23902214055639245
0.6253251544638067 13.128554432612816 33899.758067656425 12.063173712345836 0.24192589454254337
0.6431932937445998 13.11553869281627 29777.908179971484 12.559449669950663 0.2448767749426449
0.6613159588102023 13.104459463872923 26189.86880388406 13.069282013159887 0.24780771250843706
0.6797102819514137 13.09532544643096 23061.3653585809 13.600064725370716 0.2507972869773243
0.698351449078727 13.087841085952501 20331.938406163106 14.152703052963973 0.25384718791951255
0.7172645619253832 13.081986236942877 17945.4288081877 14.721078185165426 0.2568922106587047
0.7364194545007661 13.077462549722622 15857.16414150333 15.311003035635625 0.2599866820243372
0.7558202015103669 13.074206873681206 14026.670292647397 15.925173840438543 0.26314714105614634
0.7754596850435898 13.072065038646334 12422.354495766187 16.560531622614057 0.2663312577997372
0.7953384818160395 13.070926192287585 11012.068795757248 17.216486173942858 0.26953036058811364
0.8154518305984014 13.070736579560837 9772.317126012613 17.899477489269948 0.27280131070020397
0.8357906283715553 13.071344541037442 8680.642297276443 18.610034305713334 0.2761414022521045
0.8563384637144292 13.072614666794808 7718.704327909222 19.339944042129883 0.2794725630395954
0.87711495375654 13.074517662149809 6869.770356259403 20.099873589532322 0.282874632377312
0.8980830066606219 13.076828656752188 6083.142809802418 20.89107342347498 0.28634923404421914
0.9192601420753841 13.079710279074847 5457.102081302325 21.707998450085093 0.2898447302484198
0.9406220536724317 13.082813068303762 4870.12097817011 22.55421808422592 0.2933887207866316
0.9621618577035072 13.086288488618802 4350.835783076085 23.435231717974634 0.29701608232583626
0.9838914676139995 13.089982463612234 3889.890887432137 24.351311817821497 0.3007196275127494
1.0057768278714956 13.093762656730794 3480.889959472231 25.294379174461845 0.3044195336955864
1.027814451538415 13.097601300165689 3117.666529088447 26.27626826946464 0.30820581735853203
1.050019063456455 13.101595136339396 2794.790013023882 27.29847654540535 0.31208039824582223
1.0723247179513196 13.105277736048967 2507.197807426439 28.357100753216923 0.3160089840334149
1.094773349387634 13.108957800235046 2251.213114465399 29.452614505365045 0.3199878295634237
1.1173376370707624 13.112511742300375 2023.0030745232427 30.59311284345236 0.3240558710464868
1.140000941019836 13.115804951820927 1819.4109863460333 31.78044599487663 0.32821363802242354
1.162754252849401 13.118847435001708 1637.673365968034 33.00872730254801 0.3324207464911581
1.1855825778332012 13.121528300450118 1475.1106745625639 34.28297273731709 0.33670320063802983
1.2084819799252746 13.12385683151228 1329.882590854496 35.6096675124228 0.34109127250719207
1.2314341221539453 13.125790697923637 1199.800832243238 36.99083054618026 0.3455840661548545
1.2544225925605772 13.127221354240271 1083.3144287709279 38.42242829969635 0.3501359928044363
1.2774310678721283 13.128210869480272 978.9584676240278 39.90728101464055 0.3547684676412106
1.300437480529803 13.128445937221437 885.2658427377272 41.45353112750712 0.3595180212028682
1.3234580359154258 13.128306036726794 801.2004562920599 43.063634831601185 0.3643868273985301
1.346467617182207 13.127526718398297 725.6608720895192 44.74017975048013 0.36937693644828745
1.3694191996441791 13.12593679687221 657.7130513401686 46.47500140051917 0.3744186251421093
1.3923250034769492 13.123694761398848 596.62171198371 48.28185828060075 0.3795906690143011
1.4151519457687585 13.120688425457072 541.6060834550675 50.16409452995755 0.3848979614243547
1.4379074404256083 13.116942931899008 492.0449933988227 52.124899560175415 0.3903433421459546
1.460549251796995 13.112299031425618 447.37149614406536 54.167655354148174 0.3959284884576426
1.4830982545427585 13.106922871602071 407.033534168366 56.290296807668796 0.4016199362190607
1.5054712749373718 13.100507242287058 370.6568520606882 58.49865598640841 0.40744750733005664
1.5277076457518013 13.093226806925552 337.7525801519705 60.800804598672215 0.413435660067031
1.5497670055632775 13.085004259959629 308.0294083606134 63.20099105469263 0.4195875356961393
1.5716237813916623 13.075752974444939 281.1182176276788 65.7037285330867 0.4259040115790439
1.5932833458299274 13.065559038418685 256.7705626021977 68.31387667055117 0.4323903643278923
1.6146987780824655 13.054272907415234 234.7257288452713 71.03648541939454 0.43906166942422764
1.635875229224473 13.041851968519458 214.69896245488258 73.87698967649831 0.44592512419551333
1.6567770381458493 13.028440114519336 196.58311009919086 76.83753868985497 0.45296809017324574
1.677370576300684 13.01377614766418 180.12120561358944 79.9270317457287 0.46020540191900416
1.6976610639660703 12.997952040157871 165.1626787327665 83.15373585113997 0.46766373025730285
1.7176376351001197 12.981161951456876 151.58179753131392 86.52471092466921 0.47535369993172955
1.7372500767590875 12.962902795555623 139.2154350758928 90.04747334977638 0.48328018554736357
1.756519015439984 12.943514237895686 127.96472565572394 93.73007126299385 0.49145077523372194
1.7753551178125855 12.922847170025523 117.73052538618724 97.58115520757872 0.4998844070339766
1.7938050972336737 12.900833765529212 108.39249520792006 101.60995608743177 0.508597163858138
1.811826844848941 12.877680969226166 99.88507152878071 105.8263478565935 0.517596378962369
1.8293835628657946 12.853015057217222 92.1236585000856 110.24093481860906 0.5268946384043811
1.8464755075519965 12.82712877357885 85.0387166605101 114.86511644782331 0.536515474955968
1.8630681487444605 12.799840423563653 78.56934229815418 119.7111259452175 0.5464786879571909
1.8791631185412188 12.77119785391905 72.65448325904141 124.7909993803254 0.556788635871451
1.8947186984254631 12.741108781022941 67.24301656380403 130.11352848201741 0.5674494757024577
1.9097386130016196 12.709666595919165 62.29010560048439 135.6989568550159 0.57850921293444
1.9241701935746254 12.676746402715125 57.76014562823095 141.56358873472445 0.5899864588423525
1.9380094450716905 12.642323979046504 53.60153952727403 147.72499701844674 0.6018992500006181
1.9512565664534318 12.606552723259885 49.79402523216581 154.20210355155515 0.6142829780172185
1.9638929670092249 12.56930657820949 46.301428405108076 161.0153620115266 0.6271696696315823
1.9758471757139644 12.53044842848262 43.09389881207975 168.17245252859453 0.6405265613504095
1.9871599331077197 12.49023251811123 40.15195646293871 175.7085226684605 0.654437714579428
1.997820478760692 12.448594348260697 37.44622541135839 183.65059141301072 0.6689472303369771
2.0077301147839113 12.405261385729421 34.96093377538165 192.0224235064224 0.6840655929252732
2.0169548363160112 12.360529211702225 32.6740746099771 200.84024711851205 0.6997990151826019
2.0254676931089626 12.31433223405921 30.56864424976704 210.15256304142542 0.7162502958161394
2.033203460836699 12.266447861354052 28.630540178748323 219.98573960382734 0.7334215043977541
2.0402107654669304 12.217244100007731 26.847448524428764 230.3689125568541 0.7513491054257433
2.04643119386917 12.166438765240263 25.20143347192214 241.35948077036113 0.7701438399564169
2.051881993658404 12.114152443698888 23.68472133179017 252.9726445899668 0.7897500549569273
2.0565352409367823 12.060358636673431 22.285465755275382 265.28462752483836 0.8103425114397361
2.0603659982686415 12.005125977579533 20.996874066439318 278.31715433221285 0.8318809098558592
2.0633905575175375 11.94837520616799 19.80618506574354 292.1511335056817 0.8545114651993146
2.0655827795822406 11.890247945772483 18.707904425861646 306.8238120706506 0.8782454538831576
2.0668123779916994 11.831741855933226 17.718313102369912 322.8368375563776 1.2290755243789853
