M[M_sun], R[km], Lambda[1], P_c[MeV/fm^3], rho_c[fm^-3]
0.23848912294887037 16.21570186450063 2784644.0411725277 3.4469561053153734 0.1694538074003404
0.24846927131334914 15.872822558201312 2285525.473404213 3.632487835279752 0.17193139821441428
0.25873927013235015 15.569738293141421 1884994.4612670923 3.8168645042677944 0.17421622547172513
0.2692996583488739 15.300117789195971 1560821.5293392474 4.012790109951709 0.17661830993681735
0.2801356798101281 15.06054658748237 1298078.5961032277 4.216765110091155 0.17904888918437722
0.29126344900941303 14.846470121415203 1083455.733373909 4.423438234105372 0.18137848804809706
0.30267283251220156 14.654982901445909 907559.5038840079 4.645083830176442 0.18387685512518323
0.3143596852307069 14.48327093493047 762743.1188491702 4.8674317934893905 0.1862426504949186
0.32634579443320333 14.329343345319437 643050.9731059588 5.10067520151161 0.18867781780889217
0.3385954236603164 14.190973660388531 543846.091805908 5.347737357165121 0.19123322582472732
0.351142352877197 14.066645666150038 461193.16842749185 5.593284064916854 0.19361055875215946
0.36396817290887457 13.954777189268532 392136.15191381366 5.855833600871192 0.19615250957944305
0.37707000560003806 13.853989656612944 334340.94508604566 6.1261993358982005 0.19867782205367587
0.39046233772031347 13.763088953470954 285679.85979892744 6.40213188642289 0.20113860719875656
0.40413987553661357 13.681533141694317 244701.8745425638 6.696921882370938 0.20376756431732765
0.41809228554906813 13.607869209729497 210057.10093479714 6.993493046090736 0.20626848356846522
0.4323414262772303 13.541808544183732 180693.67662752053 7.302837529265472 0.2088189155338023
0.44687063562476353 13.482237225408436 155734.35721574954 7.633064441253647 0.21154151547644767
0.4616780492508407 13.428965456016943 134500.3511007363 7.959040035500248 0.2140489726573374
0.4767750082214698 13.381111170300139 116368.13835197795 8.305323375809737 0.21670424462922921
0.49214966515657604 13.338370200323771 100860.52112858546 8.66990326462931 0.21946905139841805
0.5078021951163497 13.30022894618275 87570.94286733892 9.033518864823346 0.22206554644539675
0.5237346007914829 13.266193523896552 76154.41051837464 9.42081864709203 0.22483116476820783
0.539945326558246 13.23612668317749 66337.67279797631 9.822419875609437 0.22762428118189235
0.5564351343689501 13.209435842695834 57873.64341231249 10.228916424481787 0.2303082045833927
0.5732060684090162 13.186078169137291 50560.59050191767 10.661656862802793 0.23316540519778214
0.5902439882021698 13.165650222358787 44236.95761799119 11.104963275791498 0.23599055128926935
0.6075658212810432 13.147940242994501 38757.3058506122 11.559002416421395 0.23877925200167927
0.6251511019552564 13.132515968511212 33999.484174649406 12.04212095875011 0.24174655790685176
0.6430012240775557 13.119412184320431 29866.625381562222 12.531972111540622 0.24463016886924294
0.661123754387894 13.108375287309716 26268.330997933765 13.039052846886994 0.2475419562108971
0.6794952526728095 13.099116783712287 23132.348943935904 13.578388302777723 0.25063895841173045
0.6981448374736583 13.091718528178534 20241.675033521562 14.119979497129318 0.2535947569534445
0.7170366215810932 13.085728867892463 18000.86942303132 14.686484305088065 0.25664118732262386
0.7361716977160927 13.081150287148535 15907.873355792954 15.288823378045068 0.25988031966293257
0.7555522297977736 13.07775182292003 14072.8499630515 15.88770095266937 0.26289133943955706
0.7751877951434744 13.075632011363966 12462.752847467355 16.520679443578285 0.2660571421972655
0.7950496183762624 13.074492010375796 10974.989004040312 17.190461170947845 0.2693939376619966
0.8151469097545994 13.074215908382717 9805.141100976489 17.856751495578145 0.2725187297027095
0.835473957379672 13.074775672849537 8709.952407468058 18.564250460895003 0.2758367834908408
0.8560188709559866 13.076015736504132 7744.962073010722 19.305456716002272 0.2792716780629138
0.8767820546945166 13.077844185111783 6892.838284340785 20.051057360538273 0.28256435684996417
0.8977420229490646 13.080275559410103 6140.995783135016 20.842665428272866 0.28606021097963663
0.9188885111403179 13.08299354606151 5476.114679683179 21.662942313644002 0.2896072053458356
0.9402503693486616 13.086150306720318 4887.297337304595 22.49836499324729 0.2930885354115134
0.9617823173956215 13.0896315179992 4366.18119249916 23.385288677497186 0.2967844777929282
0.9834798405894022 13.093218367391929 3904.0866172819733 24.293029093391887 0.30043372704406124
1.0053547111880727 13.097000990270734 3493.728350718576 25.23013351524835 0.30409580204797915
1.0273719613953078 13.100801603325806 3129.1989066666165 26.225017386416972 0.30798367118127173
1.0495435195845841 13.104644955324176 2805.0450458187324 27.23066957016618 0.3117507542896606
1.0718696461063348 13.108470588970583 2516.6390628233003 28.28325095456381 0.3156451974624219
1.0943030387931403 13.112136282748562 2259.6503135185444 29.39872677864187 0.31976614011826954
1.1168545574042488 13.11565233010094 2030.6094431847198 30.515170127899506 0.3236901537000906
1.1395083586553536 13.118983128364846 1826.4397183172027 31.699759202254487 0.32785368212250143
1.162252379555851 13.121986425166904 1643.931335181545 32.93412503385454 0.33212652628138695
1.1850663810915403 13.12464928418789 1480.9305382219472 34.19303585250685 0.33633948340639536
1.2079647165783225 13.127078021960834 1335.0910089848717 35.52911260229966 0.3408106770598295
1.230888444290024 13.12897633834169 1204.6695639344566 36.895609981917225 0.34522484763515915
1.2538658054337342 13.130395638047295 1087.7034242918905 38.317987917113754 0.34973282562806224
1.276871898627547 13.131336323209025 982.8784730676068 39.825230809660496 0.35450286149601645
1.2998721613047193 13.131703364385565 888.8834134443147 41.343044740194 0.3591039409919561
1.3228821578382728 13.131501645577654 804.4889722633467 42.95371662023713 0.363986508751331
1.3458992298699999 13.130924302082315 728.6886842297451 44.62319932250151 0.36895213736700655
1.3688339255511761 13.129204151904645 660.4336944827388 46.34585125762362 0.37395898648468545
1.3917362793806431 13.126967439528473 599.0726662133743 48.174769768686104 0.37927469701605915
1.4145719367664833 13.124003868455882 543.866798649564 50.026705435440824 0.3844554546841838
1.4373052104456272 13.120232669936437 494.12191751914247 51.987407889561354 0.3899287501151937
1.4599540409212373 13.115697074515257 449.2556408030302 54.0209055930249 0.39548643196739003
1.482478983587569 13.110238170278228 408.7734421151831 56.128020984155704 0.40111739177523903
1.5048655253709473 13.103914390738202 372.2198949845806 58.35681823595402 0.4070552941576927
1.527091453729764 13.096648364753912 339.19550879182117 60.6268592303542 0.41290980513911685
1.5491539906355118 13.088474526039716 309.35097739188757 63.03762594645462 0.41912725242217397
1.571021976499406 13.079281355361157 282.3181964121225 65.51651329020504 0.4253630563196884
1.5926720444801146 13.068991330356804 257.8646245422516 68.12044989236198 0.43185668308322894
1.6140953153094004 13.05785379812475 235.72851339120015 70.83396432951773 0.43852223166539767
1.635272862093268 13.045494012677645 215.65033490194833 73.65393568038562 0.44532875649820713
1.6561791549911893 13.032126725639804 197.4427907771734 76.62109447111807 0.4524299939089214
1.6767885404515117 13.01753255470527 180.90669794411374 79.68255318696761 0.4595710693012059
1.6970949730729736 13.001818225083625 165.8864288205076 82.92569464413859 0.4671166029007248
1.7170696484506092 12.984911928484525 152.2406760250793 86.25761104580548 0.47467223427501737
1.7367128922447383 12.966881187475346 139.82908952048652 89.80049014061956 0.4827062559061456
1.755960848801532 12.947454219317851 128.52928244664471 93.43675995574584 0.49073567536442486
1.7748263422471071 12.926828397574162 118.24747589557509 97.30378213560178 0.49927355239197274
1.7932949201508561 12.90494464785384 108.86887241038211 101.2861986614196 0.507846267816399
1.8113253692726907 12.881759933414413 100.31937626253003 105.51810243039644 0.5169465159207496
1.8289074191290522 12.857300757597674 92.5310449866752 109.8817321631137 0.5260844265900357
1.8460177658751746 12.83143979197864 85.41071731693894 114.51545165980232 0.5357700481488231
1.8626333574669909 12.804215823486063 78.90897860877611 119.31077712092029 0.5455834269909429
1.8787801312236083 12.775721963911453 72.96291485160208 124.38787765446573 0.5559284147433373
1.8943463414418484 12.745653183407866 67.5325215494453 129.6737492129339 0.5665153137572486
1.9093801072930212 12.714252036335447 62.55597820799249 135.24517765571247 0.5775785385979544
1.9238402517316875 12.68143845263935 58.00565591700775 141.08696917362744 0.589027857554234
1.9377365063042082 12.647218721422249 53.83248691277778 147.21209315374745 0.6008659603127878
1.9510079100836342 12.611527821639667 50.009634909091034 153.68509893898593 0.6132808400825932
1.9636581990295745 12.574315575806672 46.498549749343475 160.4333430182465 0.6259982151118216
1.9756760504079103 12.53566283363902 43.27484712717521 167.5755955084122 0.6393737843135779
1.9870221409625552 12.495501483250308 40.31866904499965 175.07738606901216 0.6532474277863783
1.997686848401686 12.453829754965682 37.60295297005938 182.99121507896342 0.667712523973755
2.0073755844770123 12.411257266993333 35.15560288961119 191.4791447925481 0.7902797230280958
2.0149143935772815 12.367844085176257 33.07992461386439 200.5902609826936 0.9637246582010628
2.0200559574247396 12.32246737903016 31.323989221403654 210.56310494803864 1.1398311795538436
2.0229405779561813 12.27465557985348 29.825032349535352 221.43646371965156 1.320831281580844
2.0236154383016762 12.22376893999163 28.534447114699173 233.30747173145377 1.5047762355425032
