M[M_sun], R[km], Lambda[1], P_c[MeV/fm^3], rho_c[fm^-3]
0.23848912294887037 16.21570186450063 2784644.0411725277 3.4469561053153734 0.1694538074003404
0.24847527107451636 15.872808148460553 2285377.4830186768 3.632587971216637 0.17193273542976517
0.2587501229134451 15.569386519779604 1884481.2828680081 3.8170611500941454 0.17421863638622992
0.2693147141890622 15.299913835543286 1560507.7138273225 4.013106986641457 0.17662219490413
0.2801594522609377 15.060003872275654 1297591.7042443773 4.217180452322918 0.17905357088063448
0.2912927683478485 14.845950390509996 1062248.868351479 4.423994741874984 0.18138476094823308
0.3027047154905779 14.65433610413679 907141.7363226009 4.645800403909583 0.1838849322729133
0.3144046175706243 14.482808232150294 762294.7842176899 4.8682525611123175 0.18625121968238104
0.3263945069323636 14.328738968747768 642579.5149144182 5.101679620098583 0.1886883043959871
0.3386547446884587 14.190331575963254 543385.6796006687 5.348849399962485 0.191243992395304
0.35120797611269305 14.066034511426388 460795.93899227754 5.594604601840257 0.1936233439201572
0.3640431611055876 13.954031637283665 391788.6293250566 5.857387561747408 0.1961675547103381
0.3771542881886227 13.853416485144399 334000.538641031 6.127866327068689 0.19869268839366191
0.3905546709977499 13.76258636974722 285385.4590231748 6.404060316325135 0.20115580506703182
0.40424135193417765 13.680893042629435 244425.34254698118 6.699141685008442 0.20378736066735953
0.41820389719528717 13.607318454202465 209817.4055728883 6.995830121679607 0.2062877519007338
0.43246180887324853 13.541253340406069 180463.0086279181 7.305497483340028 0.20884084588093005
0.4469985283294599 13.481738292685513 155528.47514180455 7.636082903731981 0.21156640159405968
0.46181963461950054 13.428523605032348 134318.64797126743 7.962180656632228 0.21407305468004928
0.47692746479095016 13.38068999193686 116199.6498092729 8.308858200444837 0.21673134937175234
0.49231060732590287 13.338001481797136 100712.5338765408 8.67357037375061 0.21949523737796653
0.507977424949878 13.299783486421159 87430.65293742901 9.03761836746144 0.22209482004721473
0.5239188048363161 13.265830927944052 76036.75100317317 9.425395235183423 0.22486384512709515
0.5401402980035893 13.235825864133414 66231.34541017942 9.82713585953079 0.22765541881305484
0.5566413226496632 13.209151195129023 57775.999375976484 10.234152940066537 0.23034277906319878
0.5734249566604095 13.18580437638268 50474.18773263725 10.667466406642442 0.23320376313884347
0.5904770825808304 13.165389706574857 44158.53092277658 11.110919601334778 0.23602713493988337
0.6078092454061637 13.147631526804698 38684.94015687867 11.565581233715779 0.2388196589860864
0.6254086130715396 13.13233219526433 33935.84614165879 12.049383702705697 0.24179116555722943
0.6432681027653084 13.119257737893776 29809.83910584067 12.5393936716877 0.2446727853667457
0.6614087274441101 13.108250037870825 26216.009904562514 13.047215306912197 0.24758882714509245
0.679795636254557 13.098991757887587 23084.365668386206 13.587363415610545 0.2506904958063007
0.6984513772616602 13.091519506727344 20351.395110649424 14.129130422405067 0.25364396687412744
0.7173634145165473 13.08561359611955 17962.531849733747 14.69651402835213 0.2566951230582379
0.7365146614294821 13.081063981375028 15759.24950527785 15.299815628339694 0.25993943147390525
0.75591252280832 13.077785104523754 14041.651121635012 15.898886229156885 0.26294728190783756
0.7755467327806878 13.07560925833418 12435.44107537654 16.532903756611752 0.2661182813425418
0.795434901833539 13.074507747271477 11023.149768930378 17.202914678089467 0.2694523425623179
0.8155469267696512 13.074198120596106 9781.634932375284 17.870327278535772 0.2725823978920322
0.8358853832399494 13.074797087275412 8689.216675979846 18.579051681698004 0.275906198782116
0.8564446663807138 13.07602301265818 7725.76748221767 19.320524216868826 0.27933821829573247
0.8772120663517341 13.077920284953649 6876.370712082349 20.06744811528588 0.2826367407606497
0.898201549064132 13.080295855643335 6125.668594135245 20.860499778682605 0.286138970014658
0.919368069262436 13.08310598378081 5462.296864446255 21.68109251092265 0.2896828399066715
0.9407382722212492 13.086262877253791 4874.786165416761 22.518074511694785 0.29317066789465823
0.9622907969224664 13.089696376127893 4354.541001347234 23.40669809399715 0.29687369400308106
0.9839952620830797 13.093296678104894 3893.6954081163435 24.314809716993835 0.3005188427210361
1.0058900195218734 13.097092915019509 3484.302378585805 25.253750552888903 0.30418809417806936
1.0279306482569612 13.100852318313695 3120.5178537405213 26.250635227399716 0.3080837821752327
1.0501295106705386 13.104826690938673 2797.2968319410966 27.25672990617054 0.3118471748602088
1.0724619803034707 13.108769400193136 2509.6950079871667 28.31147390700695 0.3157496194920023
1.094901507099773 13.11225735489625 2253.351462528866 29.42750656053067 0.3198672937102441
1.1174668135172905 13.115790873356024 2024.9051476257541 30.546293415826895 0.3237995441179915
1.140133037935945 13.119005676995073 1821.0273365836192 31.733431750368087 0.32797203253967233
1.1628809753020775 13.122064891428414 1639.208632267337 32.96848384791619 0.3322415083820752
1.1857180562571745 13.12477939774094 1476.5673561159817 34.230161709685824 0.3364637254434061
1.2086325208361108 13.127150396369098 1331.1179288574995 35.56924791801866 0.34094499027869896
1.2315707809149936 13.129001895184228 1200.9071100240008 36.93658248866233 0.3453547028263503
1.2545529354921032 13.130349738381993 1084.348543973443 38.362231663269874 0.3498730484401996
1.277574856465301 13.131411818096153 979.8713871809472 39.87049724119437 0.35464008151079895
1.3006020054322243 13.131738870358694 886.0733686677206 41.39187600200025 0.35925196738237053
1.3236302402166482 13.131570332981195 801.9232448539752 43.00642181443589 0.36414627852513465
1.3466163384986307 13.130653125445138 726.3102786265939 44.67717703029862 0.3691090223610951
1.3695911900289295 13.129123289736434 658.2490838436458 46.404060527159764 0.3741281704178269
1.3924942350707608 13.126909993245423 597.1857924035303 48.237578405014126 0.37945724890537
1.4153383182203405 13.123886633886919 542.0974249178987 50.09110020067873 0.38463521249170673
1.4380829332236147 13.120085825136622 492.48960694959476 52.056839386459906 0.39012256794509664
1.460741024058628 13.115497932370195 447.7538998211808 54.092246759180796 0.3956770808710807
1.4832791563782475 13.110057996534882 407.4086448657894 56.20489356207643 0.4013228225733906
1.5056554702283247 13.103627145534245 370.97047490307256 58.43597624459044 0.4072594452862286
1.5278971056820356 13.096370396271054 338.0594121800156 60.71210968316587 0.41312966888315866
1.549962425225806 13.088210359228606 308.3091851642257 63.12949548433295 0.41936418700604
1.571835891840547 13.078937935794432 281.372627322289 65.61122940331656 0.4255992568041895
1.5934891760781917 13.06864386541722 256.9970473271807 68.22247825027185 0.43211111864629714
1.6149209870080399 13.057373803823317 234.91582622439236 70.93938786362996 0.4387766909536726
1.6360979954614965 13.045002934733489 214.8987352844391 73.76746333570645 0.4456027765888418
1.656991481102472 13.03152782418643 196.7519816332318 76.73863496408067 0.45270416566813765
1.6776085557875369 13.016912511492663 180.27387641026095 79.80910253356477 0.4598662548675557
1.6979179722679514 13.00118403191246 165.30660520105033 83.05697589530524 0.4674143032690999
1.7178827078407064 12.984183014812457 151.7043120876443 86.39893771925244 0.4749927141788307
1.737502975353361 12.966024411325556 139.33726424396275 89.94799081742961 0.4830329313678652
1.7567582152050363 12.94654853349999 128.07000868815692 93.59490413987982 0.49108483695025473
1.7756198294372147 12.925921539968336 117.82655573493011 97.47366510684287 0.4996478296791352
1.7940860946838546 12.903994053194243 108.48157630552004 101.46351140621931 0.508227559560689
1.8121087763243946 12.880746166363194 99.97032640874272 105.70506575402513 0.517341448016808
1.8296774234603304 12.856183850805273 92.19758116385582 110.0809211987415 0.5265013872232158
1.8467767302312736 12.83022942566864 85.10932007681555 114.72363451035812 0.5361960832944044
1.8633932274116012 12.803014123479802 78.6286727301136 119.53499139978081 0.5460422696030057
1.8794808432606913 12.774279372753963 72.70547399976034 124.62263408379097 0.5563986007065492
1.8950473086176554 12.74421085112013 67.29481502248989 129.92666804405064 0.5670218766001274
1.9100723428992727 12.712792797855801 62.33484456951775 135.51044338315643 0.578098432523022
1.9245048136359122 12.679840991199645 57.80253688284365 141.37287821813987 0.5895882102873073
1.9383820802375682 12.645545056007391 53.641914557268485 147.51245562321847 0.6014420395052935
1.9516408881878926 12.609764523749474 49.830287859351465 154.00899992705797 0.6139020648980268
1.9642698433962598 12.572395958669313 46.33035525246171 160.774185626274 0.6266398898978045
1.9762466493730564 12.533682646774565 43.12468888293096 167.93493382999964 0.6400383365587449
1.9875550396822808 12.49343774359441 40.17984458806972 175.46504896553833 0.6539643628661557
1.998217427167162 12.45169548297546 37.46853183153383 183.3771186797319 0.6683978847653641
2.008170181768026 12.408502268860794 34.982992592548094 191.74942362891622 0.6835473746897045
2.017386924836577 12.363709943918007 32.69405901684151 200.55000399009353 0.6992429156304014
2.0259098840991205 12.317491582733165 30.586673246161116 209.83444045134175 0.7156235263343806
2.0336898832344605 12.269762833013193 28.647393722646417 219.66407733059904 0.7328222064016001
2.0407038630596106 12.22051206725281 26.860713404808703 230.033072344639 0.7507503467215444
2.046969600655216 12.16982990611548 25.214551970096263 240.98083977299748 0.7694380440996567
2.0523968399052395 12.117447260285456 23.69742516869414 252.58511205351266 0.7890561707771221
2.057076554210687 12.06374115076802 22.295862552593455 264.8877427420538 0.8096491484635857
2.060921044154368 12.00845600474883 21.006267259555944 277.88961766018855 0.8311343068368523
2.063953993039445 11.95178048842065 19.815763573047718 291.68069871040564 0.8536899444727252
2.066172009416362 11.89366276375067 18.716520127939223 306.3299156513107 0.8774021958650985
2.0675601031546953 11.834103174999441 17.700528528415916 321.8990589258835 0.9023321212818837
2.0680964494546172 11.773083710532138 16.762571112976527 338.45610152964065 0.9285607718516585
