M[M_sun], R[km], Lambda[1], P_c[MeV/fm^3], rho_c[fm^-3]
0.23848912294887037 16.21570186450063 2784644.0411725277 3.4469561053153734 0.1694538074003404
0.24844175235369095 15.873958875977703 2287081.6426418344 3.6318897725304455 0.17192341168416306
0.25867362232845326 15.571474502072087 1887002.210962356 3.8156901793700215 0.17420182802947112
0.269199234375687 15.30270543597165 1563670.1562936176 4.010898048261205 0.1765951129076292
0.2799980017052564 15.063434988192475 1301093.665706606 4.2142853792521136 0.17902093790540705
0.2910887295235985 14.849619675362062 1086472.665364775 4.420116144354239 0.18134104178339122
0.3024583142585352 14.658202223405373 910482.7288407388 4.640806813297924 0.1838286450170338
0.31410476638263674 14.486846108660933 765640.7954729183 4.862533310712882 0.18619150810574428
0.32604406637632044 14.332953345343522 645740.3931108344 5.094681483405019 0.18861524066449994
0.3382510645722555 14.19462571236727 546351.7910599697 5.3411019219860885 0.19116898290050574
0.3507471098848539 14.070344180076496 463543.851840746 5.585405649195937 0.1935342815449396
0.36352015811036303 13.958308522034303 394316.68642136647 5.846563869337541 0.19606276193751707
0.3765777648186835 13.8575332336523 336314.5125470225 6.1162559748688805 0.19858914648761236
0.3899167639735624 13.766689678201695 287514.9756913122 6.390630696911019 0.20103603881294
0.4035352629409744 13.684884051670613 246348.83263354498 6.683684852799825 0.2036495155924793
0.4174339340892605 13.611208408750953 211556.7742875089 6.979557375754703 0.2061535890705299
0.43162556906210425 13.544898153997295 182036.0741027541 7.286978857328301 0.2086881665919713
0.4460953451133568 13.485337849886477 156965.06986636695 7.615070997428354 0.21139316612226636
0.460842202589638 13.431780883700814 135607.94478865684 7.940319064237149 0.21390542180029337
0.47588228852331904 13.383888363057801 117359.2979041549 8.28425568951812 0.21654269935571782
0.4911843788011905 13.340950806232588 101756.89083160661 8.648047810678998 0.21931298664789256
0.506769939676235 13.30256094565273 88378.11563572435 9.009089983677242 0.22189110544543625
0.5226366711647291 13.268502595815981 76886.31342129406 9.393550921435896 0.22463645223505263
0.5387771625118071 13.238202211997637 66997.55230114491 9.794322159593369 0.2274387639425617
0.5552030634138604 13.211325793854222 58459.60332648697 10.197722065811295 0.23010224153287534
0.5718940894301701 13.18785718214696 51090.80728967785 10.627054249044686 0.23293693889203837
0.5888580247088576 13.167210475322651 44715.97036972083 11.069486737043396 0.23577265498908823
0.6060966300855215 13.149219630322385 39187.01168259336 11.51982424739089 0.23853862035099224
0.6236106103801033 13.133808969271827 34387.517595611025 11.998876669041373 0.24148095221182045
0.6413830485503305 13.120496958222837 30215.95193186133 12.487782237129796 0.24437641930241935
0.659420180860715 13.109291014977272 26582.316692317658 12.990459074935895 0.24726291833746303
0.6777274248100373 13.100010285478637 23414.282250385688 13.52496513295576 0.25033218889990433
0.6962715773660869 13.092305949743528 20650.891864901518 14.065509508099536 0.2533018397063922
0.7150852392922908 13.086309282229463 18099.299289676183 14.626792921137506 0.25632019155649693
0.7341386952784619 13.081588318609704 16116.340964627478 15.22341431903177 0.259528576586796
0.7534295661785015 13.078170043321766 14262.163974327792 15.821142432794538 0.2625584511206094
0.7729740937183842 13.075869085392881 12633.0946796763 16.4479500116535 0.26569339044351564
0.7927543393254635 13.0745955637232 11201.969743449712 17.114035283763375 0.2690247747189694
0.8127596663042623 13.074210277725673 9878.892340728162 17.775993405011583 0.27213998753987595
0.832999331986306 13.074648901370912 8835.396273307586 18.476217396176327 0.2754239228957164
0.8534598113073923 13.075874564371354 7858.0074717103835 19.215838155443528 0.27887590971770077
0.8741146329452174 13.077638145065492 6996.144858592105 19.95358467687415 0.2821339035769289
0.8949908507390699 13.079866766417824 6233.842502530586 20.736626182301876 0.2855919265456542
0.9160540550247598 13.082606339287324 5560.30611994852 21.55502263306761 0.2891574880496193
0.9373142948853156 13.085739167573516 4963.933130281348 22.381193837633262 0.29260026584829896
0.9587633752974589 13.089124014211189 4435.393029846465 23.258034214706267 0.29625418959496347
0.9803623192852846 13.092721555062084 3967.0294182849398 24.165177845409563 0.2999135802206004
1.0021421413804925 13.096403405315176 3550.7260872654633 25.09537430691784 0.30349930697957384
1.0240711496428545 13.100277759974613 3181.099866448802 26.082778220763323 0.3073055573603267
1.0455137948981827 13.103446848903893 2860.25558224344 27.09973385140251 0.3502694165860592
1.0657808767245365 13.104841971683117 2587.368378978659 28.17924303175946 0.39650600935763236
1.0848761105023004 13.10377057279344 2353.1287523907886 29.326638913473392 0.44565026592898027
1.1029371708446312 13.099823317265665 2148.8817705666793 30.53469101614238 0.4867286809045756
1.120298018809377 13.09333582851069 1967.5268194242412 31.81780961583894 0.5281728841336073
1.1369604387937986 13.08411943588491 1805.785209552603 33.178342394423716 0.5706773033981438
1.1531176504142262 13.07228481024879 1659.5215095055257 34.58838233021087 0.6055192549445321
1.1689234177480645 13.058261314333901 1526.4623620096718 36.09097708477208 0.6426482271839264
1.1843841899514973 13.041916103194904 1405.1185588770352 37.66057830529231 0.6781905627870471
1.199674370620871 13.023679122741814 1293.5349199955688 39.295104533748685 0.7113151734599369
1.2147540578200924 13.003441401079755 1191.0300568746916 41.038445714965256 0.7466449815061197
1.2297252635261164 12.9814823777846 1096.588227166598 42.82081697454963 0.7777209968782101
1.2446449457588808 12.957885537954535 1009.2920903726406 44.70726546417267 0.8096538855620053
1.2595159990164124 12.932858223324333 928.7317671123062 46.68923453819293 0.8417647874278325
1.274401149742323 12.906425371746051 854.194397995584 48.72492287167681 0.8710903735525535
1.2893184474992314 12.87868718276748 785.2131752319685 50.89655190831968 0.9023742853859655
1.3042593253494152 12.849865866590202 721.5585701572041 53.11555443509167 0.9309832279717497
1.3193099516334785 12.82001309024223 662.5594229640005 55.4552926694087 0.9602051319082495
1.3343891740089395 12.78903556498494 608.1609555955399 57.90419803227753 0.9895306135290922
1.3495808672692606 12.757339285449838 557.9377826370371 60.42517803492912 1.017296036171576
1.3648762273778832 12.724933726315385 511.580742783579 63.11433988650426 1.0469137702608957
1.3802495962232901 12.691734974415338 468.90461674367396 65.83634419016794 1.0735752727348156
1.395731265619989 12.657854118869174 429.5512190285359 68.73447852211048 1.1018629746643085
1.411290680705004 12.623415117172858 393.37057291435156 71.72264627283039 1.129207749556016
1.4269340907561547 12.588419113715025 360.1155218060126 74.85008446576195 1.1567723073416978
1.442649455160163 12.553053494307349 329.6069127484534 78.12158643497753 1.1847984353458707
1.4584172446524317 12.517136120464492 301.60779761624696 81.50287693000112 1.2124080989659693
1.4742131842136852 12.480767430329484 275.9572792066267 85.07670560740442 1.2412480280446618
1.490045798037225 12.444073502359627 252.47633149665572 88.74045077195036 1.2692423963204493
1.5058664631385856 12.406947235486925 231.00466241191725 92.63822164249993 1.298940838384332
1.5216749983187847 12.369449043320703 211.37794071112296 96.61697477460686 1.3275250859143712
1.5374157375789146 12.331552859870145 193.44515025145026 100.85874535848396 1.3579989093232079
1.5531240141327096 12.293328500213056 177.07084083401213 105.19470289788946 1.3874329652323516
1.5687512146818738 12.254871666783961 162.126470057402 109.81132561995663 1.4187156437329012
1.584214372490744 12.215729599062911 148.48962712381257 114.54592988780499 1.4494458973267381
1.599577209569216 12.176458536725164 136.05958279227832 119.5829787083322 1.4820576535406285
1.6147541992842316 12.136553309433365 124.71473572969532 124.75287893724709 1.5140710661148402
1.6297379616159688 12.09627753224269 114.38281702682322 130.24632135644984 1.5479561939630078
1.6444980936832825 12.055534568902553 104.9622711906456 135.91148262134686 1.5816252301594345
1.6590232126383457 12.014480323042537 96.3814819314589 141.90572245873702 1.616968640972884
1.6732551922540402 11.972768546238242 88.56181618796323 148.13280350391693 1.6527113992668303
1.6871873163957778 11.930541926158032 81.43142039665571 154.68271309759237 1.689742650525606
1.7007920378005494 11.88784876031533 74.93970017615722 161.54510331368547 1.7277779759350704
1.7140238731327821 11.844452079669333 69.01320809495006 168.715901925945 1.7667331895575518
1.7268740600953598 11.800505919860795 63.61525369674691 176.29788378955934 1.8075485054446836
1.7393016948220255 11.755806010724621 58.68502432034099 184.16544590417124 1.8486920358163315
1.7513090009498413 11.710555246220826 54.19078181111337 192.48466199958912 1.8917920555705885
1.762835514357255 11.664643495674852 50.09321793468872 201.2191992977455 1.936293890182709
1.7738528063522883 11.617891910504007 46.35134598195483 210.37259671786336 1.98209947960186
1.7843469488632486 11.570321247182738 42.93042960052719 220.04594031560666 2.029981973851307
1.7942951704495431 11.52217670703341 39.81400698353598 230.19774897495202 2.0792753639131334
1.8036757603503446 11.473004562878826 36.96048883308915 240.88199991692332 2.1303933594284916
1.8124840796780182 11.423125895082304 34.35017140515304 252.17787671927178 2.1838489330810513
1.8206388419229262 11.372400048366439 31.968597481140495 264.0794497782951 2.2393430162514645
1.8281621996371098 11.320688512447589 29.786321726334986 276.61368896372574 2.2967880857709866
1.8350264172246569 11.268147861303591 27.788510865580882 289.8812913102479 2.3568924684312864
1.8412240132978008 11.214662727166354 25.95875165741804 303.92672872597217 2.4197754686173627
1.8466977474120712 11.16017754874831 24.283138593220478 318.7545213563912 2.4851501986426663
1.851450966062176 11.104740729594987 22.746540893080233 334.4488474949734 2.5534170360566892
1.85547158603823 11.048420623877627 21.339128325249714 351.0977597755944 2.6249703903797066
1.8587370245943613 10.991034501955872 20.04735565158915 368.7685453939826 2.6999829255512706
1.8612126414770613 10.932703390599732 18.86353240601637 387.536079421064 2.7786603840633264
1.8629485362381595 10.8734879986849 17.777764163780073 407.46471589880764 2.8610909084285976
1.8638728135224791 10.81326096220171 16.78206037319872 428.6484001622861 2.9475488072858
1.863977483913047 10.752025645795607 15.867243968175304 451.2114819871943 3.0385315238913435
