M[M_sun], R[km], Lambda[1], P_c[MeV/fm^3], rho_c[fm^-3]
0.23848912294887037 16.21570186450063 2784644.0411725277 3.4469561053153734 0.1694538074003404
0.24846903908458354 15.872886403605191 2285585.447974941 3.6324929075550343 0.17193146594958092
0.25874000107687173 15.569689058268137 1884793.7328543332 3.816874464978643 0.17421634759189777
0.26930019619296264 15.300179273512958 1560956.5779737458 4.0128061604278935 0.1766185067186487
0.28013678867859027 15.060552534763348 1298059.1097538774 4.216786147748769 0.17904912631875794
0.29126497963235437 14.846444438664744 1062739.1338025052 4.423466421476925 0.18137880577334098
0.3026752107359944 14.65482089286291 907454.4765646807 4.645120124278363 0.18387726422868422
0.3143629289510811 14.48321931545946 762729.8318511014 4.867473364455135 0.18624308451471727
0.3263478136823822 14.329299796812965 643025.5115498755 5.1007260732400415 0.1886783489328855
0.33859950858982296 14.190871574418004 543779.0398503102 5.347793679242982 0.19123377112354834
0.3511464351493825 14.066655325587556 461156.645290453 5.593350945430851 0.1936112062755964
0.3639721789170162 13.954741357044783 392150.89926989825 5.855912301968329 0.19615327154734463
0.37707516939636804 13.853904682832644 334300.743226817 6.126283760749467 0.19867857496020858
0.3904668048411813 13.763059235413579 285671.9555009951 6.402229549982628 0.20113947816898664
0.40414542947671817 13.681487131977207 244690.7927569842 6.697034300022597 0.2037685668655472
0.41809571905515525 13.607897407451606 210055.74601772573 6.993611402023694 0.20626945936978422
0.4323485243483976 13.541745947213903 180677.10770016443 7.30297223401391 0.20882002612511713
0.44687594638242817 13.482223609616021 155734.9769925351 7.633217298419792 0.2115427757277981
0.4616872711617969 13.428892276503642 134492.75496288892 7.9591990780877255 0.21405019218272517
0.47678172418035747 13.381080386838569 116359.1815961998 8.305502377467725 0.2167056171991165
0.49215770046157 13.3383826748435 100852.36521073576 8.670088964347666 0.21947037743723125
0.5078103540834312 13.300225098181434 87568.74380483183 9.033726456489099 0.22206702880955176
0.5237437560832006 13.266181822910143 76149.31858413544 9.421050392782018 0.22483281961067303
0.5399563771472156 13.236107595447638 66334.93255644139 9.822658679287258 0.22762585790076253
0.5564457259974414 13.209439219191301 57866.52394549401 10.22918158095167 0.23030995529851328
0.5732158098561522 13.186091844557588 50553.664059767325 10.66195102899252 0.23316734745171452
0.5902574338343711 13.165640408859552 44232.15422169575 11.10526487388634 0.23599240369966018
0.6075785544995822 13.147859433445328 38752.43699299856 11.559335527383487 0.23878129796356706
0.6251650110899485 13.132504655909704 33997.086215533585 12.042488691680521 0.24174881651628263
0.6430144805754788 13.119427232062561 29863.71744019709 12.532347885718966 0.24463232666073362
0.661137226739052 13.108367602102616 26267.84944621826 13.0394661260549 0.2475443293656352
0.679507500761725 13.099129210942095 23130.58939835252 13.578842717970737 0.2506415677800512
0.6981588976005715 13.09167973283637 20392.238688194568 14.12044281417722 0.2535972484823874
0.7170520774894711 13.085702016773482 17999.201851645677 14.686992105128281 0.25664391806284403
0.7361890654182032 13.08114994988363 15906.682869030317 15.289379897881664 0.2598833123982235
0.7555671981673682 13.077793522704129 14071.970104141521 15.888267246110612 0.2628941717211649
0.7752047444286476 13.075648644774637 12461.423691380058 16.52129832800897 0.26606023750945307
0.795066891367618 13.074502736248265 10974.143646374861 17.191091660143655 0.26939689455263116
0.8151676458063165 13.074215093252304 9803.931352655924 17.857438787387935 0.27252195298826165
0.8354964768437144 13.074780329564062 8708.78038102217 18.56499977494669 0.2758402976505068
0.8560424827161953 13.075991224724207 7743.718515888981 19.306219512545805 0.27927504668124337
0.8768016545017234 13.07790093828961 6892.460630762599 20.051887128216357 0.2825680212223756
0.8977635667571224 13.080269077916473 6140.2246794221655 20.843568255549517 0.2860641979936554
0.9189149004585448 13.082937975651744 5475.573151437562 21.66386113289154 0.28961103420175427
0.9402738015382944 13.086194334926457 4887.051622487161 22.499362726774688 0.29309269311492664
0.9618100382644597 13.089609925114397 4365.610953521555 23.386372437056185 0.29678899397955905
0.9835070552298112 13.093233644256028 3903.445459057695 24.294131647739892 0.3004380356745875
1.005387964405778 13.097038480727734 3474.3078837908597 25.231329001735045 0.30410047384450295
1.027401760619291 13.100815861504255 3128.743585569901 26.226314120904867 0.3079887386410383
1.049571216139509 13.10463449294061 2804.8122191900056 27.231988708429476 0.311755634965948
1.0718978717751733 13.10846534011018 2516.2348289893416 28.284679526203373 0.31565048303097837
1.09433149722309 13.11216474084946 2259.4068911753975 29.400183540838853 0.31977126026579
1.1168851158276478 13.115673711898518 2030.4113756001984 30.516745473631964 0.3236956906384891
1.1395475379735023 13.119103283661389 1826.230219959647 31.70146353883608 0.3278596724308307
1.1622813074399507 13.121996054102521 1643.6880908860637 32.935864112186735 0.33213234612369985
1.1851032992275532 13.124703496284479 1480.7283585425448 34.19491493739103 0.3363457717819769
1.2079993372692301 13.127078092715243 1334.8678544679601 35.53114395456967 0.3408174749996776
1.230928072781466 13.128960884717005 1204.405691490073 36.8976837143796 0.3452314199673588
1.2539073536649883 13.13045247389283 1087.5681208791082 38.320227157286645 0.3497399225079916
1.276905364720098 13.131366402957836 982.7615243083343 39.8275218168003 0.3545098064223766
1.2999126370124223 13.131680556947133 888.7331133127168 41.34551610383295 0.3591114326484348
1.3229238415928266 13.131479647018683 804.3236037776484 42.956383972399934 0.3639945945246249
1.3459177261264685 13.130634697369887 728.4739310774032 44.62593108316169 0.368960077167945
1.3688770900364144 13.129221961829938 660.3233193777174 46.348797093188146 0.3739675484895202
1.3917736093434439 13.12696166890171 598.9947616609093 48.17794827853352 0.37928393528346566
1.4146092973385511 13.124027579871136 543.7811686565216 50.02996422156227 0.3844645515765509
1.437347902427402 13.120252938802192 494.02862509874336 51.99092146720696 0.38993855825738977
1.4599813313969447 13.11560973820884 449.17115918418114 54.024515815711574 0.39549607976310713
1.4825070757530214 13.110221792477404 408.70419512863873 56.131911013117296 0.40112778731258186
1.504906768865898 13.10387570189414 372.1506596478203 58.36082391956316 0.4070656249485179
1.5271359579427342 13.096628256262367 339.1365288972816 60.63117308919718 0.4129209307240868
1.5491971690944382 13.088480857971781 309.2876397210066 63.04227460777272 0.41913924147382675
1.5710621494943222 13.079255492745531 282.2808024336779 65.52130599121692 0.4253750082280162
1.5927086546406903 13.06906118720144 257.83768276758735 68.12561244306016 0.4318695573127145
1.61413684161884 13.057814970396935 235.68732574038677 70.83929866880483 0.43853510708443805
1.6353103014055295 13.045452370401438 215.60689708531504 73.65967990611097 0.445342621254327
1.6562028213091398 13.032003805518292 197.39718741984063 76.62704172571061 0.45244386631334177
1.676829444002124 13.017503239967354 180.8752386233815 79.68895606861021 0.4595860044888996
1.6971319263962685 13.00178543423365 165.86131170338717 82.93233692140795 0.4671316652829947
1.7171112390068737 12.984873484663462 152.21548087975853 86.26476135349269 0.47468844869416377
1.7367434687766141 12.966702902689152 139.79522874829954 89.80819271426166 0.48272372267303204
1.7560015463473404 12.947411388262147 128.50851456973962 93.44476084123878 0.49075334026865164
1.7748665060852202 12.926783560304278 118.22101710824063 97.3124009158163 0.4992925815265824
1.79333225089912 12.904897943290827 108.85400435865967 101.2951689868522 0.5078655575241687
1.811362542668406 12.881743593456658 100.302790142412 105.5277663448261 0.51696729711611
1.8289448608762848 12.857215581834973 92.51067355092984 109.89180881501149 0.5261055199556539
1.8460601072560725 12.831375773688306 85.39401841494248 114.52598321229858 0.5357916004116007
1.862680661634729 12.80419093555365 78.89671641625046 119.32211928123938 0.5456066381195726
1.8788181828817307 12.77575128012244 72.95542039711921 124.39975299413314 0.5559521994721989
1.8943840041473319 12.745686365020376 67.52071916076582 129.68654286112744 0.5665409377361793
1.9094179224643715 12.714214923964409 62.54639269149748 135.25859571834036 0.577604836639973
1.923890107781059 12.681393885545024 57.99335226104645 141.10143092376254 0.5890562011179259
1.9377803725369027 12.647161768004763 53.82128722695696 147.2272858011686 0.600895099000034
1.9510296734824264 12.611366962914689 49.997414016888115 153.7014815801074 0.613312261114272
1.963691674078038 12.574211109115026 46.49078721019395 160.45058232205318 0.6260306700523722
1.975711819525825 12.535601525328245 43.26817305813224 167.5937700299224 0.6394073958666712
1.987055703433294 12.495372226369673 40.315612572716944 175.09699242976842 0.6532836873509095
1.9977189162224211 12.45374480314954 37.59584032258604 182.96372318097886 0.6676038003839463
2.007704372451384 12.410586710034046 35.09681554590891 191.29980106401405 0.6826741483660735
2.0167936636568493 12.366372919902432 32.83041087786417 200.2009331476532 0.79137792288575
2.0237219764490093 12.321664161654102 30.91935217807102 209.88633726485443 0.9800563176438264
2.0282195039246806 12.27536729191257 29.316495895465177 220.4232519074244 1.1750226212108785
2.030286733346522 12.226509379324032 27.961725769666817 232.0019412341488 1.37196036950658
