M[M_sun], R[km], Lambda[1], P_c[MeV/fm^3], rho_c[fm^-3]
0.23848912294887037 16.21570186450063 2784644.0411725277 3.4469561053153734 0.1694538074003404
0.24846594828535684 15.873010588164474 2285831.7274700818 3.6324143574631944 0.1719304169916155
0.2587316134933868 15.569884743222195 1885040.9703931848 3.8167202137576726 0.1742144564431614
0.2692864021940742 15.300541816826893 1561212.9171661302 4.012557606838771 0.17661545940529175
0.2801189429871968 15.060904441019238 1298405.154473032 4.216460367612635 0.17904545415751985
0.291242229112702 14.846839385754842 1063057.8916326936 4.423029930108935 0.18137388568612722
0.30264583295150616 14.655296475842285 907833.5520511768 4.644558105517397 0.1838709292092027
0.3143294939281384 14.483693344708799 763108.0728721328 4.866829638830011 0.18623636372627242
0.3263071759296223 14.32974564579697 643404.8077378027 5.099938336896361 0.18867012460700883
0.3385547258212953 14.19132125744121 544107.8577014108 5.3469215526804605 0.19122532737281367
0.35109473205269237 14.06711420209888 461489.43290238676 5.592315340339908 0.193601179759236
0.36391496327649914 13.955181648059638 392404.01433685014 5.854693680257913 0.19614147310156305
0.37700876679923034 13.854349417220417 334556.6423727294 6.124976520027891 0.19866691689905347
0.3903922787752059 13.763603729289654 285929.8234268313 6.400717342473383 0.2011259922001586
0.40406642068601156 13.681932409076754 244910.64121810687 6.69529366889913 0.2037530437994807
0.41801050852288374 13.608288653715839 207637.15931011573 6.99177883422938 0.2062543505195041
0.4322537775877601 13.54217049083917 180852.72395388232 7.3008865603936 0.2088028305100025
0.4467744820221302 13.482639223496067 155897.54080504127 7.630850602349469 0.21152326318550854
0.4615772663600596 13.429257026234408 134632.4143873375 7.956736622158714 0.2140313102746193
0.47666780170211387 13.381455995132013 116483.38495045803 8.302730938224178 0.2166843660325469
0.49203089846764736 13.338707356263829 100971.10212864382 8.6672138297073 0.21944984676459475
0.5076735406825873 13.30052774386588 87674.83505344392 9.030512424771326 0.2220440781511323
0.5235991398081549 13.26647408340805 76245.60078768247 9.417462453947893 0.2248071989678659
0.539801691267961 13.236393225151607 66421.64343052235 9.818961474623864 0.22760144683468153
0.5562815149975083 13.209746945081841 57946.31629266881 10.225076442032936 0.23028285081646796
0.5730445691484528 13.186332721638713 50625.8011349648 10.657396836851897 0.23313727806269988
0.5900685686200765 13.165805079137415 44295.08506883928 11.100595627835148 0.23596372526948933
0.6073845388250954 13.148146469295165 38812.00173212302 11.554178492310253 0.23874962354148377
0.6249603260275695 13.132691296943129 34047.47011627643 12.036795753211614 0.24171385058461886
0.6428034276261382 13.119601999934732 29910.185044889717 12.526530459954472 0.24459892151334522
0.6609147723932216 13.10850473071093 26306.622420240477 13.033068184552489 0.24750759074832873
0.6792865025013117 13.099315614017913 23166.72411081714 13.571808072119365 0.2506011730434437
0.6979124159068116 13.091831936357533 20426.528930500135 14.113270357349016 0.2535586779530713
0.716790458822177 13.0857632813702 18029.16744560374 14.679131154629635 0.25660164509711936
0.735922886028231 13.08122140476828 15933.353951217618 15.280764894445191 0.25983698444525516
0.7552866839334879 13.077876173323945 14096.912031568942 15.879500933956377 0.2628503275533276
0.7749153591876796 13.075698251327314 12483.70250536077 16.511718064526 0.2660123224144071
0.7947659690032635 13.07456626693617 11068.072514291758 17.181331740878807 0.2693511221364495
0.8148541229484902 13.074202697266053 9821.777345447204 17.84679975188406 0.27247205766150323
0.8351721556224521 13.074703672481204 8724.91684706776 18.553400862075584 0.2757859006567629
0.8557072544489547 13.076042864315907 7758.566901566067 19.294411874930756 0.2792229024694791
0.876446766968047 13.07778414674917 6905.556455895093 20.03904304403474 0.28251129991475094
0.8974037844706315 13.080128313953265 6151.908964231731 20.829593525283926 0.2860024835916663
0.9185461080836828 13.082943590329249 5486.231237837755 21.649638830899065 0.28955176776245545
0.9398890304256006 13.086097962517915 4896.7458442198085 22.483919198979404 0.29302833764679476
0.9613990175799519 13.089488400347602 4374.648054629049 23.369597657437435 0.2967190909878667
0.9830951330422578 13.093191769715949 3911.7942464588473 24.277065908158225 0.3003713451149361
1.0049573067828275 13.096925911844634 3500.6841174321885 25.212825168281764 0.3040281634120842
1.0269661611456644 13.10070028437211 3135.576452929425 26.206243545358827 0.30791030559632404
1.0491291333927277 13.104554113809968 2810.9025030730463 27.21157130777664 0.3116800926774783
1.0714380506543584 13.108380589032611 2521.832269201517 28.26256875588782 0.31556867544842343
1.0938600243759047 13.112075756303852 2264.5354914239124 29.377636386571176 0.3196920127700379
1.1164040889039497 13.115608023523778 2035.069992546765 30.49236339942665 0.3236099938672214
1.1390487470091115 13.118899623064413 1830.1733393379727 31.675085553765275 0.3277669605420029
1.1617869472917508 13.12197446913287 1647.4127314186403 32.908948353312866 0.33204227227856115
1.1845868984202683 13.124600254100658 1484.1393808744506 34.16583286604039 0.3362484483513642
1.2074736310902274 13.127021020694118 1337.9669727459232 35.49970591789391 0.3407122673085155
1.2303909561830597 13.128918438268164 1207.3000828317593 36.86558969145272 0.34512970357716594
1.2533560835401003 13.130353515692178 1090.1359247847572 38.28557236487084 0.34963009020696006
1.2763480965887881 13.131327806593202 985.1637402736493 39.79206578340321 0.3544023255085512
1.2993571247657074 13.131709410583534 890.9006775469145 41.30726962171467 0.3589954928081644
1.3223595345176946 13.131539501391622 806.2976873105068 42.915105262486726 0.3638694628322746
1.3453360609049123 13.130744256008015 730.3412270071146 44.58365552171065 0.3688372041991026
1.3682857503004169 13.129245260866195 661.992726511886 46.303209560942584 0.3738350493520292
1.3911810960622426 13.127042074387939 600.516976489583 48.128761117255 0.37914097390512375
1.4139916645958315 13.12412000280517 545.2091462381718 49.97953469356563 0.3843237776898289
1.4367428492237309 13.120410530652203 495.29658568983206 51.93655024076058 0.38978678113044124
1.4593719800927085 13.115774702356454 450.33399140024886 53.968648969858705 0.3953467837326605
1.4818990033730965 13.110407876159236 409.7626240007892 56.07171559650484 0.4009669238055389
1.5042790910923094 13.104168973551618 373.1428843827473 58.298838786492844 0.4069057632353857
1.5264987478723913 13.096828205845636 340.02953251630214 60.56442065035458 0.41274877397132115
1.548558625306124 13.08866940306387 310.1038370936984 62.97034309648038 0.4189537277215155
1.570424270955178 13.079577957831978 283.0396447793339 65.44714565517948 0.4251900691851505
1.5920710138158198 13.06937882482817 258.5264342937983 68.04573105225657 0.4316703512580043
1.6134948899309745 13.058121071420738 236.31830001588077 70.75675920569289 0.43833588275360036
1.6346654794039814 13.045860794321575 216.19919956535054 73.57080026650007 0.445128093729444
1.6555769802353173 13.03248387025376 197.937899841172 76.53502077926483 0.45222922075472727
1.6761804576602342 13.017960326076132 181.37202339333385 79.58988764502769 0.45935492017666146
1.6964981605540521 13.002224802518628 166.3022617870324 82.82956468753542 0.4668986134830561
1.7164761514339406 12.98540141865478 152.62482774373106 86.15413134345931 0.4744375781818279
1.7361103428837366 12.967372875291579 140.18379683074318 89.68902098470731 0.48245348250185033
1.7553616424233363 12.948057543684238 128.8633822022196 93.32097410598526 0.4904800354169904
1.7742526767867752 12.927524204474834 118.54884602003752 97.17905773534343 0.49899817729914614
1.7927150852988216 12.905720862167874 109.15477071840564 101.15638752629853 0.5075671231097142
1.810758427725339 12.882550430129204 100.58513419732253 105.37825813296654 0.51664579599136
1.8283326134807023 12.858088977216136 92.7740391383509 109.73591601167286 0.5257791909396846
1.8454647369157469 12.832311843268174 85.63299632495936 114.36305375943587 0.5354581739406665
1.8620980158030678 12.805154265497864 79.11726359705193 119.14665389356726 0.5452475575239242
1.8782209443856286 12.776622107541256 73.16245849745671 124.21604051572456 0.5555842477664124
1.893821088542599 12.746696981024952 67.70945908190345 129.48862945806582 0.5661445434635345
1.908871699503407 12.715405941413607 62.72383199569915 135.05102451932373 0.5771980181397935
1.9233567671754193 12.682630089515609 58.153826735550396 140.8777206097337 0.5886177515889979
1.9372612458671037 12.648398326855592 53.96951762945947 146.99227131833766 0.6004443537596755
1.9505466359370245 12.612750868169337 50.136908867915004 153.44806640143085 0.6128262243209344
1.9632141410693413 12.575655462092314 46.61850372551731 160.1839185895292 0.6255286453950475
1.975246005067308 12.537048183421499 43.38665223029295 167.31264320735613 0.6388874862163791
1.9866201705827637 12.496974470262838 40.423039856819734 174.79372665317894 0.6527228344148115
1.997311657813647 12.455420465002629 37.69973193451652 182.6682392867255 0.6671107385075197
2.0073192286248522 12.41236581719145 35.192728920598014 190.99965537712336 0.6822101880714262
2.016603446251612 12.367805171260024 32.89095060471767 199.74060207764154 0.6977993743714169
2.0251751909433997 12.32173447825912 30.769416048251124 208.97700508643587 0.7141182533842745
2.032999672501072 12.274109141726777 28.818238441546566 218.75434995926418 0.7312492747969362
2.040093186685241 12.225099063751689 27.01841365604015 229.05005901301652 0.7490507026459285
2.046402709212789 12.17450546975262 25.360649152376784 239.93624092613686 0.7676606893276164
2.051953164664488 12.122513047284613 23.834229051518847 251.49149257238255 0.7872491026543477
2.0566146136049355 12.069141697613308 22.43277363357214 263.7152773117988 0.860950403940748
2.0601231676404868 12.014630942089275 21.173205771728284 276.7962299013412 0.9593615016985031
2.06242888512647 11.958908366341864 20.039376689727153 290.8124703011572 1.0623251332703738
2.06345261817499 11.901505111365699 19.016157641816054 305.84036545859954 1.1703650062120265
