M[M_sun], R[km], Lambda[1], P_c[MeV/fm^3], rho_c[fm^-3]
0.23734021128685104 16.25392375742486 2847147.787615802 3.459686895933386 0.23198124504459966
0.24463367070106748 15.976011037565634 2445677.247719523 3.664974124807833 0.2869466914543818
0.2507902428615641 15.747413755441542 2148547.789401149 3.8904244028776818 0.34470825112790177
0.25589854124087225 15.553000414164714 1921942.101413756 4.135131360105234 0.40740347436486557
0.2600294245466002 15.38339549528541 1746007.8086100188 4.414335989959596 0.47893718470901187
0.263246274961545 15.232235164554217 1607189.3499062394 4.724183332924507 0.5583217210403635
0.2656092435889203 15.09515017710139 1496864.6857248826 5.068729888568959 0.6465963801117395
0.2671758225495627 14.968834798227945 1408377.4302187928 5.45911156594043 0.7466142410165502
0.2680162286772197 14.850484824660299 1336844.2089027045 5.884874937813884 0.8358499362894516
0.2685957220855363 14.721927329336737 1266530.8723048547 6.342802221497885 0.8794610876425683
0.26927901319793524 14.577786189265636 1191212.4882524111 6.847560948288204 0.9275322771418373
0.2701631899647655 14.41964104079937 1111779.2937729266 7.367830869047542 0.9713706409595706
0.2713545713087053 14.247529872031832 1028488.4806191607 7.913645022404989 1.0131175141158526
0.2728758451140428 14.064047467145173 943487.3342429886 8.513171311570376 1.0589725873009062
0.2747412322655457 13.871897185503173 858786.9402760124 9.10891887815343 1.1045386429671449
0.2769477955605752 13.673775989320674 762455.4990058806 9.75612025429128 1.1540401694299514
0.2794808093235057 13.471968371498093 697809.7787253584 10.434784064086825 1.2001757123172514
0.28241728519387965 13.265031178550775 622417.7719310228 11.12998015910225 1.2383525690950277
0.2857857422345236 13.055020516358809 551352.5510290312 11.888227622286278 1.279991906559152
0.2896063248675277 12.844166748381657 485130.4433506056 12.648540256237435 1.3164157144240722
0.29392705694375376 12.633273418618618 424064.2144880241 13.447958888428971 1.3524139258295633
0.29873181742699495 12.424620939785573 368593.4838058335 14.316861153917117 1.3915394520875324
0.30401724328682084 12.220436529184013 318923.9465856547 15.16145950708087 1.4287737477503595
0.30976818558194885 12.021967760247378 274983.3368400518 16.07599675652836 1.4690913143345727
0.3159606386508217 11.830443056574024 236459.7208734373 17.029833067649722 1.5078245159566823
0.32264905245281006 11.644919792520794 202589.06498099837 17.988981398089805 1.5401986996682677
0.3298453599968439 11.466700675654124 173081.68208945126 19.0249049864083 1.5751642826704297
0.3375333833764161 11.296250895401931 147632.96811166528 20.085150767987205 1.6109508139325128
0.3456787487697489 11.134487981447602 125751.79837265679 21.165907619523868 1.6474296564105568
0.35427401341064946 10.981502138560973 107090.05291023049 22.330366246350312 1.6867336892832647
0.36333580258809295 10.83668112267181 91125.94398640395 23.487348563371167 1.705924616724919
0.372991119530994 10.698822575630947 77366.42484752774 24.693995910847747 1.7179785733797373
0.3832270269175064 10.568780962624903 65609.8697181381 25.991058245562474 1.730935742012267
0.39405781583538446 10.44661151496485 55586.76848739569 27.245202547426654 1.7411301472048515
0.40545681705928277 10.332641363112037 47084.82191376367 28.57676033119345 1.7517298140253927
0.417406838431387 10.226664583822247 39890.59319877374 29.983495719257462 1.7629119706079066
0.42988474142723937 10.128786824441729 33822.448207881505 31.356802941333633 1.773727052793752
0.44288820657470707 10.03860557588655 28706.799954631853 32.82510266094385 1.7852902208058095
0.45636803141912646 9.955620713567983 24399.553804555628 34.347309470524614 1.7972649264280478
0.4703147631637128 9.879857061189544 20771.376551034693 35.86505912383403 1.8091751018231994
0.48470745648071667 9.810736650097482 17711.82499127797 37.48526065243945 1.8218892436707084
0.4995295440504255 9.747837184030459 15136.782088969712 39.1334577970583 1.8347860823867128
0.5147444703470999 9.690668242810645 12956.210897563818 40.8134836899551 1.8478957822351962
0.5303450099742073 9.639022262046891 11114.34350655111 42.60473156121723 1.8618733774887974
0.5463044763704115 9.592340040613099 9555.260251748648 44.39350907307572 1.8757498745914882
0.562617196883905 9.55024252246519 8231.262940481909 46.255872551284725 1.8901671827820339
0.579239381865193 9.512441098419282 7106.474538214556 48.23964383768879 1.9055243578718006
0.5961661743475336 9.478500037655628 6148.485847434263 50.18746956785139 1.9205196613820277
0.6133772785480871 9.448101616255256 5330.913617687608 52.25576027152979 1.9364405816638315
0.6308472072844409 9.421033163817972 4631.390898804066 54.41685437742976 1.953050976915692
0.6485693428199027 9.396887084228181 4031.927043460154 56.58302890831142 1.969617844508205
0.6665118329317157 9.375350172671347 3517.2074118037854 58.885615929864045 1.9872279926114493
0.6846547327885275 9.356330779499006 3074.551780463215 61.241188542734 2.0051759791759136
0.702990529557608 9.339473304790413 2692.7508515951895 63.660053133063556 2.023543794352924
0.7215002883838814 9.32458609968137 2362.841954559946 66.23046880526378 2.043062423127688
0.7401455428093837 9.311452372342437 2077.4536165984146 68.80391370582791 2.062455300366717
0.7589262200188606 9.299832913702454 1829.781908586215 71.5120344421556 2.0828390439552367
0.7778213233706226 9.289640950622754 1614.6819528141527 74.34552004558564 2.104127606563504
0.7967938789850075 9.280593259392617 1427.4554053181716 77.20954972054079 2.1255161059655516
0.8158532481323609 9.272596234315719 1263.9529128411148 80.25013818202159 2.148223141810518
0.8349625031734478 9.265506202019163 1121.2431069231313 83.3552699839636 2.171290506739851
0.8541046398758005 9.2591317955388 996.2910481112378 86.5807891415138 2.1951814384164856
0.8732550929644318 9.253382502788542 886.7819692570827 89.98444597401013 2.2203687779700285
0.8924023635532987 9.24814617409893 790.5428172060019 93.4189096814494 2.245589981664187
0.9115265407008918 9.243291057993133 705.948991302087 97.06383425637716 2.272356718186973
0.9306087599407611 9.238628881619588 631.3061379520719 100.80705577737359 2.2996947654485917
0.949621760198593 9.23416167966258 565.466815713617 104.70033125294374 2.3280324288322665
0.9685461743561189 9.229736195508414 507.2721908210883 108.79351897774502 2.357773036058627
0.9873671385605056 9.225345208831328 455.7803151098023 112.96657316647703 2.387870916802831
1.00607081084727 9.220791823916299 410.0622240657557 117.3961689976071 2.419819087385031
1.0246274618418845 9.216069868053237 369.50606098170016 121.92097621987828 2.452181420882284
1.043015476815408 9.211052454528827 333.4390899317161 126.68392312553257 2.4861841698166094
1.0612151665124505 9.205691755835806 301.32268048796357 131.6307630243598 2.521324162314292
1.0792294693447217 9.199915783282904 272.6666473050641 136.7691249970936 2.55764272446032
1.096999208989893 9.193617295956848 247.09379231605297 142.17175316999132 2.595738141578815
1.1145185723279012 9.186821659334601 224.25800913446585 147.73324972350795 2.6346605322099315
1.1317996791425793 9.179422149986863 203.7590747328571 153.6305186888764 2.6759142826678093
1.148800332645658 9.171375884167947 185.38934621945995 159.66935464101522 2.717758175746156
1.1654771365126873 9.162569723183845 168.91522860993766 166.08536187806163 2.762215538546645
1.1818394872880642 9.153058055460466 154.119611640021 172.68389665336704 2.807498498966087
1.1978584667067294 9.142724112900813 140.8019065608082 179.67431277514163 2.855424822701342
1.2134977227961437 9.131516394700025 128.8178705999384 186.8998324683928 2.9044876362569485
1.2288183616193649 9.119438394364947 117.96929733129303 194.5396390371882 2.9562635986037087
1.2436896118296787 9.106404924785496 108.20965849910726 202.45985108823663 3.009494767019297
1.2581700190005112 9.092369857403815 99.36611261905107 210.83535172393175 3.0656769710604905
1.27221781449803 9.077408520321594 91.37417835071872 219.5267815128804 3.1234108774923453
1.2857967552888154 9.06134882429059 84.13239719916697 228.73741189991446 3.1844900857070044
1.2989062304879926 9.044209634651411 77.56556425098945 238.29066130265485 3.2471536431557273
1.3115694733564611 9.02600765880261 71.59797554458166 248.42353452617942 3.3135061447502276
1.3236720457345312 9.006572282437972 66.18510720153311 258.97211485608557 3.3818992435487027
1.335346398120007 8.986136514640027 61.24810203662944 270.1289075361886 3.4539605898679437
1.3464171917743253 8.964471055729753 56.75854487267609 281.8270718550346 3.5288835643336443
1.3569558294535375 8.941566203029984 52.668585819594746 294.1432964127987 3.607260761251654
1.3669330572588496 8.917476409786934 48.93645815893211 307.15598866269846 3.689670354114713
1.3763581950968333 8.892122015279824 45.523128378834166 320.7888740314144 3.7750811908332524
1.3851505362983028 8.86555833822244 42.36769093945895 335.23811856748824 3.8652129755445586
1.3933999229396519 8.837742738500026 39.55899195421662 350.44492862206255 3.959217882084296
1.4010044145456542 8.808668550177003 36.952920956922284 366.500850210986 4.0577239414171835
1.4080189282325009 8.778316679453427 34.55924674135971 383.52455294062594 4.161600245457524
1.4143478951356792 8.74663434642317 32.33549306672066 401.4584395998388 4.269768521172142
1.4200408401733828 8.713687642545402 30.33087755989244 420.46170653370984 4.383564920490138
1.4250922684503633 8.679482864428625 28.520269815330664 440.6344902325586 4.5035937913355495
1.4294913844907424 8.643989725187886 26.823312013610472 461.97354236655934 4.629290569666955
1.4332472755215504 8.607260889702278 25.260991401211513 484.60848113695414 4.761323771643906
1.4363004425805672 8.569214481112947 23.82837081594791 508.67914988581043 4.900633512228548
1.4386833848526444 8.529952203956254 22.504423713232022 534.2868442477715 5.047652184969826
1.4403786540309733 8.489447788909617 21.293202411210988 561.4585332632778 5.201802841885589
1.441364489369923 8.447685909729739 20.17829462002844 590.4081868651604 5.364563757181795
1.4416836742603827 8.404773340529847 19.13015580869616 621.2814343054979 5.536543597763273
