M[M_sun], R[km], Lambda[1], P_c[MeV/fm^3], rho_c[fm^-3]
0.23848912294887037 16.21570186450063 2784644.0411725277 3.4469561053153734 0.1694538074003404
0.24844777995202116 15.87378327505326 2286172.1355885323 3.6320484062411484 0.17192553007881456
0.258694527046326 15.570841507123564 1886332.6154274307 3.8160016402321766 0.17420564659772747
0.26922387607123865 15.301994483028038 1562862.9259392063 4.011399828622646 0.17660126482844066
0.28003427483176896 15.06270044360291 1300300.0311937423 4.2149429668434895 0.1790283501672237
0.2911341122519201 14.848807658296321 1064835.8498288605 4.420997038480174 0.18135097113421816
0.3025149930162341 14.657402101654615 909709.6012880384 4.641940819717572 0.18384142742441872
0.3141736417806134 14.485967446862835 764878.9449828175 4.86383201945554 0.18620506721597727
0.3261240975714501 14.332039661973667 645033.384030902 5.09627042833312 0.18863182997257696
0.33834057732648476 14.193825473109806 545719.745642012 5.342860901365807 0.19118601297855634
0.3508519623909899 14.069343355129485 462903.7254959011 5.587493948416274 0.19355450003023023
0.36364089885963885 13.957281888743598 393741.25904079905 5.849020740652893 0.19608654886233448
0.37670847990119793 13.856530146226989 335782.6411369318 6.118891282720515 0.19861264834124176
0.39005956651332985 13.7657398242358 287031.4249969154 6.393678609376856 0.20106322030242058
0.4036996649968653 13.683958341878625 245893.1534582731 6.687192458497109 0.20368079665728397
0.4176098874073202 13.610312785304567 211161.6568873214 6.983249997507726 0.20618403338444868
0.43181537544813675 13.543993770235522 181670.64284564715 7.2911806484321025 0.20872280882070227
0.44630064232917055 13.484490263386265 156637.9124100791 7.619837957562981 0.21143246796266146
0.46106301246706066 13.431071662109105 135310.505689846 7.945278653706451 0.2139434515215562
0.47611789645590374 13.383192139400816 117097.09145302346 8.289836457562494 0.21658549222284393
0.49143862270904504 13.340220816578247 101519.74055249151 8.653837147174489 0.21935432696312604
0.5070417096205222 13.301980606158251 88169.98260457731 9.015560403797613 0.22193730922158186
0.5229316293924 13.267799035901566 76689.99526010762 9.400772575359824 0.22468802039833954
0.5390855036546967 13.237678781796468 66823.1890781461 9.801763539815651 0.2274878962035205
0.5555208031831824 13.21086573629987 58307.85598278335 10.205982779342138 0.230156783502346
0.572241224785764 13.187369036753987 50950.741737205986 10.636216629592363 0.23299743418439345
0.5892190304264421 13.16678053489529 44590.38876928604 11.078880467856727 0.23583035112465703
0.6064875783468643 13.148852514673596 39069.73963742709 11.530197121372998 0.23860233036732148
0.6240178641217508 13.133439403965903 34283.268579020885 12.010324961429426 0.24155126742978636
0.641810571899642 13.12022254172362 30122.660626580364 12.499480851235383 0.2444435957382275
0.6598708681490197 13.109041896908652 26498.608839701486 13.003322286173422 0.24733678218801705
0.6781860896348371 13.099714671917043 23341.00616516143 13.539105297096357 0.2504133853407933
0.6967704508123383 13.092260546886079 20583.391471922725 14.07992680009028 0.2533793699860031
0.7155954751555432 13.086108593633803 18038.176781320457 14.642590633527293 0.25640514517050284
0.7346781474936965 13.081491901430377 16060.2777592994 15.240723457470304 0.2596216580298176
0.7539922432279369 13.078015430886666 14211.418159838078 15.838755896412293 0.2626465437690875
0.773565303416652 13.075799351662285 12587.24645720049 16.467194502689235 0.26578964057470755
0.7933602104089154 13.074584975557725 11161.45972674223 17.13506338161457 0.2691299454492909
0.8133911288787161 13.074198767420274 9906.51692293349 17.79736030798648 0.2722401948007088
0.833654381629222 13.074660767564048 8801.498129035348 18.49950664174926 0.2755331456271749
0.8541373002551069 13.075899402848748 7828.010699217573 19.239547137088664 0.2789806119621229
0.8748210497954655 13.07763926646566 6968.383986682757 19.979368777443604 0.28224776984248323
0.895725827579282 13.080009113710126 6209.050744959778 20.764673325973963 0.2857157867323147
0.9168122926874108 13.082695368924188 5537.611607912634 21.583567560996602 0.2892764389929538
0.9380932037721774 13.0858643889051 4943.556701815857 22.412182439146452 0.29272939994146535
0.9595560634359079 13.089248976652598 4417.10758803757 23.29168584000065 0.2963944209027272
0.9811834499165536 13.09280515834159 3950.0864153657694 24.197801350862573 0.3000615901429192
1.0029864149688414 13.096529390347731 3535.620910575209 25.12689079990157 0.3036923437370483
1.024967418742251 13.10045239725197 3167.3798784332266 26.113043737554893 0.30754609358476126
1.0470504693815985 13.104194664394498 2839.615437833887 27.11675917529678 0.31132929751094357
1.0693111919260763 13.108030282773221 2547.8814164066234 28.159904966210483 0.31518882995549985
1.0916856090871985 13.111743032464954 2288.2074978479795 29.267198201228677 0.3192857013644781
1.1141657037617725 13.115186331630708 2056.5522964961115 30.37916473595648 0.3232121294406956
1.136770621207264 13.11858059348024 1849.8516951994611 31.552634978201798 0.3273365780045169
1.1594439509417975 13.12162348893674 1665.3106421005666 32.783999206596064 0.3316241287610658
1.1822110776122665 13.124402226494004 1500.3891801551279 34.030843248249305 0.33579670430115105
1.20502575074306 13.126672244761313 1352.769266426317 35.35379845243967 0.3402239865764177
1.227893792117714 13.12865892384801 1220.764675994991 36.71663510727731 0.34465761808512546
1.2508239506027883 13.1302505481356 1102.4550004755663 38.124752452131 0.3491203996321048
1.2737742173663669 13.131232058819556 996.3114163150451 39.61928955320229 0.35385707347559753
1.2967334625009614 13.13171106755663 901.1398675702808 41.14503678215779 0.3584245058109847
1.3196447495272694 13.131579557284008 815.8173679675617 42.73173277020432 0.3685176256550782
1.3423437394195459 13.130588001553772 739.6370263343005 44.36585507201384 0.38941584064263685
1.3647088121632476 13.128568388482972 671.7354693933344 46.10008269173885 0.4115942673088926
1.3867307464872685 13.125452177442162 611.0586889509633 47.942067484891574 0.4351507625409162
1.4083900074233033 13.120836132805712 556.6768656117197 49.82573683236642 0.45658461843255727
1.4297271011773265 13.115016893659375 507.77698128552424 51.806903031951286 0.47840269922392603
1.4507446141137474 13.107696391548554 463.66053221660025 53.88311239778598 0.5005720869979208
1.47148541101197 13.099147641108026 423.82677827620023 56.03019537780331 0.522083371703955
1.4918919744449552 13.089126155781434 387.8159589228324 58.31237001436278 0.5449481183452445
1.5120159257116688 13.077699072386364 355.1430633768199 60.64713167527259 0.566488916196302
1.5318305844600757 13.06488402727885 325.49381553358944 63.12334036340592 0.5892148461283576
1.5513289959724492 13.050670647270863 298.5845723735722 65.69418488919692 0.6118505173551755
1.5705345144709808 13.035078177986803 274.08606460699235 68.3850154252003 0.63487582691083
1.589416243448513 13.018065042397684 251.78244498286594 71.2119497118795 0.6586302144128966
1.607969925925751 12.999628823160378 231.45725946448195 74.14184286540414 0.6823060222600613
1.6261911522805677 12.979793597092113 212.92735511151903 77.24683849754308 0.7072661136186735
1.6440587358671197 12.958598034081653 196.02650874904356 80.4442826600875 0.7319012495761206
1.6615583235851275 12.935888096860445 180.5766065282191 83.84801286715967 0.7581257439381945
1.6786831641411604 12.911841000114594 166.47989562311326 87.34990340530875 0.784051793605613
1.6954021427112833 12.886319658928054 153.5865240750435 91.07446108645534 0.8115868156048778
1.7117316481742884 12.859369885954456 141.7918148388445 94.9250847785987 0.8391673204789636
1.7276484011485005 12.83105013436142 130.9921931647672 99.01073108973156 0.8683038977556701
1.743098479636913 12.80118916730254 121.10825086250132 103.2470735514523 0.8978690361155022
1.7581031501012143 12.770075462926552 112.06763800400181 107.74071119503104 0.9291097998082379
1.772596607284005 12.737277823592231 103.7740072950466 112.40444320275891 0.9608877318879355
1.7866217586715072 12.703068729309457 96.17026604745402 117.3606172236345 0.994570387164418
1.8001142203528764 12.667444704382136 89.20501442107552 122.50111131281741 1.028897759696528
1.8130750438732468 12.630345508019634 82.80652041089468 127.96348755024032 1.0652983437505612
1.8254654486445576 12.591637685876703 76.93351313249592 133.6582231702336 1.1028054333420176
1.8372848644278903 12.551643808189159 71.55197276355119 139.6864473340248 1.1423550381929215
1.848504745056317 12.510030660298082 66.59902713320922 146.01700614009792 1.1835692860582057
1.859099299191065 12.466969477800713 62.05477759653014 152.6857074134639 1.226777740716665
1.8690487070391346 12.422286763566536 57.87318017491306 159.74410182922867 1.2723612098005654
1.8783430863946862 12.37612761549566 54.026900136706885 167.14032639236163 1.3198368834032705
1.8869508604045464 12.328403139783466 50.492945538639816 174.9900144450408 1.3701262119454929
1.8948594871713933 12.279199482394164 47.237725684254976 183.26221361612258 1.4229353982368182
1.9020486488982358 12.228532482640485 44.24903517656332 192.00135216754842 1.4785925969899383
1.9085083308510014 12.176283122051867 41.49115757558654 201.2786343572887 1.5375873888752118
1.9142133887440762 12.122464477928983 38.951799686403135 211.0643535252238 1.5996623674147463
1.9191370768893659 12.06715422110976 36.6129256659407 221.44113549295906 1.6654094897513598
1.923293185794896 12.010371629461329 34.45854928529544 232.46993751125905 1.7352236553631868
1.9266363065785193 11.952063895673051 32.473545046377915 244.15339109108257 1.8090976540660975
1.9291598029573602 11.892189781529304 30.64132030140092 256.5559531420351 1.8874487156827948
1.9308890021374403 11.83099411200635 28.954643355292493 269.7622933927744 1.970826386099877
1.9317317269270675 11.76826870968398 27.401859351657336 283.83032938187057 2.0595928722476673
1.9317891511202543 11.704162174436895 25.965357213672707 298.78236630895674 2.1538613735187173
