M[M_sun], R[km], Lambda[1], P_c[MeV/fm^3], rho_c[fm^-3]
0.23848912294887037 16.21570186450063 2784644.0411725277 3.4469561053153734 0.1694538074003404
0.24847432060796276 15.872867189973126 2285357.3325772965 3.632587999520511 0.1719327358077351
0.2587501691401646 15.569418512866354 1884517.9110796263 3.8170612056779443 0.17421863706769766
0.2693158837506424 15.299863668990584 1560471.9130387425 4.0131070762113685 0.1766221960022738
0.2801594122362102 15.060011292310124 1297590.2226519345 4.2171805697273825 0.1790535722040059
0.2912926908498937 14.84597303301003 1082999.502406473 4.423994899185636 0.18138476272142307
0.30270451055477837 14.654328312183685 907073.3783364206 4.645800606470859 0.1838849345561638
0.3144055567190769 14.482745569979489 762294.3826374894 4.868252793130103 0.18625122210475228
0.3263948305110043 14.32873733038048 642640.7430377101 5.101679904037159 0.18868830736043504
0.3386546938916221 14.190289016187538 543373.5687889673 5.348849714328799 0.19124399543893428
0.35120800272510333 14.066029499488076 460788.9502171015 5.594604975153661 0.1936233475345011
0.36404335025380474 13.9540382145345 391784.1046340699 5.857388001058228 0.19616755896365545
0.37715427335346285 13.853365448756152 333986.1258816591 6.127866798337859 0.19869269259647226
0.39055459311926316 13.762582665334358 285389.04343798105 6.4040608615156955 0.20115580992907808
0.4042414854632568 13.680894296719863 244425.7682318823 6.699142312586639 0.20378736626414434
0.4182028625095223 13.607357094445764 209820.9054727207 6.9958307824176 0.20628775734827656
0.4324622289756112 13.541252565604411 180467.11891980038 7.305498235377747 0.20884085208120562
0.44699915758032127 13.481729406100117 155534.09511050285 7.636083757147384 0.2115664086301571
0.46181818889708715 13.428541367913095 134325.14946483623 7.962181544590367 0.21407306148883876
0.4769271190420107 13.380696906370284 116197.39666207368 8.308859199878531 0.21673135703532712
0.49231069756562884 13.338012105005687 100712.29473313138 8.673571410590764 0.21949524478180266
0.5079766656152388 13.29982195996332 87432.70288228472 9.03761952658114 0.2220948283242209
0.5239184417959654 13.26583461231126 76036.77151419605 9.42539652922527 0.2248638543675492
0.54014065738023 13.23582133108921 66230.88770189487 9.827137192990843 0.22765542761732308
0.5566422861367503 13.209127479350038 57774.150592035825 10.234154420740486 0.23034278883945758
0.5734248443860326 13.18581369468943 50471.32189210076 10.66746804938182 0.2332037739851512
0.5904763257118913 13.165405100343374 44158.419924270886 11.110921285581231 0.23602714528449653
0.607808992983433 13.14761714254435 38685.13267688269 11.56558309402266 0.23881967041205976
0.6254096673848011 13.132310881692948 33936.83091717132 12.049385756454457 0.24179117817131954
0.6432679298318759 13.11924928495358 29810.414942355048 12.539395770346594 0.2446727974177821
0.6614088878558282 13.108267551506401 26216.608875453658 13.047217615133704 0.247588840399491
0.6797957253949498 13.098990728431696 23085.222342567806 13.587365953696738 0.2506905103806411
0.6984526845704401 13.091496490231949 20350.74069016869 14.12913301020732 0.25364398079026595
0.7173634256725143 13.085618087564416 17962.483183548888 14.696516864736143 0.25669513831114704
0.7365148788811409 13.081052581527404 15872.778515312111 15.29981873699771 0.2599394481909923
0.7559110303469011 13.077796055489612 14041.925260796494 15.898889392397717 0.2629472977285909
0.7755477628223414 13.075617826656984 12435.439596189677 16.532907213777698 0.26611829863334335
0.7954342401148006 13.074500018479362 11023.533647848422 17.202918200066417 0.2694523590798106
0.8155456829913112 13.074210043580257 9781.937478799047 17.870331117993892 0.27258241589845933
0.8358850432305238 13.074793066753255 8689.213121069162 18.579055867831375 0.275906218414393
0.8564454607149823 13.076013990941238 7725.587879080331 19.320528478300567 0.2793382371148228
0.8772163146700678 13.077894118648294 6876.395807672957 20.067452751075493 0.28263676123295783
0.8981997167256716 13.080301244028272 6125.606000188667 20.860504822888362 0.28613899229059003
0.9193695522659218 13.083087832314295 5462.336757733609 21.681097644444556 0.28968286129881776
0.9407377136766164 13.086265813189428 4874.757583171923 22.518080086385822 0.2931706911252216
0.9622903025188817 13.0897023795744 4354.757155247574 23.406704149645147 0.2968737192378633
0.9839958921654413 13.093305195769656 3893.7938322277273 24.314815877613952 0.3005188667958909
1.0058893333698664 13.097111945014982 3484.405549511984 25.25375723310552 0.3041881202834357
1.0279299357206129 13.100847061200406 3120.486989697729 26.250642473743522 0.30808381049294614
1.0501294775937526 13.10482770179074 2797.253128682989 27.256737277648256 0.3118472021339203
1.0724630768914476 13.10876345853889 2509.683288746333 28.311481890414232 0.31574964902979047
1.0949062240719871 13.112248282325572 2253.2856027761554 29.42751470141669 0.31986732232338183
1.1174699213022354 13.115781551565503 2024.844801269593 30.54630221984593 0.3237995750618726
1.140132186762108 13.119010685232485 1821.03045015846 31.733441275765397 0.3279720660190141
1.1628806310078912 13.122065342550863 1639.161419100495 32.96849356740906 0.3322415409084513
1.1857150472777482 13.124737260486276 1476.54528559047 34.2301722122075 0.33646376059019556
1.208632189133863 13.127157269795925 1331.0795698698062 35.56925927219764 0.3409450282755678
1.2315696259019946 13.129026875463763 1200.9728558399904 36.93659407963469 0.3453547395619091
1.2545542072329197 13.130349076107878 1084.344360431473 38.36224418001011 0.34987308810981776
1.2775758641785397 13.13141220899601 979.8921477674165 39.87051004721323 0.35464012033078185
1.3005918146504272 13.13168148181012 886.0800302599482 41.3918898169055 0.3592520092606772
1.3236244658727945 13.131536964958968 801.9150174035072 43.00643672574499 0.36414632372706435
1.346631490801034 13.13071929032228 726.2842517673652 44.662490156190785 0.3690251689797846
1.3696017998414318 13.129171808097603 658.3062468299789 46.35741659348656 0.37386439022475665
1.392531152027212 13.126868871381664 597.0640900022481 48.155772931649906 0.37899891642375505
1.4154009145993247 13.123963087822487 541.9788524381592 50.065438787535214 0.3844512448418203
1.437997923819179 13.120111338321884 492.69672421422024 52.08029555969033 0.42549135272452476
1.457765298222366 13.113655776179904 452.618596013909 54.23319638886478 0.5449640088587997
1.474418380182585 13.102552223550733 419.89955288725696 56.57508295455944 0.6592397858774315
1.4881321401662497 13.086125248444588 392.844218992085 59.084100681397985 0.7783453420166316
1.499437106511404 13.064510452501898 369.7561551957623 61.86559274093203 0.8815925565690983
1.5087511449059303 13.03765029498033 349.5401891384508 64.84306021939916 0.9921142539144383
1.5162663707312245 13.00595773749515 331.6642344841113 68.05755166195765 1.0934345852373886
1.5223823631089173 12.969685541615194 315.41004646787155 71.5147367132654 1.1966583036924334
1.5271503946829779 12.928859267858444 300.56847539912826 75.21043815237199 1.2979784655994118
1.530885438437222 12.883879847389167 286.7196321885522 79.16366634387613 1.396521947098734
1.5336480653172464 12.834922184713365 273.78132850644266 83.3905768244784 1.4974482729109098
1.5355799041963902 12.782100675217166 261.5086971855902 87.8702858597761 1.5928219914633108
1.5368241634212245 12.725832773670293 249.83150905200918 92.67409018915738 1.693351368985486
1.5374950674482923 12.666191166446911 238.6174931667506 97.72459692608179 1.789138153681962
1.5376266261366758 12.603334085865704 227.8337955524513 103.1538205810744 1.8913346359705978
