M[M_sun], R[km], Lambda[1], P_c[MeV/fm^3], rho_c[fm^-3]
0.23848912294887037 16.21570186450063 2784644.0411725277 3.4469561053153734 0.1694538074003404
0.24847240550448346 15.872805475423519 2285272.1906865677 3.6325283749058577 0.17193193958060143
0.2587449057121915 15.56952158553921 1884614.8661583168 3.8169441146962475 0.17421720151042502
0.26930630046114357 15.300176742002067 1560838.0791264602 4.012918393369991 0.17661988271544987
0.2801456665248257 15.06029813464607 1297834.0363677589 4.2169332544685965 0.17905078449104808
0.29127650234372954 14.84619069343211 1083213.4058346837 4.423663524414173 0.1813810274980129
0.3026867409087955 14.654731691485146 907351.6373311764 4.645373916354216 0.18388012494767875
0.31437766685704294 14.48307779324005 762587.2667920612 4.867764057315759 0.18624611948045797
0.3263620160825655 14.329130339464305 642903.92701088 5.101081806292223 0.18868206294782172
0.3386202554069911 14.190703138046059 543642.3617264684 5.348187526975187 0.191237584276617
0.3511699648931686 14.0663520260087 461022.16561112116 5.593818629678553 0.19361573429868364
0.3639995428872657 13.95451992354344 392011.622869786 5.856462650087273 0.19615859990510068
0.37710397877631496 13.853686113505375 334191.8804549971 6.126874136597316 0.19868383997194292
0.3904968665260869 13.76293315172614 285570.804089222 6.402912508573244 0.20114556883988177
0.40418179434226364 13.681221310358305 244584.354378913 6.697820440169924 0.20377557771654253
0.4181369234271842 13.607641467582045 209946.9367338679 6.994439071091283 0.20627628319810995
0.4323900136537447 13.541540770936441 178434.30142549778 7.303914239049109 0.20882779261161988
0.44691971838501077 13.482097415901412 155661.55338993124 7.63428625447451 0.21155158887896056
0.4617376753814304 13.428757667219251 134421.44762353454 7.960311292176248 0.21405872054823463
0.4768352829504963 13.380922393179842 116298.28675618114 8.306754179707008 0.21671521591500434
0.4922151083615255 13.338222309463424 100802.99089685586 8.671387610011555 0.21947965076607706
0.5078704086980466 13.300051207649298 87520.30291180783 9.035178210499895 0.22207739544975214
0.5238097701368634 13.266039060371643 76106.77261798378 9.422671077672062 0.22484439254727825
0.540025170526443 13.235979260706696 66296.14987191514 9.824328725220782 0.22763688450203381
0.5565163710722514 13.209379890211704 57835.92789797233 10.231035938235502 0.2303221988290491
0.5732934767198431 13.185951462599522 50523.83247997477 10.66400828255919 0.2331809306199006
0.5903395450424114 13.165555545444091 44204.207600742004 11.107374103687398 0.2360053585533776
0.6076632137013875 13.147806337433549 38727.37915916787 11.561665163530732 0.2387956065493301
0.6252552959104967 13.132436612673349 33973.94397668896 12.045060482630818 0.24176461241274502
0.6431075282930088 13.119297964190213 29842.857005543126 12.53497591441716 0.2446474174740174
0.6612410994655089 13.10835978886391 26247.755545645472 13.04235647740543 0.24756092650271566
0.6796158368463933 13.09904466385539 23113.05767257995 13.582020792128509 0.2506598170951176
0.6982690059801612 13.091708390057509 20377.80738031403 14.123683144738411 0.25361467365034557
0.7171653604860999 13.085685054703637 17985.859028045656 14.690543572375564 0.25666301639621253
0.7363085930091258 13.08120799591641 15894.494901179336 15.293272140330247 0.25990424328077383
0.7556955741637892 13.077804356112022 14060.704503492048 15.892227841158391 0.2629139803922406
0.7753294646159634 13.075650898733175 12452.15037375437 16.52562678001977 0.26608188599436877
0.795204096591018 13.074475361947563 11038.3818483543 17.195501271589787 0.2694175749050844
0.8153067084613668 13.074234654761135 9795.83202187094 17.862245719351378 0.2725444967085955
0.8356433877278805 13.074821013586217 8701.34492706023 18.5702405428025 0.27586487598982484
0.8561905133544266 13.076060776072689 7737.103047635642 19.311554572092422 0.27929860706511045
0.8769510500760871 13.077918414475665 6886.481453474286 20.057690645762435 0.2825936503835818
0.897926334733181 13.080266668848639 6134.764898827013 20.849882825843135 0.2860920840366833
0.9190832917011018 13.082983729535172 5470.422003545316 21.67028754593807 0.28963781401692995
0.9404404409158543 13.086187203561822 4854.578866397479 22.506341152467577 0.293121773248575
0.9619912966325478 13.089662076812902 4361.508865562679 23.393952630437735 0.2968205817683121
0.9836932216863458 13.093288335767587 3899.8724705751583 24.30184328643868 0.30046817169642176
1.0055695875880724 13.097060443044516 3489.9325226450605 25.239690725050284 0.30413315030747573
1.027605825194473 13.10083782606816 3125.653445299125 26.235384109697787 0.3080241829079414
1.0497843228035384 13.104810146818343 2802.0979409590427 27.24121538403199 0.3117897727194178
1.0720953053563023 13.108507834437251 2513.768592465092 28.29467173570241 0.3156874531813545
1.0945467422902055 13.11215931308184 2257.085560064619 29.41037291462666 0.3198070733154716
1.1171068682848986 13.11569983237904 2028.3704369050322 30.527764400400777 0.3237344193552902
1.1397581806835633 13.118947343223677 1824.2011297547244 31.713384835139315 0.32790157274636206
1.1625137056182193 13.122067081927588 1641.990140776633 32.948028397015044 0.3321730540195085
1.1853380124722817 13.124771543563387 1479.1705725971706 34.208058665132185 0.3363897573928842
1.2082350970608666 13.127089121815168 1333.4054879344942 35.54535291279699 0.34086502541462027
1.2311646901091229 13.128888778935027 1203.0719992751026 36.912189091510335 0.3452773922221766
1.2541514971248768 13.130439796326684 1086.3637251026091 38.33589040576878 0.34978956443346554
1.2771552667398658 13.131352035307536 981.645043948171 39.84354714774869 0.3545583853819968
1.3001674330487516 13.131707202068148 887.7780833179601 41.362803202462494 0.35916383651260325
1.3231815945356686 13.131507773873485 803.4460969075876 42.975042219093446 0.36405115486747375
1.3461710181353441 13.130662429581825 727.6926386484577 44.645039846357626 0.36901561635853647
1.3691366258620399 13.129152082670577 659.5587905425895 46.36940355779056 0.3740274407155756
1.3920353198522275 13.12690408738156 598.3241311193626 48.20018259224072 0.3793485588163439
1.4148776580998654 13.12394739211585 543.1329677168627 50.05276005935416 0.3845281860941547
1.4376178996290208 13.120157142986091 493.4457325172995 52.01549991681112 0.3900071689308946
1.460269883375172 13.115646627459657 448.6588511498199 54.04977030532214 0.39556356871817977
1.4828151590314487 13.110268158131197 408.21248660658665 56.159123154850235 0.4012005078085873
1.5051874573129103 13.103822193745646 371.7308370264217 58.388845096017256 0.40713789249155685
1.5274246227722983 13.096554617174322 338.7177857615676 60.661350432273316 0.41299875909232564
1.549472122135846 13.088314669695826 308.928453700425 63.07479445215512 0.4192231112305935
1.5713516828596437 13.079144731378477 281.93650460118647 65.55483346630965 0.42545861813979197
1.5930026492448315 13.068899755854636 257.5221395226542 68.16172767416452 0.43195962050053416
1.6144279581012293 13.057701083046696 235.40659084800353 70.87661568068572 0.4386251786264682
1.6356080962382482 13.045317046776246 215.34992840918218 73.69986484984945 0.44543961508278446
1.6565083924112038 13.031875035605252 197.15989479326782 76.66864703367526 0.45254091372389693
1.677121244161151 13.017281566136711 180.6527891279209 79.7337494058619 0.4596904882099213
1.6974328887291434 13.001604267279847 165.65561348546612 82.97880508281152 0.4672370389646485
1.7173904743877875 12.984614247629313 152.024297081809 86.31478427569476 0.4748018833410339
1.737012371310072 12.966433810572797 139.62534544405037 89.86051467821694 0.48283979554275075
1.7562855544910283 12.947076090951063 128.34811727382427 93.50073519675102 0.4908769242932144
1.7751558282813928 12.926445757332768 118.0718652379639 97.37269892243309 0.4994257116048587
1.793616933713579 12.904584020449773 108.70991385653168 101.35792658501906 0.5080005109032929
1.811635383163223 12.881330898237735 100.18080699725991 105.59490762363431 0.5171108549841498
1.8292064751265293 12.856795282759162 92.39684669912432 109.96230762647421 0.5262530944894294
1.8463250082040576 12.830940001560512 85.28673476487769 114.59966486813326 0.5359423860065061
1.8629362933806246 12.803692416863008 78.79456280988695 119.40147333651709 0.5457690319786365
1.8790548630988173 12.775116103811545 72.86405810789634 124.48283769799501 0.5561186071042529
1.894629234016097 12.745119192601358 67.43609771606917 129.77605376936893 0.5667202162025049
1.9096567448872017 12.713700936625706 62.47034059857615 135.35247577005208 0.5777888320209076
1.9241129306425817 12.680779864239616 57.921060409197196 141.20261474016698 0.5892545111369801
1.937992037422291 12.646481504834735 53.75547503336455 147.33816195799494 0.6011148956740161
1.9512403067342143 12.610764104680218 49.937214871158815 153.8378854963472 0.630540314768119
1.9627099780328903 12.57437555636797 46.65130203813555 160.86257247152705 0.8109167635051704
1.9713049035313883 12.536349888099277 43.94989650427817 168.48060595341713 0.9975459731029518
1.9771010867750904 12.495327647774134 41.69614933604726 176.89668872606705 1.183112798028825
1.9802781662299647 12.450772876788644 39.792415744457294 186.11263082422707 1.3689512551475387
1.9810678818347953 12.402589654719256 38.17095231517624 196.13303624590628 1.5597936370043906
