M[M_sun], R[km], Lambda[1], P_c[MeV/fm^3], rho_c[fm^-3]
0.23841724892012095 16.20908015294055 2780876.1263280716 3.453507347168396 0.169602847481901
0.24840766975822412 15.866454794751274 2282473.7401472023 3.6354411368850115 0.1719770995961524
0.25867968930484125 15.56345761410629 1882226.7343243626 3.8245452534807534 0.17437220833779252
0.2692383770258779 15.294106262562183 1558767.698387741 4.019909580065965 0.17676212019854545
0.2800856678695566 15.054451809848967 1296050.8737513307 4.221888731516237 0.17913944684224398
0.29120612458771644 14.840501836940806 1081881.8687594167 4.431839521248028 0.18154058790117766
0.30262022894300045 14.649173046792859 906178.3893484324 4.650109145595682 0.18396942964698249
0.31431138837693384 14.47779944678347 761652.1972950209 4.87704803031845 0.18642729659738214
0.32628895314642475 14.323992962537618 642145.5029682099 5.109971189507912 0.18885454303160945
0.33854752733914123 14.185787251985712 543046.2590479032 5.352113022609299 0.1913042048044237
0.35109001646835725 14.061435169710839 460505.5600041578 5.603943723401946 0.1937837992662858
0.36391633599389633 13.94972580176465 391597.1597148432 5.865875127600682 0.19629899910990445
0.3770283475495477 13.848976485243535 333809.6183429957 6.134728295157073 0.19878862617077345
0.39042464713268243 13.758426704785139 285268.82334743516 6.414064883312145 0.20130961559150598
0.40409633935849026 13.67668656129736 244334.3513843982 6.70462939026794 0.20386533524918093
0.41805728378542717 13.603218469128363 209737.33828566363 7.006418269848312 0.20644548521975373
0.4323017548329737 13.537210405411619 180425.719834791 7.316247508167018 0.2090037693214042
0.4468288141212018 13.477799233372881 155511.08521596473 7.638607458479943 0.21160653483878492
0.46164083096960273 13.424549895910118 134307.87724527554 7.974031509746856 0.21425386857645773
0.4767349797334593 13.376794709512549 116201.90712403454 8.320452714621625 0.21690615746628203
0.4921116051701427 13.33412054843311 100714.61581572262 8.678086020550962 0.219557883697914
0.5077662061956447 13.296088977353211 87449.17088152867 9.050305999965529 0.2222576159066393
0.5237025338496502 13.262122810402264 76048.49286163617 9.437716256883286 0.22500832842472618
0.5399199954290691 13.23208387994924 66244.56863559932 9.83472737529711 0.22773076271104473
0.5564099692175487 13.205497161554131 57787.091198636444 10.24784709874761 0.23050219187351056
0.5731778795999759 13.182125396406999 50486.602517022846 10.677874389661666 0.23332430657236516
0.5902277692029377 13.161805707962733 44171.116828662096 11.12159981667491 0.2361474784394549
0.6075418427427236 13.143992350964867 38698.00771682156 11.580287230359763 0.23899103767664248
0.6251249651767494 13.12862698870404 33949.75963160611 12.057797935468653 0.24189392991806558
0.6429811757379117 13.115615905216497 29822.579375786412 12.553526487477866 0.24484155541851246
0.6610980838073034 13.104643560063735 26229.724734640557 13.063003430989625 0.24777170044000402
0.6794834971854494 13.095538982840935 23098.479315652676 13.593414571088369 0.2507604830547598
0.6981098651305904 13.08791656825693 20364.88506314698 14.145663711233356 0.25380947522867814
0.7170115389040898 13.08200490623615 17842.609240359132 14.713362740605127 0.25685087580290605
0.736158287387166 13.077538160604773 15884.08857224469 15.302852048391687 0.2599443905680587
0.7555413966134545 13.074215585039008 14051.4971663523 15.916566403488508 0.2631040045984198
0.7751756089938973 13.072095181166487 12444.028627227293 16.551124367172495 0.26628411302492994
0.7950454829556284 13.070948756612212 11031.342344953591 17.206569181069817 0.26948229198766344
0.8151482239910824 13.070744853673816 9789.736826988128 17.889025553833932 0.27275217962378195
0.8354730246842774 13.071292743907339 8696.476156151679 18.598638398674236 0.27608783387875746
0.8560119832853259 13.072541448474793 7732.706175855678 19.32794881872192 0.27941785357614535
0.8767711385093974 13.074450892967452 6882.729196874594 20.08724923164482 0.2828189260701032
0.8977304961632444 13.076763977208271 6131.304940766291 20.877788724359405 0.2862923908654453
0.9188945579623646 13.079660346782465 5467.617441425944 21.693557556525583 0.2897829398919265
0.9402432189673177 13.08276712442819 4880.072014018633 22.539036906471683 0.2933255968981958
0.9617734650666436 13.086165684557852 4359.314361762956 23.41927095130749 0.29695155584984423
0.9834829096098369 13.089856012257947 3897.8580648139814 24.333989096593086 0.3006495949022381
1.005366973862738 13.09368136516367 3488.172777655985 25.276182241779484 0.30434822163532665
1.0273927387166892 13.097572147041893 3124.2592693747456 26.25715175244777 0.30813297496973374
1.0495684942752377 13.101362888274878 2800.608902432939 27.278390632605497 0.31200585882855403
1.0718774589959394 13.105215809316354 2512.5776101944225 28.335346077218293 0.3159282517864936
1.0943067756677682 13.108879944574431 2256.2059933514893 29.42976877272537 0.3199052137279818
1.1168618560078591 13.112356710964482 2027.3844684680146 30.56911725392866 0.323971575182029
1.1395177405955856 13.115710759035927 1823.426684882948 31.755238196592288 0.3281272962854144
1.162269063473124 13.118795811535666 1641.2776439560262 32.981469863888684 0.3323273843270484
1.1850774212459552 13.12147380594556 1478.5608824720712 34.25434835553179 0.33660749484468655
1.2079613283312998 13.123774942498224 1332.976428663998 35.579597992657966 0.3409930770066716
1.2309123887615507 13.125718018824559 1202.5569285672698 36.9592350411396 0.34548360468022
1.2538800226192786 13.127180985575515 1085.8829714348462 38.38830646938664 0.3500274985934487
1.2768959693205486 13.12816026765874 981.2184815543479 39.87143665221719 0.3546570413142343
1.2998840210771563 13.128470048167728 887.4063979315158 41.41586322591883 0.3594034555669213
1.3228996334214962 13.1283156728943 803.1299307023377 43.02403577851528 0.36426894349247047
1.3458959360355334 13.127505467431213 727.4119537301885 44.697769758702904 0.36925154494158197
1.3688411804957394 13.125986542357946 659.3468609013022 46.430088850757414 0.3742881015840597
1.3917410764364933 13.123784561332997 598.0905701371285 48.2346313002813 0.37945615624861406
1.4145556108332533 13.120747819583954 542.9959746075466 50.11441291087345 0.3847592052894427
1.437303152014112 13.11699033211673 493.3007236921698 52.0726141308807 0.3902001380816067
1.4599575921832686 13.11247118425417 448.50042710219697 54.11260946094217 0.3957808936647759
1.4824757779575966 13.107027873620702 408.0923564944037 56.2309749314285 0.4014608762142865
1.5048595160236282 13.100715679787834 371.5937250991802 58.43619544233301 0.4072830216989555
1.527095102551481 13.093515634360294 338.63020261562053 60.73500927265735 0.4132654024952041
1.5491326699495258 13.085194022742133 308.8264118335694 63.13165207640956 0.4194112570078098
1.5709930409784603 13.07602664896697 281.8591678005613 65.6306250160495 0.4257216048659394
1.5926559747460063 13.065895023991382 257.4517464279203 68.23677131813812 0.43220103845346
1.6140761389337086 13.054667138803035 235.33884627960433 70.95512157561681 0.4388649842946185
1.6352350976527588 13.042262238675905 215.2996395122787 73.79096058169247 0.44572020814545343
1.6561309781463227 13.028779771588072 197.10227498049926 76.74503655014227 0.45274803321086315
1.6767329616363065 13.01423392860832 180.60665003862985 79.82934413292757 0.4599767961377312
1.6970330334457968 12.998482228002356 165.6097817733916 83.05052380602808 0.46742563090539263
1.7170206767736473 12.98161124063126 151.98397105407452 86.41560812781356 0.4751054936572531
1.7366431983420019 12.963475929478129 139.5856098025936 89.93208800418762 0.4830214658736703
1.755880774995469 12.944094119756569 128.31329555140752 93.60798449502558 0.4911809586239043
1.7747527219000054 12.923488605077875 118.04312512682336 97.45191505088636 0.49960241220770857
1.7932014356028807 12.901611674223663 108.68541553724872 101.47307419582656 0.5083021926792051
1.8112092398760358 12.878344537250621 100.1537215870101 105.68130051937318 0.5172879005033048
1.8288140700251994 12.854037670923882 92.38186650383918 110.08715974824861 0.5265717465771568
1.8458976583182138 12.82796098462531 85.2665260318108 114.70200568047996 0.536176888787245
1.8625034058624712 12.800851453070262 78.78517255826358 119.53802202672301 0.5461233561740012
1.8786178457125084 12.772228126617138 72.85087283964567 124.60826305086994 0.5564197181406038
1.894183605810819 12.742166726688858 67.4219899224737 129.92094819906052 0.5670672654308949
1.9091878400931008 12.710705691290002 62.45885074227321 135.494190029454 0.578106905400592
1.9236567933711808 12.678014280390313 57.91835560405125 141.34575004798677 0.5895631643640709
1.937520839945295 12.643664755898062 53.74901479305643 147.493129386145 0.6014532342563844
1.9507948396290817 12.6079580484576 49.92979382800617 153.95516799890868 0.6138124278090045
1.9634240567319643 12.570738891453116 46.42818000527486 160.75223146236044 0.6266728544285599
1.9754197491062637 12.532031543186859 43.21055668451741 167.89508290588245 0.6400128833340725
1.98674320606177 12.491801489079338 40.26009102688905 175.41255901930285 0.6538943067626952
1.99739739803437 12.450149045819506 37.548461272961774 183.33460307240054 0.6683719383008222
2.007359570363465 12.406990451235693 35.0532698483998 191.6882420159292 0.6834679076544917
2.016603525646243 12.362282279953147 32.76064949751606 200.4829658216398 0.699165085008051
2.025144811601167 12.316232922840474 30.649971963053535 209.77035141021705 0.715577415260797
2.0329060552316753 12.268401449995823 28.7050331497098 219.58026014246207 0.7327193587780619
2.039944364643348 12.219271497075203 26.916842450817757 229.93453144103083 0.7506024727822822
2.0461904046574237 12.16849357601505 25.266098483245127 240.8938364554505 0.7693493604517909
2.0516647511303137 12.1163435506169 23.74658942004146 252.47370890545716 0.7889072429138637
2.056148838997059 12.06340116397195 22.372073834052657 264.8839557544513 0.9871633968827483
2.057508089444736 12.013572021953959 21.352952764351496 279.13511840369677 1.4210325194667341
