M[M_sun], R[km], Lambda[1], P_c[MeV/fm^3], rho_c[fm^-3]
0.23841724892012095 16.20908015294055 2780876.1263280716 3.453507347168396 0.169602847481901
0.24841315746684467 15.866284185306073 2282232.6882914877 3.6355275004015897 0.17197819817274618
0.25869201987416185 15.562984714286875 1881732.9003183972 3.8247228978279364 0.17437438147932635
0.26925388744131706 15.29379196475936 1558374.8479541703 4.020195770667024 0.1767656211975449
0.2801062381867338 15.054073498515027 1295667.5848960914 4.222280627725824 0.17914402946040195
0.2912334504450775 14.839984853469067 1081399.23510455 4.43234251983928 0.18154624765129745
0.30265178639777857 14.648673403174909 905718.5383353198 4.650728927807728 0.18397614221286687
0.31435057552270806 14.477264568430094 761234.8615856951 4.877806988955171 0.18643536660287882
0.3263352585647864 14.323427245201108 641775.9536702674 5.110879662929242 0.1888640094242823
0.33860259044898755 14.185136535549686 542693.9318868751 5.3531613351195455 0.19131466498407723
0.35115025308145276 14.060949200137484 460148.9982231429 5.605138436056956 0.19379528170252405
0.36398212095227855 13.949047920948608 391258.72919046326 5.867223280684445 0.19631148324178221
0.3771033533229878 13.84840935785275 333516.8977781933 6.1362999851045625 0.19880318029286223
0.39050443079335145 13.757793428975003 284977.2446928849 6.415810260221008 0.2013251720011795
0.40418937428309704 13.676232139751209 244088.6034398785 6.7065562656820275 0.20388180910848905
0.41815745540917737 13.60277309735152 209522.78944922923 7.008622794298455 0.20646433284496468
0.4324141502456097 13.536822504809688 180217.107380094 7.318656350066119 0.209023626167024
0.4469492881068615 13.477401510830697 155328.38227337986 7.641230039768675 0.21162738569829911
0.4617699712331635 13.42417970616456 134137.44312665437 7.976877620215445 0.2142756591223851
0.47687081614460325 13.376394089876019 116047.73735580975 8.323655875925416 0.2169306816842537
0.4922589783189813 13.333686170490878 100573.62757517876 8.681539736558621 0.21958329335498156
0.507921250742143 13.29560425986851 87320.79367949662 9.054021465131017 0.22228400184192404
0.5238689989871587 13.261788895249456 75940.78764500315 9.441705697843402 0.22503568531814633
0.5400997181562164 13.23180496115013 66145.56425301296 9.839168466921075 0.22776121671987468
0.5565997186693964 13.205207414279556 57698.59274341038 10.252594993895343 0.23053356694973032
0.5733749581196835 13.181824710170819 50405.84954325361 10.68294273406111 0.23335655355766313
0.5904366371240457 13.161535720707368 44097.938263200806 11.127209769837286 0.23618317137247052
0.6077635717768961 13.143739591237027 38632.975288588794 11.586255417833714 0.23902773912461237
0.625361729879681 13.128445217615843 33609.81541515508 12.063593941057126 0.24191827384914144
0.6432309217185511 13.11547889885611 29769.91938060585 12.558339257342785 0.24483073530809257
0.6599053301445782 13.104153718663412 26430.952723442362 13.09923284641905 0.33853603098632973
0.6716763924092272 13.090165094569238 24233.662667735727 13.708738793871607 0.46901212072085846
0.679895848338495 13.070042437264664 22673.0549143307 14.404280009391114 0.5934477699001499
0.685513793652134 13.043362199801242 21495.407596958234 15.201943477935146 0.7075537628299408
0.6892637824774582 13.010352215119969 20549.524489015952 16.080117857970052 0.8135489031152164
0.6917557537361317 12.971008969843606 19731.889709041552 17.04397919731793 0.913044125943624
0.693299032529937 12.92575475908158 18993.993937584666 18.095150052094677 1.0102775835189688
0.694140474692695 12.874749809251927 18302.31197541984 19.2264206336335 1.092712842087091
0.6946239365909818 12.817996616173303 17616.06817909079 20.441987050184423 1.1707044633610533
0.6948955987378502 12.755922985156166 16924.115588946395 21.738788569261228 1.2489779704538828
0.6950972933454923 12.689064104672516 16219.164242442355 23.109294859185283 1.3215876086156864
0.6953084458302042 12.6175299190051 15497.146811044058 24.56585701414243 1.3922870803463936
0.6956763039699129 12.541590357719686 14753.456519439967 26.112810240806287 1.461428250011393
0.6962423446783969 12.461586099121229 13991.73235900866 27.73233322107046 1.5291340742012771
0.6970880088911255 12.37802949699629 13217.129485060368 29.438046038735223 1.5965754712484574
0.6982638464152703 12.291164664888786 12431.61209381252 31.2400726323974 1.6654899104692784
0.6997974921977532 12.201583296761285 11644.79767237842 33.13922237058808 1.7366493567344494
0.701719485254919 12.109809970674029 10865.288760991189 35.11790124163476 1.8181305944904378
0.7039755835046214 12.016284227591962 10104.050445691651 37.209372643090084 1.9053745199847494
0.7065992486444123 11.921565644119456 9364.808004291588 39.41862153283042 1.9954925947783777
0.709563521563436 11.82535785921504 8651.086069940622 41.735397918566306 2.079560170808617
0.7130122132505035 11.726940834529783 7954.921010501746 44.136360919598324 2.108263757555283
0.7172104280946375 11.625591196578394 7265.635184522948 46.63769114564638 2.1261993298030335
0.7222335815308083 11.522588829952522 6592.468407172998 49.23665839373558 2.144702004315057
0.7281302070057085 11.419112736680736 5947.173164267261 51.90515113261651 2.163577178096869
0.7349004214320927 11.315958019572 5336.040291095696 54.66050828195499 2.18299641284221
0.7425410503855875 11.213926654313086 4764.562276180029 57.52397221787518 2.2031254116952366
0.7510373473896079 11.113697121466569 4237.116670260502 60.49821574912577 2.223982761892962
0.760349862619872 11.015792434036365 3755.4381979101026 63.564302995829514 2.2454195613084726
0.7704458018923669 10.920679955021914 3319.2762838684744 66.7293723857341 2.267480843330834
0.7812835123924037 10.828536255830784 2926.5682651413576 70.01862342625937 2.2903478467641016
0.7928039610022637 10.739500320717118 2576.3391336114673 73.43594734418461 2.3140410387027437
0.8049673079740013 10.653787504670362 2265.0322912280667 76.98565454611568 2.3385833653382724
0.8177246279084779 10.571690071243546 1990.1417102928206 80.63775440082064 2.363737080379285
0.8310326421546187 10.492840268703342 1747.7222881197306 84.43325616847264 2.3898006946433346
0.8448241373711501 10.417503696911915 1535.093477385873 88.37895646059256 2.4168137263804965
0.8590588610140695 10.345416438797049 1348.5787340765137 92.48062333629164 2.4448070173782286
0.8736870525052515 10.276494644828476 1185.5239799411934 96.74450402145756 2.4738140739694283
0.8886597338563473 10.210675742617205 1042.8958824424926 101.16114940558177 2.5037476983216536
0.9039234385695895 10.147847972850975 918.5154748464366 105.74376347937535 2.5346915584420184
0.9194488611248102 10.087719982544947 809.8105799954202 110.512687229788 2.566783053525517
0.9351841457525087 10.030172787881764 714.884817648422 115.4761749554955 2.6000663196769134
0.9510734666158221 9.975122640177918 632.0430113437853 120.64309589533009 2.634586740542331
0.9670894572101697 9.922231442452652 559.5741721120039 126.02301954085934 2.6703897692251766
0.9831908917861261 9.87135087149316 496.2006098708736 131.62634522566583 2.707525142763424
0.999329323163692 9.822411988905557 440.7221927815321 137.46399072692338 2.7460620622490275
1.0154761826750789 9.775232741101101 392.13940296710865 143.53889676248795 2.785994688689309
1.031575742904896 9.729569642076333 349.4511689952609 149.8699840076908 2.8274380154840926
1.0476157844321963 9.685261204628478 311.9785175253489 156.4756874090115 2.8704741192847494
1.0635698893163337 9.642160186765032 278.9680900561491 163.37085712407463 2.9151995481824375
1.079360955254924 9.600206301765194 249.94127188095098 170.57121769443833 2.961702935294263
1.0950015092210084 9.559123454590807 224.27751131269994 178.09355507901822 3.0100530810605832
1.1104390571745564 9.51885664071346 201.61204233593358 185.95611519336236 3.060343003316138
1.1256428969994776 9.479332917905422 181.56725236912547 194.1785208177118 3.112689150308198
1.1405869842511136 9.440320040572496 163.82658786730372 202.78165037993404 3.1671719928035538
1.1552472214112506 9.401762773264048 148.0365686658948 211.78833588073383 3.2239201371116737
1.1695795229731318 9.363494129883348 134.0198892703532 221.2228805032981 3.2830583240076816
1.1835836198660317 9.325423477580374 121.52891265203654 231.11150767323787 3.344697319595907
1.1972198855270648 9.28755534638454 110.38612019889908 241.4791563099115 3.408982013656405
1.210463595988013 9.249683531454949 100.45913940199152 252.3464706174648 3.4759323621088765
1.2232832943244056 9.21173167294154 91.56170647245015 263.7569534129041 3.545844960348108
1.2356676728088274 9.173704721137609 83.60311115276888 275.74642053863823 3.618853305269292
1.247591147262338 9.135512232675708 76.47881622698591 288.3529585104092 3.6951633445399192
1.2590463461320145 9.09694916710396 70.0550489011799 301.61834521481455 3.774971316187423
1.2699803186109366 9.058138007150925 64.29596396757407 315.587297693589 3.858479256992889
1.2803963582671 9.018879141190373 59.106862352348955 330.2764886420295 3.945661751894989
1.2902868226858384 8.97914948822598 54.42227208485096 345.7656338125594 4.036982184253872
1.2996058182860963 8.938934078128511 50.193716690984566 362.11351445662734 4.132734709120256
1.3083699091589716 8.89820961070674 46.37042596664265 379.37215070100996 4.233098512108027
1.3165304799142337 8.856852365605793 42.91562444847417 397.58229543928417 4.338173370571709
1.324091164392136 8.814863774106065 39.778742027919215 416.84923141914896 4.448562219528732
1.33104202600168 8.772239535082566 36.937699952786794 437.23260984765585 4.564450356375733
1.3373630936923002 8.728938868345846 34.35485735471345 458.8024749692013 4.686090804452879
1.3430384486349383 8.684935839225632 32.01485029286806 481.68360593790567 4.814160749698579
1.3480616323428365 8.640139983534839 29.83435359310144 505.91822069224213 4.948581974372608
1.3524349172018095 8.594645260012216 27.89340327681942 531.6739695641904 5.090349664155959
1.3561355579032799 8.54838473052435 26.160678496946996 559.0068636330144 5.239357164900065
1.3591687376839714 8.501314487756908 24.541649937752638 588.0975034419947 5.396670893415814
1.361500360817106 8.453541117283304 23.070217393686956 619.0409583312249 5.562386913625168
1.3631492714035456 8.404936656211401 21.723028378907568 652.0146021737661 5.73734656156256
1.3641266038805753 8.355600932977824 20.48979520808971 687.1897159214263 5.922283206237991
1.3643919939104487 8.3055013305221 19.364713808639365 724.7121704007156 6.11749742535511
