M[M_sun], R[km], Lambda[1], P_c[MeV/fm^3], rho_c[fm^-3]
0.23841724892012095 16.20908015294055 2780876.1263280716 3.453507347168396 0.169602847481901
0.24841055645144855 15.866427236085 2282417.3570999196 3.6354721468102262 0.17197749405412915
0.2586856468925294 15.563233435432798 1881905.278930485 3.8246090382840356 0.17437298862383843
0.26924409756593265 15.293971255620527 1558591.6569979107 4.020012338230031 0.17676337724971433
0.28009254299794994 15.054347504951739 1295915.5223641756 4.222029442372981 0.17914109223740565
0.2912161985180953 14.840287476852593 1081664.6069672967 4.432020121778436 0.1815426200219259
0.3026324677918979 14.649008617601217 906035.844377716 4.650331674890666 0.18397183975576706
0.31432589852856846 14.477560842862978 761491.8295358182 4.877326257342782 0.1864303099417398
0.3263063404375093 14.323760515485398 641980.6999733907 5.110297364971103 0.1888579418157041
0.33856816604194784 14.185510431840177 542884.9399381798 5.352489402055569 0.19130796036069858
0.3511109414311837 14.06127483745843 460414.7670316272 5.604372661645452 0.19378792181074078
0.36394156323256505 13.949427975318686 391458.59197477874 5.866359151475799 0.19630348125511607
0.377055384807899 13.848745590578964 333703.03630386293 6.135292568282379 0.19879385143798994
0.39045196360749734 13.758080500979089 285158.2101255171 6.414691508844784 0.20131520065651293
0.4041298752135396 13.676460599301159 244238.77368935425 6.705321171786633 0.20387124964890163
0.4180947740042946 13.603050204479063 207052.6778979298 7.007209722673029 0.20645225176126858
0.4323419866160386 13.536998701188475 180342.57775341187 7.317112306738369 0.20901089812953805
0.4468722895204883 13.47763683039375 155439.18876283718 7.639548984334152 0.21161402044977415
0.4616861865203178 13.424333044577887 134238.31016124404 7.975053276432944 0.2142616914821903
0.4767843685243706 13.376644916581082 116146.78194183711 8.321602650110439 0.21691496166498025
0.49216411946931504 13.333937557559855 100666.95264163075 8.679325896017657 0.21956700570167614
0.5078208221994635 13.295822696463025 87401.48772396917 9.051639833019525 0.22226708832289832
0.5237624416460578 13.261991456640827 76008.00397150242 9.439148435597257 0.22501814933969358
0.5399836259249431 13.231916543997903 66202.51559558121 9.836321673201178 0.227741695329995
0.5564755545816914 13.205343161123547 57755.54129054753 10.24955152342658 0.23051345506541976
0.5732500338278587 13.182014819210966 50456.42297119012 10.679693838374364 0.2333358826870221
0.5903050059771529 13.16174941730646 43759.00013608436 11.123613667882454 0.23616029142633263
0.6076237638942679 13.143893598782682 38674.24619522232 11.582429665396885 0.23900421260929783
0.6252089252992891 13.128671528388836 33929.284442616954 12.060075060218994 0.24190746980991687
0.6430721976845072 13.115597855407673 29803.667673316366 12.556035462683687 0.24485647390417703
0.6611920466776744 13.104636317260315 26213.290991153954 13.065662935065166 0.24778695455951208
0.6795792569516079 13.095408690854551 23082.64069627251 13.59623145303848 0.25077607251340445
0.6982112998748813 13.087899811821833 20350.75516829873 14.148645431134243 0.2538254495463175
0.7171202947755263 13.08200989180497 17961.977306483273 14.716630810414618 0.25686838421648606
0.7362708065149246 13.077569565457647 15872.760659633585 15.306304586425778 0.25996230408662385
0.7556621005967322 13.074267557017986 14041.509651988148 15.920212263687771 0.2631222759485645
0.775295105013424 13.072092674110486 12434.840642238518 16.55510896568294 0.26630408197343347
0.7951677345977682 13.070930272512777 10949.9015648324 17.21076966721571 0.26950265214046665
0.8152789176538493 13.07077339507916 9782.501258640148 17.89345260157284 0.27277298970456704
0.8356052591084152 13.071313447854692 8689.617091043134 18.603465225810993 0.2761105231896878
0.8561513206477478 13.072528180275327 7726.601770006182 19.333029466918664 0.2794410260946862
0.8769182085740443 13.074483460127722 6877.163618173457 20.092596328106698 0.2828425206957336
0.8978800681964392 13.076835212968074 6126.592840132909 20.8834154842822 0.2863164669034064
0.9190479146395402 13.079691816187065 5463.261036110857 21.6996739579048 0.2898091110301681
0.9403949618082128 13.08275403142423 4875.984537744943 22.545466822668832 0.29335233272325834
0.9619350724226489 13.086213231396695 4355.953521215599 23.426031026400352 0.2969788856036262
0.9836493666944895 13.08987017180869 3894.5116743924073 24.341325935998672 0.30067925640920923
1.0055417858092293 13.093728940676986 3485.0310226795077 25.283889306385962 0.3043784248934931
1.0275669476628502 13.097495411965497 3121.3403933316 26.265248255501334 0.3081638262290303
1.049754131363432 13.101384269185228 2798.0154584233096 27.286897666731086 0.3120374286841399
1.0720612007886048 13.105153004205915 2510.3295018392255 28.344559780286257 0.31596244411145347
1.09450236436222 13.10889670491311 2254.0604392909117 29.4394445204849 0.3199402036316669
1.1170716776520115 13.112532290279741 2025.625474049968 30.579279944621195 0.3240072764427252
1.1397216443478677 13.11573785192349 1821.6401108265788 31.76591423217589 0.328163863836704
1.1624685118534024 13.118793083001865 1639.7649455164658 32.99301382834907 0.3323669247078559
1.1852972761320353 13.121496835306166 1477.083976357074 34.26647118022205 0.33664802758224033
1.2081799066327656 13.123828780819093 1331.6922143847491 35.59233278699085 0.34103466395296544
1.2311274109528727 13.125774112914813 1201.4670828057622 36.97261603736938 0.3455261510681189
1.2541036838460704 13.127183669671094 1084.7284125454971 38.402757211014176 0.3500734463575878
1.2771201338773626 13.12817810960046 980.278270694412 39.88661681156919 0.3547042305871116
1.300118636570843 13.128493520684158 886.5120197006582 41.431815569883334 0.359451974076158
1.3231320219172427 13.128288686393537 802.315368339765 43.04080587026689 0.3643188670074689
1.3461374412472753 13.127498439169317 726.6181032326863 44.71586418056847 0.36930541090455776
1.3690899188503487 13.125985373565339 658.6377439610384 46.449108842477386 0.3743433769359721
1.3919926419849347 13.123759343973996 597.4719508222395 48.254631311367014 0.3795131206530014
1.4148174653628522 13.120760950928585 542.3912899242107 50.13545230300902 0.38481796635213444
1.4375677202660162 13.116997226581903 492.7525119044052 52.094756059984775 0.39026078240035816
1.460209644931517 13.11241346295859 448.01123851183127 54.13592025011202 0.39584339698516363
1.482731740623895 13.10697339272777 407.65914829113973 56.256096175076415 0.40152823391414055
1.5051127851537758 13.100567893017553 371.18239168003265 58.46264565713551 0.40735267655609697
1.5273643298466775 13.093457051242298 338.2487490866409 60.76287148500568 0.4133375011214664
1.5493884392088826 13.085089019837742 308.4892942459191 63.16101471214986 0.41948590487604154
1.5712722286208618 13.075967152684923 281.55205807604904 65.6615815870801 0.42579884720118577
1.5929174450135242 13.065720777749819 257.1693686684095 68.26942228239383 0.43228121022059823
1.614337169267803 13.05447685936916 235.07197490711243 70.98957558534086 0.43894827179743906
1.6355082249437454 13.042086251380628 215.04493025026034 73.8274665054684 0.44580731158471054
1.6564344907882955 13.02883363225972 196.88985670245816 76.78420628260973 0.45284121562124735
1.6769938401365572 13.013989085566772 180.40352055249716 79.87070931549086 0.46007359776494083
1.697315295091978 12.998383714438544 165.42647984872605 83.0942279250772 0.467526451719573
1.7172504783187577 12.981269698064258 151.81026224918358 86.46180624962672 0.4752105932883673
1.736903136755325 12.963250534776732 139.4228463234807 89.98094597772058 0.4831310163447918
1.7561462577690792 12.943818779371831 128.16428007678272 93.65967962851022 0.4912952069236424
1.7749909556936596 12.923125206859597 117.91295067484958 97.50663865794489 0.49972181607149346
1.7934667536093125 12.901300494695239 108.55869433801239 101.53103298638592 0.5084270899361054
1.811470197266889 12.877998055387721 100.03685380788428 105.74271616947959 0.5174185158284139
1.829037658338981 12.853487103954562 92.26801531347186 110.15227025928186 0.5267084634834132
1.8461216844203958 12.827565847551194 85.17252104418016 114.7710683835064 0.5363202495009504
1.8627524262736737 12.80049617013706 78.69321053794232 119.6113151961271 0.546273805642774
1.8788596216076618 12.771905902158094 72.76767734741054 124.68608599855665 0.5565775581988628
1.8944056531189444 12.741695369779496 67.3452130410543 130.0040208214945 0.5672340058757365
1.9086331032097152 12.710850335278844 62.58710123608474 135.78488718322083 0.7567395569132686
1.9177923771025684 12.67929272331735 59.15373115928431 142.26466975940625 1.07498386011202
1.9218326893634274 12.64333695419435 56.7070214622892 149.79606916910524 1.376348366061428
