M[M_sun], R[km], Lambda[1], P_c[MeV/fm^3], rho_c[fm^-3]
0.23841724892012095 16.20908015294055 2780876.1263280716 3.453507347168396 0.169602847481901
0.24842601728603328 15.865875771541091 2281583.503576976 3.635759211660452 0.17198114562759273
0.2587185941988447 15.562225936444245 1880666.8182328148 3.8251995422205542 0.17438021231910752
0.2692963672686658 15.292738641428315 1557124.6245876416 4.020963709060598 0.17677501546674038
0.2801607938478616 15.052948370343982 1268418.2773736145 4.223332268717768 0.1791563267702188
0.2913061120648796 14.838782490455195 1080234.1161965665 4.433692377182471 0.18156143627288154
0.30273978231175985 14.647301838749708 904552.7305604984 4.652392279814543 0.18399415718605855
0.3144549268085458 14.475868238644841 760077.2132704013 4.879799736431267 0.1864561312501031
0.32645690588222814 14.321960756222504 640626.6554844234 5.113318086423767 0.18888941806449114
0.3387436956297131 14.183677637695371 541618.6454322737 5.355975245556171 0.19134274249761293
0.35131093892832155 14.059399319106541 459218.1482993721 5.608345480290321 0.19382610474668313
0.3641611622795694 13.947651381697767 390402.9982692839 5.870842393598131 0.19634499685639997
0.37730548630292166 13.846979685081994 332704.35706086556 6.1405194659098905 0.1988422534185064
0.39072747006878716 13.756357874052682 284243.20775017695 6.420496259645254 0.2013669379523636
0.4044325271881018 13.674807477197362 243411.98141926804 6.711729795902351 0.20392604030701525
0.41842509015774276 13.601391212667114 208911.77393067218 7.014542201251805 0.2065149409313121
0.43270264697057137 13.535474773469051 179672.83918791148 7.325124668398716 0.20907694656077758
0.4472621004549245 13.476150415833034 154831.0129424079 7.648272614194018 0.21168337775871382
0.4621096761925913 13.42294770966211 133689.12286562967 7.984520785317086 0.21433417713917194
0.4772390714704812 13.3754544591668 115659.11761409811 8.332258498399517 0.21699654555081366
0.49264626186110755 13.332711260596568 100223.20569248652 8.690815661248722 0.2196515381281005
0.508343376554792 13.29473522480054 86998.98245889963 9.064000808301719 0.22235487164997178
0.5243142474361574 13.260879561605464 75642.4332334408 9.452421351757923 0.2251091660401316
0.5405699106648872 13.230949299047047 65879.87881721815 9.851098113655732 0.22784302218523256
0.5571041038657658 13.204472026867796 57460.1467277163 10.265349289788455 0.23061784998322712
0.5738820022534401 13.181528819077407 50229.17086397726 10.696558394117202 0.23344318223855923
0.5910027691634283 13.160977347658495 43908.18784295792 11.142281522289025 0.23627906433897436
0.6083554172495002 13.143130389894907 38459.59514282123 11.60229022974662 0.23912634541298666
0.6259867575873009 13.128006879849643 33736.25336798434 12.081185022108873 0.24203299064531736
0.6438862311278979 13.115034483566166 29628.64442399535 12.579296531752224 0.24499478532496607
0.6620542499055261 13.104156962598013 25851.252516126537 13.09032051263094 0.2479283830455319
0.6804796955070267 13.095081622028905 22941.92265706343 13.62234913505802 0.2509206154977925
0.6991549038523454 13.087593579378806 20223.056190908315 14.176292487969645 0.2539735663655905
0.7181100333287179 13.08183524510855 17847.377082039337 14.746935285969533 0.25703073793665426
0.7372992007200355 13.07733981427267 15768.702259871801 15.3383207916033 0.26012842039878925
0.7567327311930038 13.074111418290752 13947.966067699557 15.954022422849016 0.26329171669031504
0.7764115110393103 13.072024525085086 12350.325256159096 16.59206334839052 0.26648928009649003
0.7963213176694588 13.070881900629454 10946.991516920307 17.24972766289023 0.26969148522246983
0.8164840804449215 13.070758559727789 9712.679254337741 17.93451335026538 0.2729660026440659
0.8368558532569947 13.071357987476539 8627.141755897632 18.64745711768835 0.27631417350454013
0.8574454673752159 13.072683148857426 7670.292115537682 19.38015783169769 0.27965597561772937
0.8782567516362868 13.074641267272055 6826.3051158380495 20.142198058273376 0.28306139354799065
0.8992672928109311 13.076978854610989 6080.36591165517 20.93561334736656 0.28653981350968666
0.9204776604680815 13.079838036104274 5421.424890191096 21.75641877202306 0.2900519133387
0.9418802004516489 13.082992338174703 4837.901617738657 22.605122404416832 0.29360038279867356
0.9634641862514989 13.086480461647264 4321.362881702612 23.48875202415058 0.2972324551870884
0.9852231429694497 13.090110289151632 3863.363505654471 24.40862361470253 0.30094834132731596
1.0071560038065372 13.093944734637532 3456.701203063997 25.355405265582615 0.3046586891820294
1.0292300833077594 13.097866908347632 3095.9462581414723 26.34038065580568 0.3084501139199045
1.0514635779521813 13.101713596410512 2774.6931730515157 27.365842536478393 0.3123303954338176
1.0738290126614942 13.105573172568963 2489.1401207275458 28.430069947856516 0.3162797748757911
1.0963045674740863 13.10918671840878 2234.8014113099757 29.52924616090133 0.3202649486360873
1.1189153259655125 13.112823405148712 2008.110260013887 30.67360450233683 0.3243386360921468
1.1416103537596456 13.116043019492588 1805.8277635979437 31.8650071421806 0.3285032768182975
1.1643958344498624 13.119026615276752 1625.27470370404 33.10017229676172 0.33273396383573306
1.1872698424746357 13.12172456541914 1463.9311122919407 34.379007359063394 0.3370242929757296
1.2101900997042006 13.123955142825373 1319.5754081338728 35.710554535519684 0.3414207307694622
1.233184741624361 13.125895516451875 1190.4580372384235 37.09684167362739 0.34592114050062905
1.256211679619505 13.127424829124669 1074.8499230144726 38.5369265081918 0.3505000527823873
1.2792371119090766 13.128173324717377 971.1747162753317 40.027564206744415 0.3551423817908004
1.3022857402068542 13.128470572815745 878.1630655707859 41.579938839793954 0.3599024859417065
1.3253412174763943 13.128262687327762 794.7228496496341 43.19652882970872 0.36478244452489966
1.34835972059987 13.127343289657984 719.7225876887574 44.87993678979348 0.3697830943291118
1.3713638505740564 13.125954230448851 652.354370803868 46.62574846192724 0.3748567219084891
1.3942822487422566 13.123537887756067 591.6942111986423 48.440380665591924 0.38004217542619184
1.4171503580587768 13.120504625405824 537.1189311947437 50.33086374022776 0.38536373229627896
1.4399125624013804 13.116592613223656 487.9253552092897 52.30041727814575 0.39082406595213687
1.4625762744520165 13.111884050812096 443.5998617302449 54.3524484646478 0.39642397502855364
1.4851181365119825 13.106292057444081 403.5760337778768 56.489464770781 0.40215396614480303
1.5075386832271542 13.099891566146027 367.4550586700419 58.70837201836223 0.4079997803590317
1.5297678841890592 13.092491249558346 334.84953676312426 61.02172849706167 0.41400734150363966
1.5518351715402339 13.084116333183138 305.35274728551315 63.43382559290964 0.4201794649112937
1.5737466691028572 13.074983584783364 278.67551055677285 65.94921697590502 0.42651655037026037
1.5953790066156046 13.0644868428739 254.51817818036386 68.57281757140558 0.4330261724909616
1.6167980640808033 13.05307219568533 232.64739955348642 71.30974256105135 0.43972222838786534
1.6379722746349898 13.040550298094928 212.81874025533315 74.16548462219832 0.4466114361187904
1.6588728457125723 13.026932230786153 194.83186386919988 77.14592054575843 0.45369712435498344
1.6794655070321831 13.012227065757648 178.52319371117292 80.2551849864336 0.46097333682720315
1.6998032553816924 12.996526606344045 163.6948037975182 83.50046768830244 0.4684636042024952
1.7197137330308832 12.97912860473371 150.21226612729077 86.8912548570946 0.47618757868205736
1.7393183517723312 12.960817058136731 137.96222652448284 90.43514879830865 0.4841494403477144
1.7585650117266436 12.941284266681043 126.81184245631664 94.14028897410469 0.49235737268028423
1.7774122226612057 12.920601187951092 116.66308428315352 98.01543754278748 0.5008319869100979
1.7958186352709 12.898334621221215 107.41151416101744 102.06994812591986 0.5095884154568805
1.8138193834306133 12.875012308477883 98.987573203754 106.31381399967566 0.5186330943378159
1.8313564252875594 12.850294845739404 91.29389593927894 110.75776964155725 0.5279798711405052
1.8484037089294774 12.82404229364895 84.26557649280899 115.41336866153243 0.5376535397174614
1.8649627619551756 12.79660270956582 77.85644038368655 120.2897138255362 0.5476608612534914
1.881021781482135 12.767696632041805 71.98662850453324 125.40016841438403 0.5580102279565643
1.8965522621369095 12.737522837775625 66.62938878639272 130.7609556355394 0.5687344115451378
1.9115021033714954 12.705720949558598 61.72255973452965 136.3874096804594 0.5798618234347729
1.92587948122098 12.67256728921581 57.23115953644528 142.29605224171945 0.5914097494556818
1.9396699676409135 12.638021891293219 53.11665679193818 148.50469859507885 0.6033990677006114
1.9528631690551008 12.601932801494259 49.343767728918145 155.03254718650635 0.6158654371696106
1.965409050032972 12.564501296132402 45.88554980644968 161.89139794082564 0.628809077200125
1.9773356507342674 12.52556036597049 42.70969136626497 169.10537841336682 0.6422543046886797
1.9885687973734119 12.485020580247667 39.79382158130883 176.70408396327363 0.6562656275382588
1.9991298584176855 12.44299064514767 37.11204694344768 184.7136155490495 0.6708825844026451
2.0089818134955357 12.399488059618074 34.649177105381185 193.14672115603148 0.6860764049069721
2.018126107928995 12.35453193891055 32.3847560296331 202.04238399722118 0.7019319867319821
2.0263139661759504 12.308772580349116 30.343392707932498 212.02218383677697 1.182755297142553
