M[M_sun], R[km], Lambda[1], P_c[MeV/fm^3], rho_c[fm^-3]
0.23841724892012095 16.20908015294055 2780876.1263280716 3.453507347168396 0.169602847481901
0.24840870683196534 15.866415459003145 2282506.2114743423 3.635458230396967 0.17197731703208927
0.258682848704642 15.563267340336683 1882118.2588587566 3.8245804133014745 0.17437263845148848
0.26924256508500605 15.293982365013099 1558694.8191325509 4.019966222844175 0.17676281311546552
0.2800897047691352 15.05436792889216 1296059.9597624638 4.221966294535241 0.17914035382141494
0.29121211981816053 14.84037408479742 1081744.040179046 4.4319390721135115 0.1815417080494895
0.3026270789235863 14.649070698395237 906111.7700763274 4.650231808194758 0.18397075814715858
0.3143227694960664 14.477628786903605 761512.0370643842 4.8772013941782 0.186428957608287
0.32629839082273004 14.323862514903926 642098.3218755162 5.110150983009318 0.18885641649961016
0.3385596642015426 14.185572232620538 542997.2236151074 5.352320488933838 0.1913062749266492
0.35110181487442393 14.061391442377266 460438.70167360373 5.604180160446157 0.19378607167318895
0.3639297841544629 13.949654941589348 391559.9327614458 5.866141928076017 0.19630146972867857
0.3770438696974757 13.848808220779087 333756.8201623763 6.135039329184061 0.1987915063999241
0.39043752393217673 13.758159151847103 285197.31908543577 6.414410285998396 0.20131269413898897
0.4041147635069309 13.676563013427096 244279.76044494248 6.705010706848092 0.20386859532279408
0.4180780543131962 13.603100442081603 209690.8522422952 7.006854524889533 0.20644921499082194
0.4323254729178206 13.537116972463634 180380.75415557696 7.316724191011447 0.2090076987688515
0.4468522819760002 13.477705067673078 155470.86776365252 7.639126432909837 0.2116106609503284
0.4616657939641633 13.424429931437663 134267.34364786613 7.974594712304014 0.21425818059853965
0.4767623605634464 13.376710778229869 116163.99092296422 8.32108656246877 0.21691101036667948
0.49214683241310436 13.334086468048362 100693.93443603972 8.678769442304707 0.21956291176401924
0.5077968465785118 13.296006401041979 87419.89688557148 9.0510412099776 0.22226283711123554
0.5237351992157896 13.262087416703501 76030.87786524263 9.438505673693308 0.22501374171239025
0.5399539221414418 13.231940416435227 66218.02309015632 9.835606149431662 0.22773678875092843
0.5564477230333073 13.205391470113625 57770.984493260854 10.248786572905074 0.23050840011366328
0.5732189060152741 13.18209242836299 50470.68568057411 10.678877263009518 0.23333068728361034
0.5902666517168578 13.161628877879936 44154.272942525495 11.122709840383893 0.23615454088734772
0.6075868509614949 13.143932087850022 38685.82324083366 11.581468126759539 0.23899829961470379
0.6251719365276377 13.128689127699321 33938.57494226082 12.059053069860788 0.24190139300673727
0.6430325926420056 13.115623471887991 29811.983140114036 12.554909411584328 0.24484977835089122
0.6611474811382902 13.104562080171084 26220.726476663996 13.064469322800687 0.24778010835675718
0.679536861313745 13.095394071036894 23088.821374086758 13.594967205458486 0.2507690757930186
0.6981684453263606 13.087875841661402 20355.837756499426 14.147307199810285 0.2538182800827346
0.7170728898406047 13.0820380385447 17967.937196985433 14.715164055795105 0.2568605261999822
0.7362173228119303 13.077523504095518 15877.573920606155 15.304755036881057 0.2599542642376018
0.7556109488357938 13.074238872852595 14045.807842056756 15.918575945129103 0.2631140754834617
0.7752407820877433 13.07209855137705 12439.268473854572 16.5533206085645 0.266295119562011
0.795108427982097 13.070975754287488 11027.47274815303 17.208884412321396 0.2694935141320581
0.8152189576421731 13.070746888714238 9785.485846099653 17.891647822936143 0.2727558803329048
0.8355425670882723 13.071358993379166 8693.255044212774 18.602126465224586 0.27785752884493237
0.8543898576958086 13.07114455426984 7797.83586821756 19.36326676319891 0.3589564180587169
0.8704223977511886 13.06701089243316 7098.68951728126 20.19079043925552 0.43646733029644524
0.8844044850228706 13.058301400104904 6524.204914678783 21.09121295901573 0.510163373789557
0.8967110890237054 13.044841805606966 6037.910418836203 22.06970217561044 0.5806436275755756
0.9076472083458444 13.026702767171932 5616.311244742944 23.121417227582054 0.6478856182156335
0.9175372873585399 13.004158889632864 5241.661349221086 24.2478534540154 0.7119478672053271
0.9266953178145573 12.977397560138304 4899.767073257076 25.450644971491183 0.7709538548887903
0.9353032697355038 12.946751066122392 4583.623119737543 26.72294002221859 0.8263242277499313
0.9435274596553067 12.912651180293889 4288.32009445144 28.07150101511102 0.880421963283584
0.9514767825172309 12.87519056697548 4010.2698539024373 29.499322661937317 0.9330088848382523
0.9592849732755739 12.834814450399003 3746.693342268462 31.001395308957857 0.9825901121276479
0.9670547368975506 12.791566934523805 3495.7234611671747 32.5753770832059 1.0278627661354625
0.9749030687928936 12.745887009434908 3255.5269342970314 34.231019423864 1.0720227319679485
0.9828943964171946 12.697994558354956 3026.111816884717 35.97059494419713 1.1155828517734245
0.9910888226892892 12.648165649913958 2806.822721168436 37.784882594532355 1.1576991984501603
0.9995279578464091 12.596732587521641 2598.0266033921675 39.677492092066714 1.1988325904046702
1.008222637819825 12.543638655006458 2399.680399522994 41.65979912828679 1.239728696900129
1.0172907917052132 12.489766057977317 2211.606580509795 43.73445384883404 1.2804124691120515
1.0266629577190118 12.43464817076358 2034.0257705228228 45.8975349286781 1.320624639368323
1.036416914836667 12.378782109508267 1866.6871687515684 48.142113963007525 1.360192318442647
1.0465145860043905 12.322487331876383 1710.5388009230367 50.48682312637242 1.4000825188684929
1.0570567902889647 12.26573628342866 1563.1742603114978 52.93481717523495 1.440453728194518
1.0679677434037291 12.208844211550227 1426.5180846562587 55.48936899588761 1.4815210117668962
1.0792599861415877 12.151858129140852 1299.751610526083 58.142388627721694 1.5233719756335518
1.0909387360159863 12.09492846093248 1182.3476715882264 60.89906143096137 1.5668019685302081
1.1030072148102084 12.038344389769197 1074.2686036799987 63.77427815768763 1.6128711459143956
1.115410791629713 11.982051505002842 974.9153014199818 66.77284154485801 1.662806127597336
1.1281344066870955 11.926171073640209 883.9604614800699 69.90023388796783 1.718566174812616
1.141145858833107 11.870901943970798 800.9955312679789 73.16284541772859 1.7828976933099387
1.154395113557222 11.816173606919486 725.4623096676186 76.55186896412253 1.8524369986753697
1.167921312741111 11.761912821765913 656.6549641527116 80.08010694165921 1.8953750184404523
1.1818164211060989 11.707907691656317 593.6589913596164 83.74818440067594 1.920861323503489
1.1961603015072915 11.654430233948325 535.9425529568302 87.55725357520626 1.9404853990195796
1.2109209220223007 11.601661612326911 483.4196894730455 91.51153735995553 1.9607438785323184
1.2260824023900738 11.549851687297988 435.6715675743259 95.6173299440879 1.9816760198736438
1.2415877849277779 11.49874384860082 392.3506466843642 99.88125361570869 2.003327928641292
1.2574244590750223 11.448810811062714 353.2757381347067 104.31046929034966 2.0257385140506723
1.273526951284236 11.3998510840983 318.00804526396547 108.90945774738248 2.0489295648864942
1.2898524477768794 11.351803605853728 286.30680370343975 113.68477226282856 2.0729214062244545
1.3063905594423582 11.304953580376683 257.83478648138816 118.65229121715336 2.0978060489748223
1.3230661931009473 11.25891498432025 232.23511813250587 123.82153745046318 2.123627634178296
1.3398269775762262 11.213864387643657 209.33650294014947 129.20264305678313 2.150421930342286
1.3566515506960775 11.169580953030396 188.8018193493026 134.80661052835305 2.178236493860631
1.3735053006768894 11.12610863418466 170.39643668261385 140.6452652366791 2.207127504314323
1.3903172622180795 11.0833041877946 153.92619336161593 146.73114910754785 2.237136414258211
1.407074024713937 11.041092571262906 139.15775330622432 153.07796041447418 2.2683278591506744
1.423717810972539 10.999588256646627 125.95456000410037 159.70022942175282 2.3007621817186097
1.4402019769764671 10.958428372922825 114.12000944026693 166.61215311007334 2.3344885574031355
1.4565162847996622 10.91768267812252 103.50579653541108 173.8222584245004 2.369540908839372
1.4726007337407 10.877165779451262 93.99639800333811 181.3564957902887 2.406022188997607
1.4884148474905 10.836938238767104 85.46800909064311 189.23416447604248 2.4440259502365587
1.5039370382882324 10.796818619160767 77.80896049023896 197.47638989133588 2.483627625781726
1.5191261694639298 10.756735069215422 70.92484724272457 206.10552291418034 2.5249222053186933
1.5339515571606004 10.716594423972525 64.7433188382683 215.1460235737225 2.5680106371630025
1.5483779588002229 10.676394456105685 59.17693853867587 224.61738696213908 2.6129521088614793
1.5623808799752177 10.636045973760607 54.164901693464785 234.53482258901093 2.659790207590583
1.5759153787166846 10.595402998200818 49.645675603521426 244.94610064385216 2.7087426487446247
1.588960298138947 10.554542360167341 45.573343440481295 255.884114145578 2.759945823912689
1.601485406226529 10.513263875373635 41.896629612312424 267.37007378524584 2.8134435487551896
1.6134802758682105 10.471517733543196 38.571846875171346 279.4357321602834 2.869356770316906
1.62490372957152 10.429220765163235 35.55908975054056 292.1408446583662 2.9279503089951397
1.6357195683280978 10.38648258596299 32.837737331652555 305.50954422867096 2.989273090004636
1.6459267376425086 10.343188818817914 30.371068135540046 319.59025506437223 3.053513926799573
1.6554885887625859 10.29914143699481 28.1307772546127 334.44819192461085 3.120944173192903
1.6643822982095364 10.254454891609889 26.09618396438515 350.1060249572117 3.191574030753142
1.6726011490758472 10.209053386761376 24.24783013278117 366.65991991024055 3.2658455869005385
1.6801215235179134 10.162780973052007 22.564879231103188 384.13346422769035 3.3437278906077954
1.686916955730382 10.11584574665969 21.03558488379944 402.63151048335635 3.4257096191295746
1.6929781254553715 10.068036123438338 19.64249904676117 422.20389732210197 3.5118778883624984
1.6982778792306796 10.019381088006506 18.371927964719553 442.94380439690497 3.6025877750262265
1.7028308601511433 9.969801649545284 17.211907985378318 464.9483371695574 3.698212266004648
1.7065908594815244 9.919396529992813 16.154113534016712 488.29172240440425 3.7989157992697717
1.7095640770714762 9.868170517233848 15.189016518151636 513.0979366785336 3.905177295392601
1.711746351796713 9.815930054969717 14.305264461785253 539.4852983034012 4.017392275929615
1.7131049334689845 9.762814523037854 13.497998249833437 567.5800019579442 4.135969734399634
1.713670543325935 9.708746208225877 12.759245545710959 597.521558853912 4.261361713101791
