M[M_sun], R[km], Lambda[1], P_c[MeV/fm^3], rho_c[fm^-3]
0.23841724892012095 16.20908015294055 2780876.1263280716 3.453507347168396 0.169602847481901
0.24841413528334388 15.866269415736276 2282088.8234481947 3.6355476417586985 0.17197845437842613
0.25869408125605814 15.562947099290652 1881726.937259821 3.824764328178004 0.17437488830105144
0.2692587334963017 15.293615720093126 1558232.0884106937 4.020262517693838 0.17676643772077533
0.2801095061676958 15.054036074938622 1295665.2278327893 4.22237202981778 0.17914509826606026
0.29123991332486104 14.839906203923757 1060573.623290681 4.432459836609635 0.1815475677019231
0.3026601052777539 14.648559043574155 905661.0891855971 4.650873485250749 0.1839777078456674
0.3143618266762149 14.477111987802541 761131.8291797482 4.87798016709355 0.18643717113807132
0.3263449347630048 14.32331770557267 641628.970185823 5.1110915629186415 0.18886621744540866
0.3386127678594592 14.185069507355417 542542.020434599 5.353405856614111 0.19131710484694
0.35116437712609766 14.060800279980741 460066.22166510276 5.605417110471144 0.19379796005466063
0.3639983291331872 13.948945794599885 391173.96228467295 5.86753775126251 0.19631439529399314
0.3771219891043925 13.84832236992703 333451.4120830238 6.136666606212648 0.1988065752680454
0.3905237359665389 13.757651086994322 284921.2527379138 6.416217403060154 0.20132880083387988
0.40420937975916166 13.676044155957271 244031.47607523508 6.707005753599679 0.20388565201429495
0.41818057928783003 13.602651576247442 209455.88083230058 7.00913706208769 0.2064687295875587
0.43243645079215415 13.5366101457989 180169.69956621612 7.319218289269217 0.2090282584095999
0.44697544193247796 13.477298925456557 155286.19524774383 7.6418418496486185 0.21163224989904322
0.4617980335013171 13.424054591620981 134090.53243336585 7.9775415859090755 0.2142807426126786
0.4769034419869888 13.37628907108525 116009.60021466938 8.324403155183933 0.21693640304439873
0.4922907436528364 13.333639035341863 100551.92972645769 8.682345480309927 0.21958922136769587
0.5079571071645226 13.295526352514552 87296.56692180119 9.054888286479768 0.2222901577042435
0.5239126799554493 13.261802573398082 75915.29030060972 9.442636450809905 0.2250420677937763
0.5401390920615817 13.231710920616564 66119.05597565729 9.84020461676722 0.2277683219361673
0.5566431404693097 13.20516327565868 57675.28178088227 10.253702738940135 0.23054088715881899
0.5734261185803868 13.181813611067692 50387.635717366386 10.6841252597257 0.23336407729415679
0.5904901520262447 13.161540806638758 44082.07740605063 11.128518693684317 0.23619149930852315
0.6078112546686385 13.143721026721968 38619.14702676426 11.587647943651417 0.23903630248058402
0.6254139560881399 13.12846741499181 33877.54636796238 12.065621470397916 0.24194044902810607
0.6432819065625469 13.115397474486963 29756.844629307463 12.562146746661183 0.2448928118887848
0.6614138846690982 13.104511409421157 26172.47831902671 13.072140954682366 0.24782411054145814
0.679815840461501 13.095261754472562 23044.376258110016 13.603092899487653 0.25081404578937283
0.6984598953991902 13.087755613892941 20316.987183307756 14.155908484833367 0.2538643607555116
0.717377463058237 13.081942177837798 17932.225394430156 14.724591577320979 0.25691103336645393
0.7365445526748827 13.077463893361617 15845.183365598752 15.314714807002401 0.26000594057692433
0.7559445107679542 13.074190878610436 14016.368857953794 15.929093516231829 0.2631667846422847
0.7755868801780254 13.072039648028055 12412.236480314545 16.564815634520592 0.26635272726847437
0.7954742677973097 13.071010535823504 10930.57057459826 17.221002371940415 0.2695522510260597
0.8155939471824482 13.070764873864686 9764.40381788672 17.9042373573156 0.2728236852586904
0.8359326735484488 13.071375670617526 8673.965004821748 18.615224203485475 0.27616579823748216
0.8564951220777446 13.072673224159669 7711.90083879484 19.345406944758366 0.2794974789966826
0.8772695625218702 13.074501534616633 6863.45358815435 20.105623083480385 0.28290000262418075
0.8982403949287592 13.07683044818571 6114.264007497115 20.897123728099324 0.2863751223646399
0.9194269007457835 13.079721589768127 5452.1857357449335 21.714575506726344 0.28987287245948623
0.9407954164185047 13.082894257067629 4865.893230327598 22.56113238375231 0.2934174706951684
0.9623391245331381 13.086299400150232 4346.833483149487 23.442501170626926 0.2970454714004231
0.9840784782805465 13.090058306935545 3886.247633603248 24.35920180660805 0.3007515253020367
1.0059622123006102 13.093799706717723 3477.698287544686 25.302667441259352 0.30445201463023785
1.028009039877262 13.097637709418532 3114.6473232044987 26.284975490913737 0.30823899572515545
1.0502051809300303 13.101497170153303 2791.9381487519017 27.307625421211107 0.3121143499948921
1.0725424795917144 13.105430503754251 2504.851096962682 28.3670100177913 0.31604575760772496
1.0949801315646777 13.108987240329526 2249.0087967694594 29.463020876432267 0.32002546158219924
1.1175377723566198 13.112455277475055 2020.9114870234018 30.604043118877936 0.32409426881182823
1.1402221937326145 13.1158500590165 1817.5243862828981 31.791928591648865 0.3282529682066589
1.1629788950990363 13.118861682011943 1635.8637374177913 33.02114391905249 0.33246327587927366
1.1858109792036027 13.12153145055887 1473.6314240936347 34.29601220810715 0.3367467981873533
1.2087101628305719 13.123872535020478 1328.4849648897148 35.62336547770843 0.3411360047998211
1.2316772755232677 13.125855474172488 1198.5296601931984 37.00522385583014 0.34562983130753794
1.2546651521462422 13.127254493358349 1082.1696761384594 38.43797295648807 0.35018541879531606
1.277676277165056 13.128167519515118 977.8929746328843 39.92361061672092 0.35481923008913224
1.3006914615246519 13.128494872666712 884.3069530422504 41.470691717234075 0.3595702145503177
1.3237288641533282 13.128356916947869 800.3297193469706 43.08167546338677 0.3644405332317998
1.3467149921073234 13.127434277617425 724.8267001156269 44.75915150910098 0.3694320716265569
1.3696834222036067 13.125900725338097 656.9884249718576 46.49546372233245 0.3744780921521809
1.3925903930540815 13.123655627482743 595.9365926738074 48.30337538477764 0.37965195443151034
1.4154202157137337 13.12060633038213 541.0011325518907 50.18673033664893 0.38496118112421573
1.4381776479944812 13.116856775069925 491.4842551661146 52.1487220775699 0.39040858941196943
1.460824006405931 13.11221812273667 446.8391895981295 54.192736003391346 0.39599573731154264
1.4833717810648925 13.10681316195873 406.5678715104662 56.317326640468124 0.40169241142730755
1.505748366225224 13.100404180665908 370.1975702872608 58.527116409606016 0.40752245593545805
1.5279896642343622 13.093137153426934 337.36410926114445 60.83078503282945 0.4135132399838897
1.550027206751489 13.084921576293802 307.7551157749102 63.23258673941018 0.41966786058694094
1.5719136572659471 13.075635766481865 280.78502048089183 65.73704018980828 0.4259871302860079
1.5935643387955496 13.065380738503807 256.460546632187 68.34901250670131 0.43247663749434384
1.6149974256108879 13.054140869943604 234.43289708436248 71.07356247395046 0.4391512977522695
1.6361551934322116 13.041680640625321 214.4504734790493 73.91613280987715 0.44601824332828405
1.6570598329417359 13.028257054253789 196.34017508952823 76.87969372881338 0.45306837444614056
1.6776705458758352 13.013627605611513 179.9008057574582 79.97155078043338 0.46030958410155887
1.6979513105060946 12.997788357000372 164.9666437289274 83.20077347366517 0.46777224111402027
1.7179265393902567 12.980823671066716 151.38724753507137 86.57443421117405 0.4754668192288858
1.73755158821411 12.962716606918594 139.0486164618644 90.10006100256193 0.4833980987910216
1.7568208907371545 12.943359843852367 127.80783830025882 93.78571434070275 0.49157374864711545
1.77565075027883 12.922602812264723 117.58730082456931 97.64005987051226 0.5000129337288943
1.7940761153807712 12.900479910455664 108.2614630080367 101.67234509833189 0.5087316079389572
1.812095564182924 12.877246012809408 99.7621513356198 105.89246011861144 0.5177369827756024
1.829651981760952 12.852626927370881 92.01150418683109 110.31102684200748 0.5270418153262054
1.8467338960398598 12.826668128465915 84.93256808338336 114.93946559053545 0.5366698092883284
1.8633212768448892 12.799361499210098 78.47045943991618 119.7900321547658 0.5466406593578811
1.8794076541183653 12.770619939816626 72.55925127671988 124.87360361022029 0.5569542855808004
1.8949730838528616 12.740699845916861 67.16101196343523 130.20131591165543 0.5676237056745326
1.9099967679631702 12.709235747817406 62.213893945393316 135.79230205145032 0.5786926092227354
1.9244053424101089 12.676187513522907 57.68729026950264 141.66289566290178 0.5901794276624555
1.938250352188914 12.641742691911125 53.53486697382782 147.83070240798327 0.6021025826845102
1.9514852532752844 12.605939616463711 49.73296138530847 154.31468152036967 0.614497501953113
1.9640878035057698 12.568597088433398 46.243920316429765 161.13524442277395 0.6273958837585429
1.9760461869269053 12.529759280734606 43.042429267524135 168.29891139987035 0.6407607583814687
1.9873584559561748 12.489569681694201 40.10410255453176 175.84346325898002 0.654685473964378
1.9979922438641795 12.447868402494173 37.40264112173713 183.79466669236098 0.6692095354608212
2.0079029051671076 12.404456874364728 34.91799244112252 192.17479712168978 0.6843381138999288
2.0171126353849944 12.35960589653358 32.631745804450695 201.00315894247314 0.7000880723538117
2.025611823894873 12.313469420571215 30.531600487966145 210.3268486571843 0.7165571242649474
2.0333406655145576 12.26557945784041 28.597486359807622 220.1706396320518 0.73374168521397
2.0403243277729257 12.216301035161248 26.81514576224537 230.56699920022302 0.7516895851307428
2.046546260481922 12.165414290761161 25.17067700628671 241.5703855977017 0.7705011941536409
2.0519785850160117 12.113169478993424 23.657640189684503 253.1986109548251 0.7901297102466179
2.056615777980039 12.05938593603427 22.260635353315354 265.52711792736255 0.8107469416600748
2.0604363427703802 12.004047407929313 20.972736016129744 278.57586351367274 0.8323062204622806
2.063455919382008 11.947376199283507 19.784708154592597 292.4273984858352 0.85495964554346
2.0656232821600793 11.889075358847123 18.687338356050205 307.12108648679174 0.8787244507382529
2.066970450895353 11.829468179159967 17.674741395481607 322.73275541222125 0.9036944698567837
2.067468109081825 11.768386022635188 16.7383576264191 339.3374835455767 0.9299824108766667
