M[M_sun], R[km], Lambda[1], P_c[MeV/fm^3], rho_c[fm^-3]
0.23841724892012095 16.20908015294055 2780876.1263280716 3.453507347168396 0.169602847481901
0.24840176668318104 15.86667959872869 2282825.088455741 3.6353242066469846 0.17197561219930135
0.2586696876935068 15.563604567124385 1882317.2516037845 3.8243047446020557 0.1743692661679918
0.26921959220112346 15.294610244281785 1559142.8828275863 4.019522128656995 0.17675738046568865
0.28005675070816755 15.055085701209606 1296724.1802081661 4.221358193280155 0.17913324302068437
0.291173227355416 14.841163078332855 1082456.7780804893 4.431158600395632 0.18153292616624847
0.30257498328587984 14.64992893309508 906823.8123139804 4.649270161621952 0.18396034301124148
0.31426069527006834 14.47847948013417 762211.8796636481 4.87599908589142 0.18641593597999323
0.3262269041309831 14.324690298073593 642720.3978621038 5.108741505146198 0.18884172958571402
0.338479515316956 14.186444045035177 543511.6193400064 5.350694103114361 0.19129004666676352
0.3510086618966757 14.062203766661549 460990.62476782536 5.602326699633076 0.19376825797922914
0.36382644109628604 13.950377751840366 392031.2775921757 5.864050482305224 0.1962821025773274
0.3769271299602293 13.84963482699512 334223.47545181616 6.132601197398348 0.19876892887581737
0.39030827218064634 13.759058214336386 285638.66273643577 6.411702793154506 0.20128856246424653
0.40397421375639936 13.677340961271359 244666.00891489582 6.702021748803896 0.2038430411671191
0.41792353827070206 13.60387398398184 207432.59141883525 7.003435017129891 0.20641997984187382
0.4321547929209173 13.53783418587243 180697.443895583 7.312987859702078 0.20897689900817717
0.4466700391788064 13.478428502614124 155763.0574962557 7.635058678814156 0.21157832022954623
0.4614717082009409 13.425196614901022 134527.27348876712 7.970180366327043 0.21422438324252965
0.4765469677347387 13.377339929459561 116404.70461627685 8.316118631635014 0.21687297462414878
0.491912779814842 13.334617884643226 100899.44904654774 8.673413048350769 0.21952350373707477
0.5075563462782058 13.296582298507694 87613.36273585267 9.045279008359032 0.22222191596886626
0.5234760100826431 13.262623367636655 76200.8833104192 9.432192364586882 0.22496963942299888
0.539682028138504 13.232430785800746 66373.65794914187 9.82871905126413 0.22768956168016163
0.5561600087854663 13.20596358143792 57910.30963877455 10.241423867699085 0.23045974583006315
0.5729080159534979 13.182471780412124 50595.24402156511 10.671017809628685 0.23328068206343436
0.589936003774512 13.162017901738297 44268.609588540356 11.114010891502696 0.2360991944360074
0.6072426100483773 13.14425912353742 38785.40228321575 11.572213900407064 0.2389413906270992
0.6248118720724997 13.128980078569281 34029.1840314488 12.049217208092704 0.24184290850579626
0.642651323975279 13.115877601807275 29894.03528084055 12.54407242500024 0.24478534111427497
0.6607434915327725 13.104775347708253 26293.761126675996 13.052982337392756 0.24771422244599234
0.6791199940798209 13.095745386641886 23156.79586351626 13.58280065711357 0.2507017425125935
0.6977274278915621 13.088050609303245 20416.511561335392 14.134428886757796 0.2537492855862031
0.7166128804805174 13.082196147261618 18022.279146348737 14.701049417855693 0.2567849081951717
0.735734719490652 13.077621496273727 15926.622782391292 15.289843914208053 0.25987689776974743
0.7551089327162707 13.074343408737484 14090.284263379646 15.902830121425525 0.2630351647621284
0.7747209562522005 13.07210328058409 12478.751614195831 16.536112390528704 0.2662088800026441
0.7945682294843113 13.070963743258687 11063.078642154605 17.190744112750636 0.26940558638790446
0.8146587057285778 13.07083072187958 9818.616962729873 17.87234720731669 0.27267378025723904
0.8349545122017801 13.07124789184279 8722.257715761061 18.580454614195826 0.27600235794845546
0.8554838750474156 13.072493137834968 7755.832292433993 19.308809149987166 0.2793305587445714
0.8762267905417144 13.074375408353909 6903.270679277054 20.067106141923073 0.2827300425677364
0.897168532750218 13.07674904988532 6150.698012022019 20.856592464170255 0.28620169533694384
0.9183106484337471 13.079578232955594 5484.854648930461 21.670517678242778 0.2896843558059217
0.939643104767399 13.082731895324626 4895.83419115323 22.514816452135047 0.29322488736945174
0.9611517941099257 13.086106384830149 4373.734230857468 23.393807268252523 0.29684861081170283
0.9828427802057789 13.089750856950499 3910.7589808337734 24.306353959076116 0.3005378710687461
1.0047045921832192 13.093557562356045 3499.726739150757 25.24715309243842 0.3042344591412166
1.026710804122833 13.09737985926301 3134.854860744083 26.226656273808093 0.30801677370201846
1.0488728412511208 13.101209077384397 2810.1219721345615 27.246349435209492 0.3118869529960796
1.0711753430314135 13.10514237843084 2521.359252052839 28.300644659214107 0.31579947379655665
1.0935713003532697 13.108759312655692 2264.1082645812244 29.393327793828973 0.31977343411017173
1.1161056977653625 13.112283356892544 2034.6966393648086 30.530843009912093 0.3238371187860876
1.1387476265869059 13.115598633575853 1830.0017814455332 31.715031326367995 0.32798957973533305
1.1614774309581841 13.118685193798985 1647.2792787577396 32.9379961084953 0.332178478043658
1.1842695668296632 13.12133630404134 1483.9253434389539 34.20869547408196 0.3364548541598908
1.2071425647356795 13.12373582973768 1337.9109292668297 35.53164139460802 0.3408364691796892
1.2300773413358774 13.125691831077921 1207.0041419459324 36.90884591413956 0.3453233867632267
1.2530341798939193 13.127172437750787 1089.982526414524 38.33389131678595 0.3498544794736186
1.276030864469935 13.128167218049573 984.9957718629782 39.814275914406316 0.3544793505804365
1.2990140483801718 13.12851167166076 890.8146346729741 41.35579599384146 0.3592207631324521
1.3220166750216351 13.128375778483104 806.2409418968427 42.960890627744845 0.36408096432525666
1.3449921714958375 13.12761172441392 730.2714099444452 44.62964108391463 0.36904873013484185
1.3679229099307653 13.126124842676807 661.9652918811696 46.35847669034436 0.37407998438683276
1.390796594125615 13.123846665566226 600.4982688242017 48.15933082031 0.3792416840179106
1.4136286168657481 13.120939307431174 545.1281481120559 50.03520080664015 0.38453797325988565
1.4363638021293499 13.11728209294884 495.2885928939723 51.98925283312917 0.3899718206170976
1.4589881749509215 13.112644414276492 450.30150784218137 54.024849495143904 0.39554558248678295
1.4815023537865948 13.107275365645226 409.7456411124009 56.13640342595074 0.40120730122532516
1.5038890623793126 13.101036610889532 373.111631577318 58.336623150181225 0.4070208047817445
1.5261044545815972 13.093810368527459 340.0175521801037 60.63012393213762 0.4129939922829789
1.5481488934929417 13.085674342773844 310.10423700348895 63.02112113153701 0.41913025704985807
1.5700052935066562 13.076483619965616 283.0337456009241 65.51409679643743 0.425430845537458
1.5916485332432828 13.066332073814314 258.53815233662704 68.11386804677473 0.43189925954196734
1.6130414464569556 13.055090773590129 236.33944939514322 70.82543467816014 0.43855148528755883
1.6342388245230677 13.042964243777403 216.21251945755444 73.65129268752685 0.44538258154633104
1.655133151673215 13.029549956887864 197.94984645110054 76.59761067801763 0.4523973160307297
1.6757344861530143 13.015005869829928 181.38386074421337 79.67365933166049 0.4596124669806818
1.6960323885638928 12.999286514666645 166.32266010598698 82.88604061600718 0.4670461854549935
1.7160295119851587 12.982541128695864 152.6398799034352 86.24174358051235 0.4747099559369299
1.7356469594771897 12.964511709232383 140.19877665405704 89.74821862275823 0.4826091897208983
1.7548996916937667 12.945155568904095 128.87289172789556 93.41344375479275 0.49075101585553915
1.7737909017646598 12.924784000418219 118.56768073244905 97.24598381424113 0.4991530817148715
1.7922572598242885 12.90297794132213 109.17143871376591 101.25497549052864 0.5078322047832823
1.8102744973965603 12.87971497591578 100.59634298624752 105.45020116092114 0.5167964114808092
1.8278561683859829 12.855242856614382 92.77973261678807 109.84216523760935 0.5260573151741028
1.8449701234737368 12.829454798408522 85.6429917195375 114.44214892148402 0.5356374767920823
1.861617951637591 12.802493616829057 79.12822948511632 119.2622572711297 0.5455572916781883
1.877712914671432 12.773777005953173 73.16791786110159 124.31546555275919 0.5558258679263207
1.8933219324863362 12.744050597897745 67.72323246246164 129.61417689153998 0.5664584224956015
1.908367121365335 12.712707840528857 62.734444726403076 135.16802202485385 0.5774660796946177
1.922863064527794 12.68002101849486 58.1671974078267 140.9987775283409 0.5888889427467766
1.936730550468588 12.645764229420038 53.986480716555405 147.1238305271757 0.6007428586692758
1.9500075536073105 12.610057992928596 50.148850230157365 153.56189089407485 0.6130630151724598
1.9627023141436752 12.573122271906552 46.63221929227469 160.33318427107946 0.625881653953845
1.974699089554755 12.534384067870745 43.394857511734806 167.45337296980128 0.6391948532933492
1.9860703183766404 12.494338894458899 40.434242739258366 174.94126493654773 0.6530289812766837
1.9967615696355914 12.45272920111663 37.70687320859244 182.83145086077482 0.6674558935513132
2.006753817202007 12.40974221131137 35.2048811553453 191.15140491155879 0.6825007341154786
2.016038640134999 12.365169619267709 32.8991410826517 199.91411816976276 0.698155769114932
2.024607359920577 12.319153566370607 30.78110218010979 209.1618490555367 0.7145061516756204
2.032435810880183 12.271531595848046 28.824777502505395 218.93419665478297 0.7315998009781748
2.039504082810375 12.222464867693052 27.026901115072807 229.24304789605415 0.7494139216038608
2.0458047316328902 12.171942011685971 25.370622211606527 240.1526359436351 0.7680847286360483
2.0513183770861545 12.11982227734583 23.843506477371577 251.688497061795 0.7875925064115092
2.056061035867231 12.066321955710233 22.4339671389152 263.9061168893631 0.8080425042954953
2.059988487684056 12.011323762745555 21.133326609766822 276.85070930113415 0.8294700578443448
2.062967512915028 11.955202039562039 19.950788282267226 290.654798697586 0.9445236042318708
2.0646064459441207 11.898462731668177 18.9025247199125 305.541146034938 1.0806598901852345
2.0648143153938916 11.840384026948783 17.972079378276895 321.5726704114378 1.2126762504389146
