M[M_sun], R[km], Lambda[1], P_c[MeV/fm^3], rho_c[fm^-3]
0.23841724892012095 16.20908015294055 2780876.1263280716 3.453507347168396 0.169602847481901
0.24842270274264697 15.866027426467902 2281800.2760008434 3.635709919099844 0.1719805186075792
0.2587101006503718 15.562591375098041 1881015.723162744 3.825098140855761 0.17437897186580345
0.26928720568566783 15.292980774963842 1557531.3128944067 4.02080033176463 0.17677301685550856
0.2801486572426125 15.053178859109156 1294727.5698966552 4.223108526771266 0.1791537104552822
0.2912911211480017 14.839071786402132 1080438.9614716966 4.433405178844686 0.1815582047114916
0.30272143578445004 14.647570776883775 904821.5082832876 4.652038370533402 0.18399032416323122
0.3144345225984526 14.476074428366436 760288.5306951399 4.879375729057932 0.18645171304677657
0.32643163553263616 14.322250573333422 640878.5455653587 5.112799230651033 0.18888401153044188
0.3387136123236596 14.183988423919418 541843.4815784375 5.355376474573999 0.19133676789368173
0.3512766541918963 14.05972075962567 459423.25977732026 5.607663034700107 0.19381954573189172
0.36412343181512286 13.947883676176366 390578.31418751844 5.8700722397177945 0.19633786509760784
0.3772615780819081 13.847232018144402 332864.390038945 6.139621517999671 0.19883393826478565
0.39068018192344633 13.75667738268548 284406.22229405044 6.419499004412552 0.20135804949344668
0.404381365278538 13.675148415922859 243571.30245505486 6.710628756775827 0.2039166269513149
0.4183677640550767 13.601694068009072 209036.3537147012 7.0132823736514265 0.20650417001042673
0.4326419704168924 13.535732270645324 179791.26259366528 7.323747979961149 0.20906559808258082
0.4471948958319327 13.476354940663011 154937.21356607907 7.646773665223461 0.21167146034950393
0.462038185986381 13.423230957867133 133782.6984300008 7.98289396518073 0.214321721790271
0.47716435633925053 13.375654696279128 115737.68478144683 8.330427387325445 0.21698252609851265
0.49256450491865145 13.332905108611373 100300.94703882527 8.688841186122712 0.2196370115324774
0.5082532000465052 13.294940876199309 87067.346184933 9.061876552413867 0.2223397859269496
0.524219773300566 13.261101585257615 75707.1111828446 9.450140307036639 0.2250935241750305
0.5404701870173526 13.231087620855401 65930.80180954946 9.848558541239044 0.22782560751169043
0.5569934511745769 13.204642712642151 57511.95771490373 10.262634104005546 0.2305999074722325
0.5737966224404596 13.181332306070969 50238.42640148839 10.693659771796657 0.2334247399576114
0.5908819659946072 13.16100207013389 43945.29357333594 11.139072778844108 0.23625864893415213
0.608229052626273 13.143309806423492 38497.220889703225 11.598876376877719 0.23910535187952417
0.6258560166128696 13.128082931396333 33766.37703424381 12.077556304738975 0.24201141411959562
0.6437438266518738 13.115164876577357 29660.433247979683 12.575297822963172 0.24497100881270406
0.6619032133911861 13.104144987414356 26081.405962349785 13.086081616233464 0.24790407000430592
0.6803255087733054 13.095168541531931 22966.406907291286 13.617859105974368 0.2508957663475787
0.6989924558207828 13.087688541325097 20245.25785557965 14.17153940449288 0.2539481021141691
0.7179320893102665 13.081829791943372 17866.949252254824 14.741725039714582 0.25700282447347783
0.7371222306858721 13.077363081369095 15787.047272221478 15.332816096904502 0.26009985925052415
0.756548400030345 13.074148655145823 13964.196299361289 15.948209127111365 0.2632625831645867
0.7762200003289171 13.071971681311302 12364.544070508471 16.58570906343105 0.26645743538520983
0.7961262144841103 13.07092794807958 10960.090841643025 17.243028677323185 0.2696590146071567
0.8162762129975839 13.070750941089862 9725.150511363423 17.927452598185205 0.27293281239407136
0.8366411806805919 13.071387976561509 8637.779663538959 18.640016111045508 0.27628023553880887
0.8572176366172428 13.072626493837765 7680.001978673879 19.372052995189723 0.2796190099655176
0.8780221989917346 13.074586934874223 6835.161649846365 20.133667639821077 0.2830237521792052
0.8990263037747743 13.076973474911343 6088.210046724475 20.926636210711433 0.2865014017263767
0.9202366933730356 13.07982067246082 5428.192289666541 21.746659035903555 0.2900101529329731
0.9416192699907175 13.082971165636392 4844.670315753571 22.594861760526282 0.29355771866874164
0.963202796044238 13.086440403140266 4327.4079938652885 23.47796384400549 0.2971888405373885
0.9849574893233934 13.090138030536815 3868.693543120851 24.3972805362854 0.3009038888744915
1.006882295095904 13.093943431343305 3461.6030085483585 25.343103217129944 0.304610478616222
1.0289390886600454 13.09771146126767 3100.2257711393304 26.32745616211529 0.3084008658799197
1.0511690766077078 13.10169133603272 2778.8213630345804 27.35226183801175 0.3122799970595994
1.0735227007005856 13.105495226830492 2492.8183061683567 28.415358880406075 0.31622518166879693
1.0959885912281977 13.109151998669928 2238.1494556373254 29.51379636350607 0.320209078336835
1.1185895074239134 13.112669723209102 2011.066680407871 30.657376110021534 0.3242816261838206
1.1412741313598946 13.115951606796804 1808.6082008077512 31.847957878565836 0.3284448796898129
1.1640629308284913 13.118945479214135 1627.6583635787229 33.08173409237441 0.33267080930806775
1.186927360044706 13.12168313920499 1466.2048191154813 34.35964327962907 0.33695954905921377
1.209852480474472 13.124040027391754 1321.687537947575 35.690211542882366 0.34135429837015124
1.2328232474088754 13.125844226649535 1192.3657587004388 37.07546492542871 0.3458531707168207
1.2558468218859926 13.12734400658036 1076.5631300144141 38.513837057892204 0.35042663726892703
1.2788690885430303 13.128143477258261 972.727193845021 40.003307561779124 0.3550669772175141
1.3019170314466926 13.12850933184511 879.5942004318325 41.554446455557716 0.3598249517258707
1.3249524517963238 13.128252590999592 796.0466636251776 43.16972767092343 0.3647026591502928
1.3479734670524588 13.127365310515907 720.9384023252617 44.851750791940475 0.3697011809942763
1.3709611915661457 13.12582348247956 653.4100662333257 46.595344212974474 0.3747683619562221
1.3938950541922706 13.123550190760538 592.6674665314627 48.40840733579277 0.37995110839225454
1.4167474664876631 13.120521156660764 538.0001244617462 50.29722612072255 0.38526978555790314
1.4395048458150463 13.116614072751752 488.73520096383 52.265014060999896 0.3907271004178634
1.4621662380192633 13.111932096240322 444.3406657206358 54.31517324785283 0.3963240288276386
1.4847155566523254 13.106435051361501 404.27577020137164 56.44928746939909 0.4020462385718629
1.5071163494833995 13.100000037635303 368.1035109775791 58.66606562739063 0.40788836933113265
1.529366486630457 13.092676736844787 335.4290034698052 60.977159749474296 0.41389201162835526
1.5514122656834668 13.084285329991339 305.88829552231465 63.386852534003026 0.42006004652042733
1.5733081464344885 13.07511487045639 279.1704101181089 65.89968946442993 0.4263929701248418
1.5949553793073254 13.064662023635885 254.96907560977215 68.52057428900734 0.4328978933921219
1.6163760212144151 13.053279586257219 233.0612084977333 71.25460900215612 0.4395889511153861
1.6375501954519005 13.040826109174624 213.19663276786582 74.10727459773354 0.4464729580121896
1.6584615047036 13.027329876642629 195.18958575473016 77.08443598663992 0.4535532399333001
1.6790674221612694 13.012579934355745 178.83736875037002 80.18896625218164 0.4608183736231233
1.6993591255253506 12.996641000410001 163.98089804637942 83.43049735315965 0.4683021899854591
1.719296060218711 12.979542804150885 150.48923405095056 86.81728364422125 0.476019295927674
1.738905460337438 12.961270395264163 138.21394398587657 90.35691005057235 0.4839740116294381
1.7581494619923959 12.941700545338023 127.04208667525104 94.05749755971785 0.49217440036376203
1.7769953524567197 12.920969820790683 116.87542260250127 97.92778575110003 0.5006407355807776
1.7954139071577955 12.898829230466056 107.60610785678857 101.97710341949593 0.5093883414208602
1.8133981713432548 12.875453913519014 99.16585492186569 106.21541969758816 0.5184238349107191
1.8309507310390474 12.850774601684295 91.45802458412481 110.65344272199427 0.5277608089114493
1.8480319764031623 12.824796627496717 84.41988442649264 115.302694912495 0.5374238025806978
1.8645941503086991 12.79733117231892 77.99786977302365 120.17394783592829 0.5474260653341994
1.8806522752223738 12.768383825515727 72.11853005950584 125.27718947592658 0.5577636131592653
1.8961766694391313 12.738129050654273 66.74301611097061 130.62722857217813 0.5684643502808965
1.9111456126222084 12.706469515421091 61.83545905489367 136.25478054888285 0.5796099710699117
