M[M_sun], R[km], Lambda[1], P_c[MeV/fm^3], rho_c[fm^-3]
0.23841724892012095 16.20908015294055 2780876.1263280716 3.453507347168396 0.169602847481901
0.24840273762735196 15.866552219577937 2282569.603118204 3.6353369647570144 0.1719757744872861
0.25867169746311414 15.563604533251288 1882540.418098284 3.824330985700889 0.17436958717804743
0.26922089959315054 15.294563660306185 1559322.5950823 4.019564401261308 0.17675789759079638
0.2800605982665217 15.054955848376023 1296605.6781656325 4.221416076158767 0.1791339198711465
0.29117588158720387 14.841124929568688 1082348.4707096936 4.431232888964156 0.18153376206269414
0.30258038821545663 14.649814061063557 906700.908324821 4.649361693247796 0.1839613343466768
0.31426540295244576 14.478425632031266 762192.9897681203 4.876113521352297 0.18641717537595476
0.32623325169174444 14.324609901779134 642631.7243401824 5.108875656229223 0.18884312745471007
0.3384873955505733 14.186389497808609 543470.0769247168 5.350848895962395 0.19129159120714026
0.35101772585245006 14.062105310453681 460946.11992583936 5.602503101160276 0.19376995338211947
0.36383605242394446 13.950348411160247 391991.8351367728 5.864249530099691 0.1962839457945006
0.37693835449008395 13.849612321462589 334180.2601329842 6.132833234163459 0.19877107757659254
0.3903209707021063 13.758930307877423 285582.2474300246 6.4119604602674265 0.2012908590313362
0.40398738091178105 13.677274052046297 244632.41639454348 6.702306197362469 0.20384547306567363
0.4179367327959471 13.603858740489219 210008.66742450622 7.0037604310359045 0.20642276197447326
0.4321713363373056 13.537706893687252 180658.89614271538 7.313343417611696 0.20897982998447862
0.44668477884372015 13.478369918816743 155740.59415410217 7.635445769092249 0.21158139779478416
0.4614884561856898 13.425086610272905 134502.0445715921 7.970600431523645 0.21422759936855854
0.4765671615236864 13.377263729249174 116379.59249605829 8.316591362790087 0.21687659397415632
0.49193588167101443 13.334541805163934 100879.08945676331 8.673922736027238 0.21952725360795064
0.5075787439936404 13.296475166539325 87590.13064451834 9.045827301922747 0.22222580975816178
0.5235036036165827 13.26252136430482 76178.18020471373 9.432804392382325 0.22497398583053704
0.539707169212815 13.23235445658633 66355.03979880738 9.82937435443318 0.22769405530699627
0.5561857944684521 13.20587772610285 57895.168697058005 10.242124413820415 0.23046437518418075
0.5729384428137527 13.182441603915455 50582.32125218833 10.671765609016642 0.23328543988452322
0.5899679154216072 13.161985389882837 44258.52982107148 11.114838542751537 0.23610446030895324
0.6072755155764287 13.144244932134784 38775.47846211296 11.573094369828237 0.23894680508547395
0.6248465639054024 13.128926611766563 34020.01745638917 12.050153002002212 0.2418484727808005
0.6426894767473397 13.115860569396988 29884.52839144342 12.545103437395115 0.2447914715629128
0.6607851987660408 13.10484504746531 26288.69781362661 13.054075173803488 0.2477204906286078
0.6791595662681283 13.095588889328459 22970.097882301245 13.583958128569542 0.25070814830229815
0.6977687769756147 13.088039321659956 20411.351225083887 14.135654055077602 0.25375584932409695
0.7166560585078837 13.082118684679587 18016.088160349853 14.702392163668016 0.25679210184475243
0.7357774705781832 13.077600909198344 15921.997982889909 15.291262410938492 0.2598842576502946
0.7551567104862947 13.07433472671126 14085.416607568124 15.90432800257772 0.26304267144354543
0.7747679972839291 13.07212214336301 12475.57658370715 16.537749338417576 0.2662170836216562
0.7946251663565018 13.070994059832314 10985.70427216266 17.192469702071225 0.26941395048220745
0.8147083836727931 13.070710661568285 9815.113704933896 17.874165817999454 0.27268232894192845
0.8350184911382366 13.07128316005155 8719.137581926543 18.582437325898614 0.27601167801752674
0.8555380688955805 13.072514914210261 7753.62998283015 19.3108960642874 0.27934007703012137
0.8762768572369276 13.074375499671325 6901.313331635469 20.0693024395743 0.28273973396216384
0.8972229982843719 13.076688643517317 6148.41353570829 20.858903567018192 0.2862115841896162
0.9183722428711976 13.079602499259465 5483.264863721985 21.67302972941364 0.28969510448547797
0.939715441293957 13.082770784026572 4894.051340970777 22.51745719122953 0.2932358676585101
0.9612213899917736 13.086140049206485 4372.207983624977 23.396583522954245 0.2968598347043951
0.9829141542223483 13.089749248477426 3909.1448790846734 24.309366879665177 0.3005500517585657
1.0047791047781107 13.093574630392855 3498.373526326164 25.25031795764947 0.30424686194901857
1.0267841925738557 13.09738367512428 3133.61840551787 26.22998096408755 0.30802944224314216
1.0489450237788571 13.101212277657352 2809.009225975949 27.24984260149425 0.31189991623961655
1.0712377003910567 13.105066221537665 2520.385200128852 28.304427737954555 0.3158135129138028
1.093654827942544 13.108790231143729 2263.3000134899667 29.39730046759235 0.3197878002838058
1.1161918940598492 13.112289424001634 2033.8032928787723 30.53501548880157 0.32385177659287223
1.1388319792792638 13.115627328623845 1829.292880318894 31.71941443668216 0.32800459276240346
1.1615576105244843 13.118614786652964 1646.5160286503674 32.942735215952446 0.3321947104319495
1.1843642769103808 13.121401542797644 1483.3921812002227 34.21367206673132 0.33647149342746435
1.207232254654237 13.123699011450622 1337.335348515183 35.53686904670187 0.34085354068325546
1.2301710946691666 13.125724279102805 1206.6420062507711 36.914338659635725 0.34534085156752803
1.2531224142609545 13.127150648802663 1089.4788876332098 38.3398227458757 0.34987333912192237
1.2761235469084204 13.128116821862447 984.5621315970052 39.820506538175586 0.3544987191916893
1.2991147275506105 13.12852256939259 890.4272752926681 41.36234334174906 0.35924067666745596
1.3221125225884585 13.128341353514033 805.8689968984745 42.96777337436784 0.3641014538317754
1.345082686498063 13.127568629575945 729.9703472487184 44.63706679586409 0.3690708360152016
1.368016061381244 13.12608214508526 661.6974017385859 46.36628197507738 0.37410266788042973
1.3908936621238264 13.123823758313659 600.2524812315818 48.16753799011816 0.37926505983194514
1.4137333066912725 13.120933241058319 544.9095551524414 50.04383418516961 0.38456208548203263
1.4364485069974018 13.117164742494612 495.0627963667356 51.99833829715414 0.389996704707989
1.4590884890643625 13.112615154782088 450.09524924309585 54.034575953130116 0.39557201727033475
1.4815445502569833 13.10725395633407 409.66494311486724 56.15519582275856 0.4183967158804443
1.5026558907597094 13.100171133388255 374.71331153162157 58.404126406997115 0.4896826754024779
1.5219365574046586 13.090298444196733 344.7501351995486 60.807610618156396 0.5610070680640596
1.5395544026320682 13.077175247711903 318.6764699445972 63.375555461386476 0.6314067580360804
1.5556732524209183 13.060721826065585 295.7374875259778 66.11286231931801 0.7011765915463886
1.5704333264721788 13.040777896967208 275.2748613464686 69.02653577096928 0.7702752630989096
1.583948994549427 13.017262177277217 256.8702620289055 72.12373283411951 0.8386513624017923
1.5963592276778997 12.990613924816476 240.2122619284839 75.4112679161502 0.9067558321744214
1.6077579665694621 12.96060668997423 224.99392099542507 78.89602688635348 0.9746261512562452
1.618236704150106 12.927556535829892 211.0301234661072 82.58907289304298 1.0427803299064489
1.6278661173880098 12.891396393834086 198.13417290363452 86.50011747583974 1.1109053161249252
1.6367243839279868 12.852365882239566 186.1925264000991 90.63972991839998 1.1795115000204779
1.6448725948379654 12.810645286955038 175.10220861174983 95.01949880130732 1.2489005304611005
1.6523332971279538 12.766051489850032 164.74257891659673 99.6517845666812 1.3190066448811346
1.659200029526578 12.719070335496188 155.0704161945011 104.54988195775744 1.3899962390707272
1.665466832509248 12.669536791398748 146.0066289199673 109.72830118954683 1.462222815741882
1.6712003935527588 12.61782611435384 137.5231041113434 115.20250263216946 1.5355000127969993
1.6763942519760298 12.563637670254392 129.53714357121598 120.98927867879475 1.609904297762891
1.6811087650479148 12.507380324003774 122.02818330969681 127.10686553204991 1.686161631643
1.6853443459253892 12.44921046243274 114.98443609230769 133.5753648322708 1.7648442905472839
1.6891107233233116 12.388915029549329 108.3429163690758 140.4096125620787 1.8462147275355285
1.692437512234572 12.326970223219043 102.10773501017135 147.6369260599929 1.9304260724653535
1.6952754303644586 12.263072621411572 96.23827058443813 155.28475063870943 2.017972148361566
1.6976983787341313 12.197635211240714 90.732219328913 163.38125274962255 2.1090095457960762
1.699686119752998 12.130542284459532 85.5477620074432 171.9564566956126 2.203878812615144
1.7012159178655892 12.062029546653424 80.69565467976021 181.04340150227705 2.302917056937315
1.7023106102493588 11.991986426798947 76.12548750963674 190.66609160928763 2.406174514171527
1.7029476793351594 11.920621475239697 71.84213570079552 200.86126133558113 2.514088076943765
1.7031478152481832 11.847838682692199 67.81740618886252 211.6809620645 2.6272747312168914
