M[M_sun], R[km], Lambda[1], P_c[MeV/fm^3], rho_c[fm^-3]
0.23841724892012095 16.20908015294055 2780876.1263280716 3.453507347168396 0.169602847481901
0.24840615806265717 15.86647888915309 2282525.0908489544 3.6354035708901313 0.17197662174248995
0.2586789260224955 15.563373715148522 1882221.552082205 3.8244679844025296 0.17437126309722714
0.26923292178909053 15.294174142023985 1558884.896922797 4.019785100281343 0.17676059742456263
0.2800761863676017 15.054703999026689 1296360.2877545215 4.2217182785288445 0.1791374536590082
0.2911946808439073 14.840706711804653 1082086.712897013 4.431620749763028 0.1815381262800917
0.30260551166006294 14.649435754735483 906406.3818877748 4.6498395866671265 0.18396651018264082
0.3142959890966728 14.478016011083318 761831.5709966816 4.876711007215184 0.18642364646070306
0.3262681790163585 14.324260068599294 642348.9509776937 5.109576089862045 0.18885042604997315
0.33852635770974804 14.186063581164586 543210.4366958151 5.351657115482101 0.19129965571204027
0.3510636007487586 14.061741355088953 460673.2589291347 5.603424157653709 0.1937788056968692
0.36388795733956164 13.949933031528396 391735.2727901784 5.865288843782254 0.19629357001984396
0.3769948476902876 13.849180111583347 333932.3498354826 6.13404481770347 0.19878229705075806
0.39038892560005267 13.75855030260413 285375.24680641154 6.41330588918396 0.20130285073542367
0.4040574018076772 13.676872360709146 244432.20446658597 6.703791485042287 0.20385817156194927
0.4180144958333489 13.603462802762557 209837.6250105562 7.005459654169476 0.20643728951612483
0.43225713032257906 13.537316447265487 180487.3282190363 7.3152000656733485 0.20899513492165372
0.4467775721765085 13.47803041851822 155595.74316900127 7.637467095014193 0.21159746836731969
0.46158609632744085 13.424706364942923 134371.00671059033 7.972793971331335 0.21424439366746245
0.4766667957331638 13.37697152968741 116269.64020058438 8.319059962461802 0.21689549420136695
0.4920474873997083 13.334278443425369 100776.54672013606 8.676584350787518 0.21954683562284552
0.5076977749529592 13.296246422429938 87503.27875521996 9.048690548445633 0.22224614353444336
0.5236326229017216 13.26219863370597 76089.2255570859 9.435981710900752 0.22499643407911463
0.5398450288972634 13.232198536443986 66282.57788558492 9.83279651277858 0.2277175221591337
0.5563278158867753 13.205565019145741 57825.13908936894 10.24578287905669 0.23048855108151292
0.5730927118201993 13.182288605226315 50520.29379483952 10.675670883789294 0.23331028692100167
0.5901315681613748 13.161829351644743 44200.899358425944 11.1191609116225 0.2361319610773402
0.6074465497253555 13.144070517404526 38725.97776544444 11.577692623656382 0.23897508210833265
0.6250260274409716 13.128757920895085 33974.94794987645 12.055040234957819 0.2418775324999314
0.6428751539115105 13.115700188612417 29843.434594701088 12.550488054881486 0.24482348875407248
0.6609833466624434 13.104756598454857 26252.428384799736 13.05978273038538 0.24775322746514805
0.6793630633903447 13.095503463791559 22938.898005776755 13.59000331090845 0.2507416041310268
0.6979885870370497 13.0879532011339 20381.33474284947 14.142052860142394 0.25379013039274695
0.7168831077556992 13.082103196616524 17858.83193490094 14.70940518642955 0.2568296735338878
0.736020764945941 13.077540524063414 15897.51600563373 15.298671140657675 0.2599226978980365
0.7554072673429197 13.07428336683233 14063.844898004925 15.912151423734134 0.26308187877993944
0.7750297028320414 13.07210829334641 12454.956448029361 16.546299271693456 0.2662599318977993
0.7948963047193479 13.071019352743196 11042.161628591517 17.20148269889626 0.26945763732849126
0.8149882163229102 13.070734784519836 9798.784510164447 17.88366476359844 0.2727269803297034
0.8353089441007732 13.071286094942868 8704.635098300274 18.592793609963838 0.2760603594686294
0.8558397602927406 13.072564010031169 7740.487050436504 19.32179672647917 0.27938979426834853
0.8765916739974619 13.074406706158054 6889.377489824552 20.080774550533658 0.2827903558585906
0.8975472975009969 13.07676462859845 6137.513662266607 20.87097545739808 0.28626323794684716
0.918702909467672 13.079660431515226 5473.518781911413 21.686151529780748 0.28975125064562907
0.9400592774186485 13.082800830939664 4884.925699189438 22.531251321327453 0.29329322415241765
0.9615745653643671 13.086192914198355 4339.654062701658 23.411085660879696 0.29691846420974377
0.9832804354299081 13.089898663858676 3902.149689000109 24.32510560562684 0.3006136805643799
1.0051553149295953 13.09364679604394 3491.8647017666103 25.266850552634995 0.30431165162706136
1.0271779536783099 13.097492995118335 3127.645653106014 26.2473486093081 0.3080956206565294
1.0493441225328886 13.101312938837422 2803.743013651208 27.268090505124206 0.3119676347504205
1.0716559265992023 13.105197501332887 2515.4161655657895 28.324190539795527 0.3158868532567333
1.0940720525613192 13.10884650017937 2258.7473383509905 29.418053906344714 0.3198628498656188
1.1166220705799292 13.112377912577085 2029.7309579592195 30.556812923297336 0.3239283503974861
1.1392684541945641 13.115656221293577 1825.5595498977066 31.742312446763737 0.32808302301411346
1.1620143762068402 13.118776456365246 1643.2056686193748 32.96749356013633 0.33227951269901757
1.1848150767818304 13.121414870268254 1480.2710850437509 34.23967134675676 0.33655842217722226
1.2076992678282519 13.123745556346435 1334.5210030635096 35.564180207708354 0.34094272844367873
1.230626017439677 13.12568591284191 1204.1355882248445 36.943035050441885 0.34543209498121497
1.2536069507338519 13.127182208532567 1087.2330484394527 38.370811717216995 0.3499718720541969
1.2766080101023203 13.128119811223835 982.4622609414004 39.853058993721476 0.35459991224717446
1.2996125614994465 13.128521989083355 888.4962099840602 41.39655090520302 0.35934471780317223
1.322609624905486 13.128364359798015 804.1648085727916 43.00373365648896 0.3642085053440994
1.3456049918891504 13.127520457513198 728.3301694997635 44.67586483527395 0.3691863353536117
1.3685446241883805 13.126012105771016 660.145480875498 46.407063657682585 0.37422118643137187
1.3914433637844428 13.123795153590807 598.8420414583073 48.210419948086816 0.3793871970239786
1.4142715286293206 13.120853918059872 543.6625507286161 50.08894356710163 0.38468807178442266
1.4369976490112524 13.117054124028476 493.9330685510678 52.045810373004905 0.3901267255244299
1.4596504428218242 13.112539889298159 449.06553111201794 54.084391035221984 0.3957052314771608
1.4821527148249398 13.10707343410858 408.6168423321416 56.200565554286385 0.4013793394190946
1.5045793974643624 13.101004687742224 372.08546850816987 58.404177677030354 0.40719870507299244
1.5267847062842705 13.093653141540276 339.0762917559905 60.70128266008034 0.413178128649004
1.5488082617480228 13.08534319272908 309.2456674473514 63.09610962623063 0.4193208983574129
1.570686195424421 13.076263763269873 282.24860375801023 65.59315358611022 0.4256281067601359
1.5923171957851292 13.065973067584746 257.80034576361027 68.19724936440475 0.43210399553470435
1.613749870012903 13.054785180228071 235.6478741284156 70.91341764241453 0.4387641711677275
1.634925496957788 13.042530387407005 215.58977688528563 73.74604581753599 0.44561163330681114
1.6558123893527312 13.029075789907772 197.38396270774766 76.69762627912468 0.4526352470606371
1.6764105355396655 13.014452880870335 180.85004009335216 79.77927716497491 0.4598596308391166
1.6967295418703592 12.998823098671442 165.8375435186693 82.99762655609537 0.46730360250344444
1.7167010402068161 12.981891645553741 152.19100772892395 86.35969300599707 0.4749782880816588
1.7363210955593238 12.963822707650472 139.7851190489662 89.87295438066461 0.4828888751039836
1.7555759654340213 12.94449379169578 128.4948426098058 93.54541788216711 0.4910426839226391
1.7744466650650192 12.923916267497459 118.21130936187092 97.38568402415812 0.49945789979489685
1.7928933571772903 12.902046657850192 108.84554932593609 101.402928712251 0.5081510339266159
1.810920803336811 12.878895289785428 100.3044995843308 105.60697243870538 0.5171298237524384
1.8284995818681395 12.854409242920772 92.50915708441903 110.00836118982303 0.5264062879598852
1.8456010388108095 12.828536986026796 85.39698292124024 114.61842539054602 0.5360033923920627
1.8622022925158104 12.801319172207986 78.89633743443643 119.4493234280863 0.5459412838587463
1.8783169448791113 12.772678699812753 72.95371278183157 124.51408413020523 0.556228704991316
1.8938912300047503 12.74274297001581 67.5208331229988 129.82227372834467 0.5668714281641221
1.9089314396588823 12.711395221486256 62.54794260155389 135.3843015598816 0.5778816448374618
1.9233896252819507 12.67854671183174 57.99705301090521 141.22159213566985 0.5892935956022298
1.9365387003928423 12.644907552174573 53.98066361546904 147.52288088941634 0.7617820038210544
1.9457846063025441 12.610336258100093 50.88867858341158 154.55154439612755 1.010309365522055
1.9512269777950528 12.5722224844207 48.45782989970268 162.40733818741427 1.2421835896319084
1.953508397123267 12.529825239463918 46.48064583550456 171.10264357432416 1.4564250281057292
