M[M_sun], R[km], Lambda[1], P_c[MeV/fm^3], rho_c[fm^-3]
0.23841724892012095 16.20908015294055 2780876.1263280716 3.453507347168396 0.169602847481901
0.24841146128541586 15.866380747496862 2282338.2001920007 3.635498936798258 0.17197783483290896
0.25868892805460464 15.563096972870008 1881908.6505847103 3.824664143637997 0.17437366273328986
0.2692489988874742 15.293825065730886 1558518.6722248215 4.020101114723145 0.17676446326166725
0.2800982768262685 15.054252953507973 1295869.9642252245 4.22215100886288 0.17914251376889892
0.29122476390630797 14.840131869375849 1081535.504002614 4.432176152376211 0.18154437568130508
0.3026414417840333 14.648878706360916 905908.9374938292 4.650523931950028 0.18397392200038887
0.3143376824870386 14.477446411945404 761349.8052080414 4.877561408314123 0.18643280762566888
0.3263203271699728 14.323603407702908 641869.6267512038 5.110579174589486 0.18886087830283071
0.3385847344168253 14.185357859514347 542753.6743805698 5.352814590068257 0.19131120512311497
0.3511295278706613 14.061096684815773 460273.562274784 5.604743263332637 0.19379148367996937
0.3639616856392092 13.949249906651366 391369.1882069256 5.866777350776369 0.19630735385332646
0.37707865302409954 13.84858145738679 333607.4868665822 6.135780109336863 0.19879836615289384
0.3904777595696759 13.757906800954874 285060.9526521711 6.415232928107278 0.20132002628461063
0.4041580863515601 13.67630108012122 244159.81793455785 6.705918892448156 0.20387635987347116
0.41812506278937944 13.602910003859904 209581.5755228704 7.00789357098999 0.2064580983359248
0.4323749122046247 13.536897765768076 180282.0816442232 7.317859535037194 0.2090170577687315
0.4469120214432782 13.477535354188763 155389.95214997482 7.640362515361878 0.21162048843657877
0.4617252138710221 13.424244998452656 134190.4274253678 7.97593614704626 0.21426845096424826
0.4768267067597 13.376525254838572 116098.86666130406 8.322596279325206 0.21692256914307295
0.49220847248092875 13.333806015682072 100619.36403083333 8.680397248322814 0.21957488784792448
0.5078691083801292 13.295759389092751 87368.01726056465 9.052792381010331 0.22227527331598626
0.5238137200694502 13.26184621231802 75973.12627816341 9.44038597205829 0.22502663552946464
0.5400381352577449 13.231799773380537 66171.73814567331 9.83769931380066 0.2277511422593839
0.5565369762522437 13.205320473036506 57726.88145813638 10.251024335899476 0.23052318771581676
0.5733089146450431 13.181996886919707 50435.43933013425 10.681266055721277 0.23334588580947696
0.5903571222440807 13.161534339869467 44123.21051154616 11.125353895054316 0.23617136349949963
0.6076946045913175 13.143942047583954 38656.059933024546 11.584281018661155 0.23901559753073318
0.6252822055444488 13.128573057764816 33909.81070363384 12.062042817330664 0.2419191701871042
0.643148820299497 13.115572808184057 29788.22607698229 12.558203600927264 0.24486936575708598
0.6612724375461481 13.104583027557364 26199.278947938594 13.06796116907312 0.24780013654202424
0.6796627921835495 13.095343593220965 22891.73753444231 13.598665703053562 0.2507895443736432
0.6982966788912985 13.08789697010086 20339.384417115765 14.151222145611552 0.25383925408091323
0.7172113432211715 13.082032688150933 17951.773800595514 14.719455019465519 0.25688351468278026
0.7363686318065872 13.077485598013716 15862.105489975484 15.309288229581409 0.2599777847407202
0.7557618723236917 13.074213433246475 14032.49991227848 15.923362994444124 0.26313806594097083
0.7753993769094747 13.07208365507303 12427.283635645985 16.558552481282334 0.26632133926685847
0.7952767268980883 13.070937554680135 11016.177081572348 17.214399778064006 0.26952024763036875
0.8153919961273888 13.070777388327125 9775.979050760057 17.897278534649605 0.2727909741450117
0.8357236838132719 13.071300504606354 8683.51520429013 18.607636716364127 0.276130131981037
0.8562673519818446 13.072521094543202 7721.452646244181 19.337420345938142 0.27946105261916676
0.8770404705220092 13.074502207109408 6872.318112223634 20.09721751135777 0.28286291215295833
0.8980104745488324 13.076768977102235 6122.037984754463 20.888278395900247 0.2863372745522708
0.919183464401256 13.079699131667349 5427.443382988312 21.7049601200258 0.2898317297026617
0.9405447503516002 13.08290316077423 4844.518222882621 22.55102397932707 0.2933754395824621
0.962082599654197 13.086202803948693 4352.539285029852 23.431873566350497 0.29700250592974753
0.983804316901749 13.089963539850405 3891.580703056115 24.34766705438331 0.30070489239723797
1.0056902663762828 13.093764571366908 3482.466986296518 25.290550448578692 0.3044045292805202
1.0277246951685637 13.097582264272283 3119.119523290225 26.272246031853353 0.3081904908534128
1.0499099478037541 13.101411722852596 2795.7813417496127 27.294250312534242 0.3120647145704727
1.072224972533037 13.105248470865313 2508.346183545685 28.352523327226447 0.31599199706999836
1.094666942738513 13.108903427321673 2252.3362180516733 29.447807476404172 0.319970446154458
1.1172327593059599 13.112467954696156 2023.9776057546342 30.58806383570456 0.32403813401725756
1.1399014193650872 13.11582397177538 1820.311656073244 31.775141884883368 0.32819547038775193
1.1626517471388924 13.118819326577654 1638.3738815204024 33.00299182324308 0.33240110133055417
1.1854747683319997 13.121493905753765 1475.8713732167078 34.27694958506152 0.33668306219209343
1.2083722907712855 13.123873561551855 1330.5468976768354 35.6033402285308 0.3410706100285901
1.2313212068268191 13.125747772889332 1200.3376513143335 36.984182113494384 0.34556292671268474
1.2543036534358691 13.12721913093153 1083.9020203397386 38.415248148467825 0.3501131627031422
1.2773198680486035 13.128152026921462 979.4067228114507 39.89973834049433 0.3547450203703186
1.3003217456031153 13.128464087116216 885.7012518467736 41.44560466901518 0.35949391315013246
1.3233409972033272 13.128290202893131 801.5698461001587 43.055301936672805 0.36436202089114195
1.3463525937626264 13.127562843807464 726.0227681465867 44.73141682968679 0.3693514699003644
1.3692998729756076 13.125962312788058 658.066617317219 46.46555013842837 0.3743911581565408
1.3922204453629439 13.123833269199942 596.9320407946979 48.27191989667209 0.37956236232393764
1.4150194264628242 13.120659770354203 541.8902689969418 50.15363950897926 0.3848687615245101
1.4377835581871425 13.116971381694361 492.3050764254394 52.113896499648064 0.3903132059682654
1.4604392910618598 13.112391841818301 447.59705453434384 54.15607127602345 0.39589742801858363
1.4829661379897856 13.106981740026242 407.2629570535945 56.27781264640779 0.4015864623831737
1.5053404732277589 13.100535808845864 370.8473368429285 58.48551118250641 0.4074128913753363
1.527590350970717 13.093358162436965 337.9421856416606 60.78695786486303 0.41339982908299494
1.5496185814335 13.085004539473823 308.200813173305 63.18639841751032 0.41955043721263896
1.571502351780969 13.075843538935407 281.2674576781874 65.68834348860848 0.4258656230649481
1.5931537960429945 13.065634891773719 256.91310328247897 68.29764925918359 0.43235051924903856
1.6145701846667582 13.054362254751243 234.85283065047778 71.01936160477285 0.43902027512005154
1.635744899232921 13.041922800931887 214.826872481633 73.85891181193728 0.4458821180556119
1.6566286700322694 13.028442763115114 196.68986621014358 76.81807012982333 0.4529217756534321
1.6772584502816137 13.014031956331895 180.2269972714561 79.90647160069054 0.460157287650626
1.697538105765536 12.998072524813232 165.2552231167098 83.13201275119656 0.467613617346427
1.7174934467891718 12.981191243657552 151.66784616924778 86.501747737644 0.47530145922602907
1.7371200815760557 12.96295959717548 139.2984500095518 90.02318757744453 0.48322573143049957
1.7563844923576628 12.943673315571278 128.0445480508271 93.70437470416138 0.4913939848173358
1.7752141486965276 12.922921733311357 117.79854231898679 97.55395269098511 0.4998250526573092
1.793691968808157 12.901145081742856 108.45859281840515 101.58114477922558 0.5085350774459142
1.8116906438578682 12.877703930502301 99.93838326949351 105.79581747385585 0.5175314486740781
1.8292631324292004 12.85318398076321 92.17207851954477 110.20856695257308 0.5268266734255116
1.8463555865520442 12.827273016280522 85.08853352936946 114.8307830683739 0.5364442055505423
1.8629472798472166 12.800079779769693 78.61504464302168 119.67468859722062 0.5464038927246447
1.8790451958059378 12.771350402568256 72.68939679549204 124.75285454609387 0.5567121424435518
1.8946193792476131 12.741392457201249 67.28122867083997 130.0729906530497 0.5673690210765717
1.9096137980240366 12.709834893545725 62.32488135919979 135.65585314040902 0.5784245266134229
1.9240636327824892 12.676930997502408 57.787089155011934 141.5177326777593 0.5898973533854669
1.9379122711284154 12.642598284627383 53.63194239423248 147.6761870432146 0.6018053601497014
1.951157034373882 12.60683590312031 49.825326440348135 154.15012082965922 0.61418392188557
1.9637988846424133 12.569646713826844 46.32899765953014 160.95996915298264 0.6270650827094225
1.9757669078376974 12.530896930680504 43.122292817553664 168.11406158761142 0.6404184235433815
1.9870727375710717 12.490518331805182 40.1760954191229 175.64621629810748 0.6543233161768591
1.99771788189809 12.448861461075028 37.46714276403415 183.58406825955987 0.6688261175126043
2.0076562856378137 12.405625044716587 34.97918016200956 191.95206946888715 0.6839397643765025
2.0168827199778034 12.360888149128261 32.691249375425436 200.76502855721816 0.6996655536325349
2.0253960831459223 12.31469949061875 30.585784440085863 210.07209434787998 0.7161086313172612
2.0331400611757022 12.266913903831384 28.647241330602125 219.90037111544572 0.7332736766632122
2.0401463525527777 12.217602511167343 26.861007318197245 230.2774573531351 0.7511919083515068
2.0463894458906173 12.166940170040629 25.217173717343332 241.2614413431306 0.7699765656805678
2.051843246413543 12.114659089452132 23.698593507453705 252.86832065711133 0.7895747760698473
2.056495975814889 12.060876680405654 22.29847975677555 265.17263019076506 0.8101556469630499
2.060335513678319 12.005619623621838 21.007959860454456 278.1977175790158 0.8316845591981646
2.0633743449633415 11.94899582503336 19.818513375406514 292.02359373262686 0.8543045594259221
2.065577253600973 11.89072137291712 18.716353050327026 306.6865758599411 0.8780243258285192
2.0669388015959886 11.831218147925968 17.703263551626655 322.26778613304145 0.90295539475976
2.0674682779235787 11.77022193782355 16.765936353690215 338.8381295441945 0.9291967676366818
