M[M_sun], R[km], Lambda[1], P_c[MeV/fm^3], rho_c[fm^-3]
0.23841724892012095 16.20908015294055 2780876.1263280716 3.453507347168396 0.169602847481901
0.24842379888087612 15.865952970782558 2281770.5238123825 3.635716301582357 0.17198059979517064
0.2587131840870736 15.562473746319135 1881060.8495886633 3.825111270365519 0.174379132480444
0.2692876870118488 15.29297252111817 1557439.642396334 4.020821485771802 0.17677327563464967
0.2801512342709546 15.053098625788303 1294548.6953910345 4.223137496533115 0.17915404921170147
0.291292019894016 14.83906096206068 1080437.4196596758 4.433442364557237 0.18155862312586635
0.3027239836710227 14.647585898774633 904794.2788921979 4.652084193468776 0.18399082044961493
0.31443827193099827 14.476009161283539 760237.9920783616 4.879430627651806 0.1864522850961449
0.32643437140691006 14.322252323906351 640855.7465346131 5.112866409198888 0.18888471153827727
0.3387166149117353 14.183997896145712 541835.826561335 5.3554539995527195 0.19133754144660334
0.35128115172002267 14.059725944517421 459378.6985246502 5.607751392720272 0.19382039494473668
0.36412790620412155 13.947857508300777 390539.67955758504 5.870171952896144 0.19633878845897046
0.37726981085936384 13.847184140821643 332848.7472015784 6.139737775840735 0.19883501483260066
0.39068714252820336 13.756587999530089 284377.0493026862 6.419628118793738 0.20135920027996063
0.4043875485997526 13.675033313264331 243550.6835124011 6.710771307130044 0.20391784568837623
0.41837395642812897 13.601692285676124 206442.1065581767 7.013445480662517 0.20650556449703092
0.43265101745352186 13.535753951216968 179780.10468823707 7.32392621558167 0.20906706733517144
0.44720348230622475 13.476319935575557 154925.58340664252 7.646967728369683 0.21167300325054428
0.4620475144181233 13.423206189435389 133773.01622752965 7.983104582070433 0.2143233343267691
0.4771723745335922 13.37564133443733 115726.62648428035 8.330664450567857 0.21698434111501624
0.4925762357064654 13.332916912839346 100290.83543375543 8.68909680839824 0.21963889219502916
0.5082654476498875 13.294883597819913 87058.35256082108 9.062151564263957 0.22234173896500967
0.5242319269675267 13.261050459708926 75698.67324662555 9.450435615548406 0.22509554920148492
0.5404847227194444 13.231136507040508 65930.09057615945 9.848887316063124 0.22782786202752647
0.5570074889206392 13.204619558555773 57508.432186531994 10.262985611945401 0.2306022303096292
0.5738134597633635 13.18130396988288 50232.14167024512 10.69403502542252 0.23342712748245234
0.5908965851686292 13.16097989378016 43940.547881052786 11.139488176412282 0.23626129187200678
0.6082491389239295 13.143279427034344 38491.79082909436 11.599318325184763 0.23910806964649567
0.625872365622384 13.128066152650824 33762.33488979175 12.078026066394166 0.24201420734469503
0.6437672416413606 13.115212532352793 29656.184155134535 12.575815477218235 0.24497408680947558
0.6619228210925433 13.104153233424856 26078.74995684633 13.086630361255295 0.24790721744153657
0.6803448384110226 13.09510928503135 22962.48380448383 13.618440358367602 0.25089898317040155
0.6990140023979893 13.087660785222702 20091.570675468 14.17215470726477 0.2539513985478548
0.7179563930216488 13.081888900683763 17865.635652259985 14.742399516760651 0.2570064379284409
0.7371459088869567 13.077424790517831 15784.304339289942 15.33352868737534 0.2601035565313369
0.7565719630973783 13.07415257552145 13961.676979376998 15.948961662720373 0.2632663545219227
0.7762423027637514 13.071984495362955 12362.895194335095 16.586531621774288 0.2664615576638169
0.7961495495828033 13.07096692145317 10958.663499597793 17.243895852729413 0.2696632178881972
0.8163030262509667 13.070819852867432 9724.044626608465 17.928366599384923 0.2729371088100862
0.836668616972728 13.071379643710822 8636.560477429299 18.640979330817714 0.27628462872392345
0.8572510299432334 13.072627917176352 7678.959360448519 19.373102134677943 0.2796237950250811
0.8780549721410346 13.074556843591939 6833.370875988221 20.13477186389241 0.28302862468407974
0.8990600518452027 13.076945269322618 6087.198372970492 20.927798254822733 0.2865063739339207
0.9202669675566327 13.079827535008338 5427.566844536466 21.747922369405128 0.29001555854219735
0.9416601798085557 13.082997841124648 4843.770686747092 22.59618992680751 0.29356324123237393
0.9632357138380971 13.086477300396938 4326.799595358901 23.4793602892463 0.2971944861114505
0.9849914178479098 13.090065302396628 3867.8586472824804 24.39874880157549 0.30090964286746774
1.0069174840067838 13.093968787225602 3461.0994329453283 25.344695594741143 0.3046167189936608
1.0289753308084923 13.097744224341062 3099.691469922003 26.329129100838347 0.3084072405167217
1.0512058687113484 13.101626539506897 2778.271174398296 27.354019706767595 0.31228652056261375
1.0735606097709747 13.10548229173476 2492.274213373956 28.41726304034446 0.3162322480627222
1.0960290756697666 13.109119378682562 2237.7402692967207 29.515796132545002 0.32021630999766404
1.1186303391849557 13.112681234322407 2010.700087179945 30.659476647060377 0.32428900531427873
1.1413225081603129 13.115946298687325 1808.1496790496294 31.85016465452409 0.328452438337628
1.1641093416010413 13.11900285440114 1627.4425961822183 33.08412061735952 0.3326789836321521
1.1869694177798535 13.121687232361724 1465.8987061616708 34.36214963093675 0.3369679290599452
1.2098866717560905 13.123981418548476 1321.4239491993221 35.6928445838827 0.34136289687059096
1.2328786939192684 13.125915669376255 1192.1305054665168 37.07823175290842 0.3458619681570994
1.2558843277048497 13.127282978037275 1076.3335383373703 38.51682552583759 0.35043613944008417
1.2789169186826281 13.12814445757421 972.5159707917089 40.00644708245812 0.35507673677896473
1.3019678768325695 13.128498330064636 879.4230468313269 41.55774589858191 0.35983498686911997
1.325001703331 13.128264684323488 795.8655171161955 43.17319648690452 0.36471298559866433
1.3480314209166178 13.12737133384407 720.7577714483091 44.85539882338113 0.36971178279813816
1.3710001066794477 13.125782251606822 653.2594774476559 46.599279295001224 0.37477979797822647
1.3939394239500722 13.12353845599103 592.5489787745413 48.41254547192683 0.37996289470872907
1.4167839325588003 13.120434637687486 537.9017813532872 50.301579630236986 0.38528194450450476
1.4395661396971462 13.116680131653103 488.659204628584 52.269596052203696 0.39073964998993427
1.4622224746456312 13.111950370849002 444.25659074958264 54.319997488044834 0.3963369640838477
1.4847672277340969 13.106422362256305 404.1929255391283 56.45448723299982 0.40206018072062105
1.5071747197846477 13.100001969967144 368.0207932219669 58.671540902470156 0.4079027880988562
1.5294137535472097 13.09263202815911 335.34123025152144 60.98292777870169 0.41390693747050794
1.55146792804909 13.084264840347121 305.8227953425615 63.392931683888136 0.4200755013857057
1.5733671847973087 13.07508466134838 279.1107052338644 65.90609916046462 0.4264089634946969
1.595007705826705 13.064634366032328 254.9126495994917 68.52733540254727 0.43291449475237803
1.6164206759828774 13.053218183276725 233.0088249847665 71.26174411043291 0.4396061991905881
1.6376063268629024 13.040777767181378 213.1428933305419 74.1148077892732 0.4464908790165298
1.6585091177297202 13.027183327364146 195.13060119836166 77.09239288665245 0.4535718604450694
1.679129538307991 13.012631519474514 178.79321374555477 80.1975356893046 0.46083842757686816
1.6994109715864565 12.99662105045563 163.93492536155466 83.43955221535337 0.4683230786018761
1.7193563364730577 12.979555265890582 150.46023038104963 86.82685618023376 0.4760410732200023
1.7389684879981049 12.961226958348137 138.17955231904622 90.36703475716031 0.48399671347923806
1.7582038695270046 12.94165380664903 127.01162548899985 94.06821132315648 0.49219807820680356
1.7770329889454455 12.9208227321469 116.84050923385402 97.93912837802878 0.5006654845612188
1.795458156849974 12.898737764324773 107.58400210586099 101.98911792761102 0.5094142318697826
1.8134547957537157 12.875333339693661 99.13850093513466 106.22815222716247 0.5184509137332494
1.8309959298664313 12.850617489266483 91.43635765553637 110.66694282002858 0.5277891559725938
1.8480651318734282 12.824655023960716 84.40511110635131 115.31701615987092 0.5374535306995665
1.8646311884465263 12.797155955593801 77.9808992220349 120.18892796177535 0.5474564479399309
1.8807078563692055 12.768376089040549 72.10552513794003 125.29310279069314 0.5577955247934421
1.896215701786658 12.73809574376518 66.73827698290941 130.64716013391734 0.568508563867952
1.9111873121066887 12.706380126841337 61.820385683989365 136.26639699869716 0.5796240685473271
1.925579125529524 12.673280214334207 57.321873189075454 142.16729674725264 0.5911595574871549
1.939380119017819 12.638790353906037 53.20387622970922 148.36763192933884 0.6031354091195374
1.952585675723112 12.602824701290313 49.42379755818652 154.88655222920352 0.6155872351982022
1.9651579485455808 12.565263412249257 45.95417943080108 161.73761223807574 0.6285216634126507
1.977067675273825 12.526402704178803 42.77779223425288 168.94135193085754 0.6419505338671374
1.9883197848741123 12.485911675500176 39.855346402829575 176.52903438299066 0.655944225533275
1.9988968980656323 12.44390305960961 37.16843558620182 184.52669239363271 0.6705422699389008
2.008760514851607 12.400430778740263 34.70183145513801 192.94901585952456 0.6857228079932014
2.0179141588767937 12.355486461775044 32.432558359774205 201.83097703723755 0.7015568838306634
2.026349835652715 12.309092101278853 30.348489696640303 211.21252078443084 0.7181163430436874
2.034029451905496 12.261100297107149 28.426401939610244 221.11029438253058 0.7353688316663453
2.040952927164989 12.211623035544363 26.655148211550674 231.57373892978543 0.7534200119798378
2.0471001517447904 12.16060610490256 25.022842425978443 242.6408927447713 0.7723125614637155
2.0524527177351986 12.108060532114896 23.518789121147957 254.34718801659727 0.7920594813317635
2.05701455275565 12.05407903712661 22.133253159777322 266.75110557137896 0.8127747671636973
2.0607694510553785 11.998584945059429 20.85217381773273 279.89104704935056 0.8344683451459051
2.063705864905767 11.941658342591108 19.671701500918303 293.8319145591167 0.8572381699396077
2.0657948959365786 11.883180340066453 18.581768422066585 308.63253801802813 0.8811598454132779
2.067051901186386 11.823385546930728 17.577261067271564 324.3502724636076 0.9062655355706296
2.067470240805965 11.762158763954721 16.64841187831637 341.07070392718504 0.9327021274312141
