M[M_sun], R[km], Lambda[1], P_c[MeV/fm^3], rho_c[fm^-3]
0.23841724892012095 16.20908015294055 2780876.1263280716 3.453507347168396 0.169602847481901
0.24841254908919957 15.866330531992727 2282294.991824831 3.635523468069941 0.17197814687996257
0.2586913009812573 15.563024997279136 1881806.6845661178 3.8247146034442583 0.17437428001327943
0.2692544125678585 15.293667602168249 1558301.4005758506 4.020182407933074 0.17676545772984886
0.28010501411194066 15.05408329251962 1295655.1154503739 4.222262329136945 0.17914381548679462
0.29123219591087984 14.840015656110722 1081369.2574717263 4.432319033264335 0.1815459833798906
0.3026493435310936 14.648732795936043 905820.9920542946 4.650699987827716 0.18397582877772992
0.314350186129464 14.477278428383944 761214.6031057761 4.877772319336399 0.18643500534164936
0.326333265117873 14.323457057960482 641784.3064225533 5.1108372415520025 0.18886356738887958
0.3386004524442535 14.185173970838854 542658.4591611853 5.353112383264561 0.19131417653698488
0.3511481275172199 14.060902181811716 460195.09737176663 5.605082647190358 0.19379474551325643
0.363979639119232 13.949217321165467 391322.2808938454 5.867160325886917 0.19631090026941495
0.3771002584868073 13.84838504639251 333519.7903271836 6.136226590512997 0.19880250064618762
0.390500605971953 13.757802643958556 285007.5980296477 6.415728753802966 0.20132444554076648
0.40418456507455036 13.676225515149797 244104.34986049 6.706466282471832 0.20388103979526098
0.41815298709190174 13.602785357479975 209522.16757637955 7.008519843312509 0.20646345266348243
0.43240920074454714 13.536839134460712 180229.97939238243 7.31854385615594 0.20902269884414387
0.44694420675692026 13.477439923155 155331.5122902288 7.641107562725391 0.21162641194330659
0.461761766524321 13.424188610997343 132653.04387715063 7.97674470264201 0.21427464147162265
0.47686605121468545 13.376393127265057 116051.68918006119 8.323506280825102 0.2169295363461019
0.4922506476300065 13.333740991170309 100585.03129216567 8.68137843818849 0.21958210665165637
0.5079125168715706 13.295667769426242 87330.82227140096 9.053847940451465 0.22228276953028578
0.5238606928552644 13.261807523720721 75942.56188838574 9.441519375592005 0.225034407645905
0.540088552024132 13.231777508471007 66146.05858726247 9.838961046988189 0.22775979437397362
0.556590934675024 13.205204946684864 57702.68199495619 10.252373242476331 0.23053210157034495
0.5733675467324576 13.181829260390662 50409.451784485485 10.682706013566834 0.23335504744014288
0.5904289716814897 13.161465603808853 44098.5376860215 11.126947748150778 0.23618150427789156
0.6077527967288938 13.143742074013398 38635.82780568081 11.585976661444947 0.23902602490850516
0.6253498428187694 13.128513443076452 33894.352178677305 12.06384508484113 0.24192988655526768
0.643217105764901 13.115522106979206 29771.01363672443 12.560189421483722 0.24488117354037342
0.6613397007537002 13.104457120375447 26185.466817616612 13.070066158557731 0.24781221013177984
0.6797390530554008 13.095314260178396 23055.868001715346 13.600895285225109 0.2508018835414442
0.6983801714184648 13.087863887371165 20328.426831119177 14.153582228149062 0.25385189802781716
0.7172941459639502 13.08197362625548 17941.38139103502 14.722041821045613 0.25689737325819445
0.7364519323544411 13.077480954837498 15854.14935594004 15.312021079150487 0.25999196415047854
0.7558549092426324 13.074180306384669 14024.059343678227 15.926248903820877 0.26315252877218936
0.7754946427574363 13.072061248631721 12419.434004541363 16.561706606730123 0.26633714627187427
0.7953738733801351 13.07098592589616 11010.399467767977 17.217724836787433 0.2695363645038299
0.8154901478768521 13.070723330958346 9769.585035253469 17.900782980216086 0.27280744737946644
0.8358309095401586 13.071300204033369 8678.20884331266 18.611457732373136 0.27614809330797946
0.8563762200968602 13.07257721165416 7716.887946751604 19.34144234140086 0.27947939668882515
0.8771556451648349 13.074457020468332 6867.750564564205 20.10145048733491 0.282881590604749
0.8981270645908704 13.076804199145535 6118.366686281214 20.892732819282422 0.2863563343429702
0.9193056144991866 13.079715121529091 5455.7900238781995 21.709802305005606 0.2898524486654375
0.9406748671145593 13.08287816381081 4868.916547334753 22.556114427824276 0.2933966058521829
0.9622109192401133 13.086252817119759 4349.537170204856 23.43722546183589 0.29702414266955784
0.9839422233807945 13.089965406406762 3888.888202610157 24.353475738030554 0.300728375848486
1.0058267151742841 13.093753115404775 3479.968327022218 25.29665232074138 0.3044284419411295
1.0278682847310752 13.097594878615984 3116.820744419758 26.27865631195908 0.3082149168571328
1.0500555477914508 13.101468980855186 2793.9494687772817 27.300985709018992 0.3120897098263043
1.0723853279952127 13.105304607256606 2506.511769320899 28.359818442499474 0.31601906945883
1.0948351168177717 13.109015977395064 2250.6455602795686 29.45546852171129 0.3199981503943871
1.117393053524859 13.112515520797992 2022.4008144561005 30.596110535483145 0.32406640185844554
1.1400636497893337 13.115802226512018 1818.7716011224366 31.78359515518504 0.3282244245246036
1.1628146409878575 13.118841996956004 1637.1423280316235 33.012132599306945 0.3324324103117695
1.185644825177401 13.121508080512221 1474.7299658596032 34.286548843335474 0.3367151573700961
1.2085404559390258 13.123851998556216 1329.4919257850638 35.61342420089601 0.3411035404086355
1.2314928804518706 13.12573357371701 1199.4550612854503 36.99477792196997 0.34559661728173974
1.2544874627527618 13.127223837632407 1082.987901220925 38.426691403304325 0.35014954782355767
1.2774794504126308 13.128238485949394 979.0748922519796 39.91175937468858 0.35478238913896626
1.3005085354423411 13.12846803858229 885.0088773596276 41.45823736936004 0.3595323350766988
1.3235393622111529 13.128325096729023 797.6217245046104 43.06858240649381 0.36440155601975754
1.3465236566830872 13.1274184283265 725.4201545645055 44.74538266632544 0.36939205701240513
1.3694996410626195 13.126004399466447 657.5519292295343 46.48061305528214 0.37443493357149243
1.392398609416222 13.123692139794814 596.4283918528112 48.287759182476684 0.37960747607302076
1.4152313908493477 13.120777860351016 541.4781655666743 50.17030220607969 0.38491529888560033
1.4379728880520661 13.116906118160877 491.91485334196415 52.13143265852284 0.3903612355867995
1.460625763058025 13.11229594839108 447.22691816356087 54.17453345843056 0.3959469307485702
1.4831687549419654 13.106859247258809 406.8984637718814 56.29770939833693 0.4016398116306591
1.5055459002781515 13.10044912619387 370.5140049965559 58.50646086942808 0.4074680609632048
1.5277916179707849 13.093260081788337 337.65013390877004 60.809026292657016 0.4134569352204338
1.5498485333110452 13.084969316177501 307.91555765955684 63.209655673636334 0.4196095635324313
1.5717094272832266 13.0757315181453 281.02478925112007 65.71286369389118 0.42592680548450235
1.5933521836339277 13.065492053492893 256.68692318724584 68.32351204250853 0.43241402319416056
1.614777176993972 13.054176603451205 234.6330513913081 71.0466530930837 0.4390862482804434
1.6359589113054618 13.041834294199951 214.64145492987402 73.8877238867995 0.44595066022873153
1.656855160530663 13.028377928743216 196.51455536231242 76.8490987589587 0.45299559087430846
1.6774693136584484 13.013831647086345 180.06663114313244 79.93924003293863 0.4602339714065329
1.6977489681389741 12.997901416328984 165.10141533322235 83.16663474226571 0.4676934866448841
1.7177186087637453 12.981010449264016 151.52573430759733 86.53834622803323 0.47538471992339687
1.7373321070349765 12.962768808547683 139.16280039721767 90.06189406094165 0.48331251999735864
1.7565792353915197 12.943345231281599 127.92025078005327 93.7453297649133 0.4914844971294467
1.77542575843199 12.922677933237688 117.68452900719473 97.59730802320718 0.4999196515783462
1.7938766902442 12.900744451563279 108.35648114215192 101.62706429110851 0.5086340308750149
1.8118984660655324 12.877547067436497 99.85078203458237 105.84447694729984 0.5176349348853697
1.8294587554005883 12.852949650781428 92.0949295403578 110.26015512200267 0.5269349965643093
1.846551860164141 12.827068861758649 85.01336877027174 114.88550400456732 0.5365577955509845
1.863140270931786 12.799725303913798 78.53997051757861 119.73276298842437 0.5465231024869861
1.8792312017852304 12.771052313571587 72.6266953540346 124.81365041048035 0.5568340589274665
1.8947889963988407 12.740944174214272 67.21774936557954 130.13760065953903 0.5674972512761893
1.9097991506051355 12.709517426860799 62.27111024446124 135.72455286809185 0.5785595016902902
1.9242429891873598 12.676631743282414 57.73729284897771 141.59081932998566 0.590039372127807
1.9380838952463082 12.642225018500316 53.58474652882603 147.75398192378213 0.6019550047603331
1.9513223124247818 12.606397585576971 49.77799450328503 154.23297274343727 0.6143418010765629
1.9639419260052118 12.569096274515394 46.286266595233556 161.04825649280747 0.6272317775033124
1.9759004262968234 12.53025584727134 43.07929858928344 168.20712752853848 0.6405907781345459
1.9872206708317421 12.490123500028073 40.139565573273536 175.74552308669962 0.6545056496672361
1.9978673417846335 12.448341877405442 37.43204396156063 183.6900962501918 0.6690191533015271
2.0077781995866215 12.405033573175096 34.949268680527666 192.06420351650544 0.6841403166827228
2.0169973430478327 12.360290918163372 32.662494597089136 200.88491629849105 0.6998782724549781
2.025513327222908 12.314102986067516 30.55861448568258 210.2003504453929 0.7163344251630626
2.0332425808539787 12.266241103632797 28.62135738046913 220.03643709775972 0.7335092943518349
2.0402409688114016 12.216961369573283 26.836956976657877 230.4232252127984 0.7514424603171137
2.0464682189945598 12.166219016072986 25.194583695378647 241.41751229188347 0.7702425226356597
2.0519095510810876 12.113832021555899 23.677100757894912 253.03460055912097 0.7898541497032053
2.0565612035962944 12.06015869878988 22.279618829830603 265.3511411936894 0.8104534876698863
2.0603859544272316 12.004841620607545 20.990129801577492 278.38808666528416 0.8319975206132478
2.0634069339561933 11.948107568557946 19.800553528163743 292.2268787010042 0.854634345441639
2.0655955668404378 11.889912854136995 18.70204952735201 306.90531674349444 0.878376781975479
2.0669607533930177 11.83028553972746 17.68833741572966 322.501858636496 0.9033274562398356
2.067462829280772 11.769297560134044 16.7524263324078 339.09008667490144 0.9295942032535286
