M[M_sun], R[km], Lambda[1], P_c[MeV/fm^3], rho_c[fm^-3]
0.23841724892012095 16.20908015294055 2780876.1263280716 3.453507347168396 0.169602847481901
0.24839507918556236 15.866870504267158 2282990.0905026156 3.6351828930880368 0.17197381463738637
0.25865194200126096 15.56408492004781 1883060.0888968273 3.824014096976674 0.1743657106457563
0.269193764928071 15.295122918365601 1559938.715372437 4.019053929913642 0.17675165294240183
0.2800230880571432 15.055699791441016 1297455.4667059141 4.220717117980216 0.1791257466396573
0.2911302339062615 14.841868981037731 1083112.6817813301 4.430335848352953 0.18152366854395466
0.30252253684605923 14.650669215778297 907483.0334198115 4.6482564683701915 0.1839493641825388
0.314197513193294 14.479408534475189 762928.0311532699 4.874731777975027 0.18640221037167587
0.32615279082571524 14.325648482568294 643388.4771007133 5.107255896375423 0.1888262493794117
0.33839285934058005 14.18742508105436 544179.5553582599 5.348979947588065 0.19127294263091169
0.3509127245252253 14.06320518107578 461585.14903928 5.6003733003261855 0.19374948377197931
0.36371428013996066 13.951194457480836 392555.1732489101 5.861846360048462 0.19626169202213187
0.3768019340056579 13.850564585152638 334725.0224065352 6.130031861005736 0.19874513637424612
0.3901740804675732 13.759953939345124 286085.3407671009 6.408849719011598 0.20126313323462247
0.4038228062518379 13.678210815352626 245067.17723193162 6.698872202817067 0.20381611406166533
0.4177573659520363 13.604766084999552 210418.25115042838 6.999832004034029 0.20638917581043906
0.4319787678245602 13.538612533326592 178862.29077670234 7.309051176294411 0.2089444476817911
0.44647836379298467 13.479192129354209 156063.69198381438 7.6307729664295625 0.21154424662914598
0.46126261199245283 13.42578527510929 134796.97329431894 7.965529666987436 0.2141887763050363
0.47632191439693444 13.37798156747387 116650.59214078472 8.31088502597362 0.21683290480753795
0.4916769779059503 13.335306385566884 101117.78748516834 8.667770413636065 0.21948198978145705
0.5072944209523202 13.29703031247531 87812.54658059619 9.039209099656404 0.22217880959831018
0.5232062899805519 13.263125234552044 76375.19214572011 9.425417119259937 0.22492152399820753
0.5393875412528757 13.232921026469624 66534.1824760612 9.821464884570302 0.22763981750119544
0.5558446441143489 13.206341307261336 58054.9331241322 10.233669015556874 0.23040850015814662
0.5725860408168099 13.183011099687194 50728.62757678132 10.662740035563907 0.23322801530728493
0.5895966692176652 13.162440060462075 44385.7815753295 11.10484952221412 0.23604090586730037
0.6068796537638247 13.144603690017467 38891.84899501603 11.56246806391023 0.23888145847639639
0.6244278885408973 13.129259510306952 34124.36722755304 12.038859182461472 0.24178131919374
0.6422488894354869 13.116110871327963 29736.26603281853 12.53266086938465 0.24471748746292493
0.6603314889695729 13.105029662444096 26371.119049236204 13.040886716416653 0.24764484558374555
0.678676213779233 13.0958870468748 23225.883858657442 13.569989880625881 0.25063084388290374
0.697265182934713 13.08819239687069 20479.045557538873 14.120869090943902 0.25367664010216834
0.7161299962649722 13.082318572696746 18078.67945912367 14.686188861954296 0.25670529399660263
0.7352318024763203 13.077688606246687 15977.77249281403 15.274145279432615 0.2597954452896528
0.7545830438974969 13.074420237549681 14136.342674161306 15.88625322377048 0.26295208908593304
0.77416595030101 13.072175562788138 12521.121255405244 16.517997144748044 0.266118094843443
0.7940044837589931 13.071013592928747 11100.830146499778 17.171648251480608 0.2693130269460058
0.8140643159528834 13.070692059398176 9787.52757886937 17.852222294809234 0.2725791797289022
0.8343442003909821 13.071229459119296 8752.858014392088 18.558514599511508 0.27589922522774996
0.8548467407214994 13.072435905118498 7783.858980916563 19.285716465106482 0.2792252344536871
0.8755625236410431 13.07431527679142 6929.049786491674 20.042803499655456 0.28262280460219324
0.8964873266620023 13.07665160931811 6173.401583646709 20.831019912424072 0.2860922743317735
0.9176079130204714 13.079476794777337 5505.702444916427 21.64272272514931 0.2895654254881209
0.9389168169826312 13.082583046044231 4914.448737376581 22.48559811899813 0.29310339647914857
0.960410183506482 13.085980387102003 4390.648806871593 23.363090064274292 0.2967244267442091
0.9820659770631897 13.089613750171672 3926.236020886123 24.273019586544073 0.30040310626491457
1.0039063897911615 13.093426757289542 3513.872836570717 25.21213824679699 0.3040972392687275
1.0259025411261786 13.09727834605987 3147.467052156667 26.189873832093046 0.30787661632303603
1.0480267245873267 13.10108010667798 2821.655298560341 27.207703758593002 0.3117435377456185
1.070286426098224 13.10488753508369 2531.922058531508 28.258793376503526 0.3156441624469426
1.0926950442865864 13.108652873884145 2273.6716117065243 29.349379858241587 0.31961450747508563
1.115206577029935 13.11215255188533 2043.3749945716918 30.48468555681895 0.3236749688874234
1.1378213487480677 13.11547825137623 1829.1407051001752 31.66654468254069 0.3278235033091981
1.1605265993809568 13.118514859783188 1654.3790284833221 32.88557363968596 0.3319989206319297
1.1833042257099677 13.121285106647868 1490.5214366195887 34.153647050515616 0.33627079942329485
1.2061531912838694 13.12360302600583 1343.8574153710404 35.473816984101 0.3406476368678849
1.2290627372538683 13.125546574492603 1212.493383087868 36.84809040782254 0.34513020777308506
1.252005411346653 13.127087884786917 1094.9755426430308 38.26828644551669 0.34964588138023694
1.274971572786065 13.128089876800455 989.5291765264133 39.745363141885626 0.3542651272938555
1.2979584120227399 13.128514063951362 894.9454177594182 41.28338160036231 0.3590005172283579
1.320928615539972 13.128383848453849 810.004384257691 42.88476824576041 0.36385435275180766
1.3438757626451436 13.127553475241369 733.717726882201 44.54751737171866 0.3688042529764417
1.3667991622503957 13.126134667241734 665.1091848129411 46.27215695587899 0.3738291244616653
1.3896761428049078 13.124000401142048 603.3609527073587 48.068568526661274 0.37898317316127295
1.4124849460897348 13.121120844573065 547.7529207610373 49.93972720315513 0.3842713243774635
1.4352018062393903 13.117402752354788 497.67950071297594 51.88878201932911 0.389696642062028
1.4578195512808914 13.112896279677834 452.5277151079989 53.91718495218773 0.39525221553706497
1.4803271262683688 13.107587770128704 411.771610690521 56.02243522480209 0.40090171779189865
1.5027006625579036 13.101366109743909 374.96227517654773 58.216633251304465 0.40670481947398474
1.5249095326724567 13.094221705905307 341.72317149550025 60.50373665830345 0.41266694184252717
1.5469515898649253 13.08614402028162 311.662162018015 62.88793641710499 0.41879166500037945
1.5687900283272433 13.077013902823644 284.4722341840252 65.37369160934038 0.42508050878596954
1.5904408241935437 13.066954221415731 259.8444127848739 67.96578798292627 0.43153566107964636
1.611853463447563 13.05577463684091 237.5204156222479 70.66911020271759 0.43817344726590957
1.633012388568302 13.043583616582733 217.30488621603382 73.48303591383603 0.44497584553430825
1.6539006912905045 13.0302465758914 198.97374761357545 76.42001617117731 0.45197482950412077
1.6745226488973755 13.015841996992632 182.31608009199803 79.48612473129285 0.4591736038269671
1.6948203760616645 13.000278854207394 167.18811666988924 82.68791730888631 0.46658913578629785
1.714811853607526 12.983517755755592 153.4297882685976 86.0323306986487 0.4742335465988308
1.7344405198948054 12.965574229913683 140.92662610544258 89.52676665814624 0.4821126450363822
1.7536922892273015 12.946328563245133 129.55097426789538 93.17915151500594 0.4902332206931487
1.7725852385394127 12.925978884203934 119.18913081324044 96.99798693749078 0.498611966337391
1.7910663434607896 12.904179097542688 109.73566027774906 100.99234018348001 0.5072662435356619
1.8091159404772528 12.881233748594056 101.12682598317284 105.17192615981809 0.5162045919742851
1.8267114373084077 12.856859924333017 93.26997692671809 109.54717569019721 0.525437905839724
1.843855617384122 12.831242586080386 86.09587534852922 114.12928284819041 0.534988027790001
1.8604980578053383 12.804245076803284 79.55219528787298 118.93025830961608 0.5448757947829261
1.8766303355248577 12.775788268675171 73.55640119559835 123.96298256030522 0.5551109639331152
1.8922561463714578 12.746039094509317 68.07741152016084 129.2413230223855 0.5657130555864719
1.9073272307561477 12.714843457883237 63.06822950991422 134.77540298277546 0.57669469693705
1.9218411833060336 12.682280666410062 58.4782088334203 140.58114370943946 0.588077415225508
1.9357555487378029 12.648194883610538 54.268249433265794 146.67935445312645 0.5998878737583024
1.9490753779455132 12.612676005316684 50.41328356854895 153.08858908723548 0.6121611107631127
1.9617869348368009 12.575692638938238 46.872169325794715 159.82890546323497 0.6249295281779018
1.9738371265006867 12.537247194048565 43.62671607722739 166.92184417897508 0.6382104821418585
1.9852678572126725 12.497457793803687 40.64704803046397 174.3741799332471 0.6519877776544735
1.9959852437158565 12.455908837049378 37.90261711074434 182.2260803491911 0.6663537489798881
2.0060186450150588 12.413044584401531 35.387484483362385 190.5131526844107 0.69221042869235
2.014902237221709 12.369126312822047 33.132033063436246 199.34099890729038 0.8078757237377282
2.0222382753696935 12.323930856440247 31.14870759506145 208.82869145443033 0.918620299617186
2.0280411828798055 12.27667956205266 29.379631595008714 218.99785579074026 1.025814815046572
2.0323820839575495 12.226884827253814 27.7863089560826 229.87588936051864 1.128678469078759
2.035409521753905 12.174887738195151 26.34347968700666 241.49681612730876 1.2281717537875847
2.037214984416615 12.120386700840777 25.02145846284024 253.89293769092873 1.3246146786602544
2.0378935514422034 12.06337634064942 23.801695585234445 267.1014830773561 1.4180330732837216
