M[M_sun], R[km], Lambda[1], P_c[MeV/fm^3], rho_c[fm^-3]
0.23841724892012095 16.20908015294055 2780876.1263280716 3.453507347168396 0.169602847481901
0.24840433066899054 15.86656957925961 2282709.0486673955 3.635378278928295 0.17197630001916991
0.25867485119457423 15.563511566198658 1882249.9991484073 3.8244159622688016 0.17437062670512532
0.2692279557324601 15.29433934449518 1559054.0271363116 4.0197012941601145 0.17675957221567917
0.28007048400629764 15.054768031292783 1296479.0168080258 4.221603522237426 0.1791361117622204
0.29118863994392524 14.840872183841553 1082133.92190609 4.431473465030929 0.18153646902936646
0.3025954869818833 14.649622103381505 906546.5752837611 4.649658112002457 0.1839645447169994
0.3142827880071711 14.478175715854587 761935.0148466709 4.87648411672079 0.18642118911784525
0.3262558177685995 14.324321370588512 642413.3483980076 5.109310103924271 0.1888476544473337
0.3385120677414117 14.18611600033967 543321.5910615392 5.351350196355169 0.1912965932386123
0.35104603704959036 14.061856884489357 460778.4958368435 5.603074386699209 0.193775444032735
0.3638675866581694 13.950047118648266 391846.23410361295 5.864894162162682 0.19628991519944722
0.3769731884847003 13.849289147957744 334019.86889306485 6.133584712214115 0.19877803639395583
0.3903636250287072 13.758755650818127 281621.51560544956 6.4127949519925975 0.20129829679167324
0.4040308554182832 13.67707073741618 244507.75528171647 6.703227431956758 0.2038533491789839
0.4179856815192494 13.603636793314715 209900.41031402256 7.004814351150096 0.20643177248524955
0.4322222355140882 13.537514170729635 180565.116099598 7.3144949742287215 0.20898932262987607
0.44674302800167454 13.478152631836348 155654.57123214222 7.636699460099054 0.21159136527803032
0.4615504466197144 13.424836081324186 134420.28100545146 7.971960930361617 0.2142380156938348
0.47663212141401934 13.377080672342567 116311.44381968325 8.31812245339834 0.21688831639343217
0.49200494872583 13.334422365856351 100816.43621769318 8.675573534084037 0.2195393988487342
0.5076532842991014 13.296335887687976 87537.69855159904 9.047603150986205 0.2222384212176633
0.523581445865706 13.262334692211239 76121.81636181987 9.434786692293713 0.224988063431819
0.5397890741783964 13.232256950616486 66309.30852955983 9.83149683395483 0.22770860983898228
0.5562751476971529 13.205659682425631 57849.843649575436 10.244393447533572 0.23047936942973177
0.5730321616509213 13.182334435228798 50090.50404222936 10.674187709991129 0.23330085033187228
0.5900763914924988 13.16203030000371 44223.56832084895 11.11751931511553 0.23612151653485186
0.6073818483580449 13.144104783066352 38743.67075914623 11.575946239729394 0.2389643426972281
0.6249583510322987 13.128846304956356 33991.96358345859 12.053184089564208 0.2418664957713174
0.6428062550838936 13.115739894553023 29859.912131311077 12.548442985495578 0.2448113286744328
0.6609072795521791 13.104648813083076 26262.84749727024 13.057614998583235 0.24774079400423502
0.6792872360987119 13.095552280633022 23128.567340611786 13.587707337604234 0.25072889753504257
0.697905109861589 13.0879846639403 20239.303808859357 14.139622568494232 0.25377711030634226
0.7167965560030153 13.082135431478605 18000.89353152807 14.70674158589434 0.2568154035144265
0.7359284846414018 13.077544177529617 15906.963620386383 15.29585723415587 0.25990809792379643
0.7553118417839251 13.074302445981212 14072.455843001935 15.909179999416079 0.2630669873877367
0.774930572803461 13.072077561938803 12462.549474305602 16.543051876664386 0.26624365746916206
0.7947920428271794 13.070960467079946 10974.753694358265 17.198059409260402 0.26944104432052624
0.8148842783462085 13.070757200979557 9804.729628577628 17.880056885530884 0.27271002089342067
0.8351990846409739 13.07126980687138 8710.042975972527 18.58886005751994 0.27604186914529033
0.8557247286362636 13.072557901906379 7745.686892315257 19.317656387569144 0.2793709104416314
0.8764798220451822 13.074456331617396 6893.645346990503 20.076417141125333 0.2827711283311949
0.8974252184981403 13.076771317485436 6141.606284050405 20.866390214736434 0.2862436184006256
0.9185796245730931 13.079625501026777 5476.868819152205 21.68116744848869 0.2897299245304161
0.9399216369575689 13.082774526576994 4888.555573443755 22.526011843254537 0.2932714382123087
0.9614408215388982 13.08613247337019 4366.968761930485 23.405577231686344 0.29689619463262934
0.9831363131919938 13.089808933673867 3904.909812438261 24.319127410543448 0.3005895118092337
1.0050125309269964 13.09362465783662 3494.4791372726663 25.260570784974966 0.30428704181080246
1.0270296104754049 13.097454700779972 3129.7506039088034 26.240751623687867 0.3080704832221829
1.0491945739180724 13.101316616575787 2805.823984608887 27.26115912614045 0.3119419121977308
1.0714828819452311 13.105080893709921 2517.3391538271762 28.31668364925961 0.3158589949636291
1.093925062464156 13.108900047931712 2260.474903073952 29.410170684794362 0.3198343421812898
1.116452092298317 13.112331450510592 2031.3976274914394 30.548533098203745 0.32389926359329924
1.1391066390647944 13.115665294313006 1826.9797091589912 31.733614521702393 0.32805323088591165
1.161839187760197 13.118676473920921 1644.4493973285687 32.958088868447156 0.3322472997541455
1.1846480724708157 13.12141658693455 1481.4344706165114 34.229795224263064 0.33652540130202907
1.2075284373051796 13.123766118796885 1335.6035432268518 35.55380569935959 0.3409088492847188
1.2304474370380283 13.125673002555828 1205.074376231691 36.93213428772075 0.34539743477571433
1.2534206352223418 13.127185386076045 1088.1360421167817 38.35903994145057 0.34993444236440274
1.27642294604612 13.128143772015664 983.2789619877362 39.84069323211458 0.35456147185367975
1.2994144238360306 13.128481753905106 889.2270693960652 41.38355634468672 0.35930519529125554
1.3224163761919492 13.128352375220866 804.8310531399985 42.99007320883412 0.3641678390452214
1.3454097132042213 13.12757023959567 728.9650428173068 44.66112620857685 0.36914245938311213
1.3683448450063955 13.126029316749017 660.7407382790084 46.39157139579721 0.3741761632662601
1.391228416428859 13.12379195541127 599.3889811965142 48.194129733953424 0.37934079893242384
1.4140671771937074 13.12089505665023 544.1352124872296 50.071807087196376 0.3846402111920852
1.4367891647431539 13.117091372155338 494.3626745439562 52.02777622736568 0.39007733197468925
1.4594328762907285 13.112588049449428 449.48065911005847 54.06540524788432 0.39565432480299667
1.4819507536124086 13.10715296608788 408.9839438255347 56.18010606790712 0.40132448130928056
1.5043301539092866 13.100851359854449 372.4132602833047 58.38263627203872 0.4071419772354863
1.5265558965966957 13.09361672616922 339.3712853771559 60.67859177495022 0.41311941178811357
1.5485989657815487 13.08541154218031 309.51161065241666 63.07219730821226 0.4192601066907404
1.5704719560648104 13.07634435652257 282.49440188263947 65.5679437464852 0.4255652035761269
1.5921222421382657 13.066222753194019 258.05049056669685 68.17066026555852 0.432038708181338
1.613513843477064 13.054866122950953 235.88525713420026 70.88536088285048 0.43869634807659696
1.6347101541655669 13.042703310714828 215.78542227670548 73.71582957870872 0.44553858999206464
1.655591949041237 13.029236425798187 197.56893112468802 76.66573155802986 0.45255937145968383
1.6762118394242926 13.014643625061987 181.00556291301015 79.74559557114064 0.459780810128361
1.6965049518855875 12.998952067431127 165.9893535923561 82.96204136642386 0.4672215112069373
1.7164779179355536 12.98213960136372 152.34384700111895 86.32207808268839 0.4748927150235133
1.736098955696728 12.963952325834798 139.91288134485538 89.83317482037624 0.48279968045968147
1.7553463394936897 12.94460765954405 128.60970939859183 93.50332946643721 0.4909496668509792
1.7742219068736877 12.92408820492797 118.32084955562235 97.34113114962207 0.49936068790320565
1.7926850936089984 12.902312318950063 108.95121591552991 101.35574326063633 0.5080493524833801
1.8107092724952887 12.879113424927118 100.39922313089059 105.55697412774425 0.5170234901773679
1.8282865321274782 12.85456807028473 92.58689262073528 109.9553564690833 0.5262949903933092
1.8453931809281392 12.828804941019257 85.4737463556499 114.5622049999029 0.5358866898163714
1.8620198972750386 12.801588863775464 78.96484430732096 119.38966108733148 0.5458188144997967
1.8781285462808657 12.773030045002463 73.01925905422881 124.45073646406345 0.5561002236164568
1.8937186258683543 12.743221374015981 67.58753529036845 129.7559026665169 0.56673970283287
1.9087488010696423 12.711815118566482 62.605908219547885 135.31870648308933 0.5777621310330882
1.923224560589702 12.679085284059095 58.05316972258162 141.15907069525971 0.5892004173222026
1.937090729974847 12.644758621718198 53.8746099996307 147.29443505033154 0.6010710299737809
1.9503779811082163 12.60911612606604 50.047019402159215 153.74356946216352 0.6134092143613815
1.9630257739676658 12.571976258239884 46.53652933352577 160.5267641589603 0.626247150972733
1.975039832881207 12.533297893586006 43.31206579804272 167.6574198878979 0.6395727404430043
1.9863879455500446 12.493239812565674 40.35561396656007 175.1589740956703 0.6534287089431666
1.9970735829031139 12.451677221394343 37.63514466625013 183.06387205810637 0.6678790422776245
2.0070442342319663 12.40854570304454 35.136017581586536 191.39967721861674 0.6829484604525484
2.016300611996721 12.363799178043667 32.8340423371944 200.17267536532543 0.6986066390629133
2.0248263338931025 12.31774594017939 30.71999701848794 209.46946551792553 0.7589613370011381
2.0311287619665124 12.272501031988174 28.97500675848152 219.69047365303095 1.0408927050588603
2.0341519860725263 12.226080832899463 27.601467456793813 231.17456931226423 1.3099620182644747
