M[M_sun], R[km], Lambda[1], P_c[MeV/fm^3], rho_c[fm^-3]
0.23841724892012095 16.20908015294055 2780876.1263280716 3.453507347168396 0.169602847481901
0.24840792498074732 15.866474928221662 2282539.8162646205 3.6354293323087807 0.1719769494374782
0.2586783271645761 15.563468046425683 1882270.7274263378 3.824520972659839 0.17437191130801794
0.2692360967196939 15.294150087895705 1558777.172337048 4.0198704636799265 0.17676164168377984
0.28008308728090286 15.054502584317936 1296130.6934890307 4.2218351683092115 0.17913882050363925
0.29120159061349205 14.840593827099836 1081847.214421119 4.431770774103075 0.18153981435693986
0.3026162083574437 14.649260030345925 906245.1413806117 4.6500244385347695 0.1839685122251588
0.3143082811121596 14.477810604947217 761680.9186531866 4.876942122534273 0.18642614956062448
0.3262834893523289 14.324060512906732 642226.3976425844 5.109847030929674 0.18885324928560906
0.3385412433053662 14.185863304851441 543090.2499789394 5.351969754905144 0.19130277526322356
0.35108171536752475 14.06149952022324 460555.1614739421 5.603780450461996 0.193782230042829
0.36390594517169994 13.949744451640596 391660.24492182955 5.8656908878474185 0.19629729301776655
0.3770179577087414 13.84903758583138 333846.2980864551 6.134513511123573 0.1987866372332917
0.3904133983655411 13.758484284939872 285301.0045405141 6.413826367098545 0.2013074897149038
0.4040853426221273 13.67670818709046 244354.90134046625 6.704366075003032 0.20386308403013687
0.4180438562713737 13.603314630243842 207166.2423163392 7.00611701913199 0.20644290967082052
0.43228739046516645 13.537223587516294 180445.82551502404 7.315918341876872 0.2090010558995689
0.44681356651534615 13.477879685777536 155535.68715096478 7.638249089814464 0.21160368562502352
0.46162458344763446 13.424529499019826 132822.5562338164 7.973642601671098 0.21425089099727382
0.4767168057797525 13.376824707199878 116221.29749934144 8.320015026674614 0.216902806415992
0.49209402276902725 13.334282288154657 100740.2662909497 8.67761410239833 0.21955441170473455
0.5077448242537317 13.296165726707807 87466.52403082498 9.049798322780138 0.2222540105606698
0.5236825263942427 13.262208691453097 76063.88711254475 9.43717115085901 0.22500459045553253
0.5398967260963743 13.232106571940228 66254.38999676748 9.834120570447794 0.22772660165295275
0.5563853597878868 13.205499706069526 57796.49475893816 10.247198382127198 0.2304979050194885
0.5731508525440713 13.182156342551522 50497.58800361946 10.677181897736602 0.2333199006411248
0.5901967290930258 13.161794049041134 44180.69083915021 11.120833341701164 0.236142601796263
0.6075134927784573 13.144025280343621 38706.693590864554 11.579471820443077 0.23898602330255284
0.6250933486608437 13.128669620882446 33956.07217339062 12.056931267183973 0.24188877666730768
0.6429482891964285 13.115623461938792 29829.288498015954 12.552571587122506 0.2448358775356743
0.6610665865132053 13.104728001112184 26237.211975949147 13.06199124543794 0.2477658948465809
0.6794439769144215 13.095504527081546 23103.931146449548 13.592342494191454 0.2507545498638259
0.6980732303364712 13.087928938332949 20369.704629883483 14.144528904322526 0.2538033955945557
0.7169706516007069 13.082086238704868 17979.949154799386 14.712118965205034 0.25684421237911925
0.7361137697545279 13.07748726358938 15887.567749216338 15.301538073802005 0.259937573001395
0.7555011370721264 13.074241257489469 14055.575299008067 15.915178860716859 0.2630970508814817
0.775130419849522 13.07209007317588 12447.565245208174 16.549607923303554 0.266276513315838
0.7949992997876764 13.070968841419097 11034.924831695824 17.204970583230196 0.2694745434330545
0.8150994771082732 13.070730864279437 9792.354053091729 17.88734074057591 0.27274425987633966
0.8354218020309748 13.071281973923481 8699.03201668053 18.59680146022328 0.2760791990413181
0.8559532056450335 13.072517573527001 7735.149804553323 19.326015293294404 0.27940903488764673
0.876715785679312 13.07440377629342 6884.745449403614 20.085214314686432 0.28280994678495947
0.8976782845908782 13.076805482767472 6133.522912464688 20.875647387613814 0.2862832284157439
0.9188325826775992 13.079671203222896 5469.4773156594065 21.691229906191435 0.2897729802351126
0.9401907684274263 13.082831528416659 4881.463565940539 22.53658995711129 0.29331542239388964
0.9617090469697827 13.086162551429746 4360.901113505281 23.416698370156016 0.29694115537226257
0.9834284985557794 13.08995401200881 3899.2486207571624 24.33119705663055 0.3006383071926081
1.0052987521820256 13.093683682121808 3489.400036414063 25.27324932661623 0.30433672781785154
1.0273251723117511 13.097557551296434 3125.329031650288 26.254070651979433 0.3081212346135777
1.0494962124873624 13.101333043706274 2801.6254070067266 27.275153321731693 0.31199384507202454
1.0718051241974529 13.105151378000624 2513.456775838861 28.331839887913226 0.3159152402141426
1.0942340437513205 13.108843806008572 2256.8995487732827 29.426086775039796 0.3198918987111387
1.1167784248258914 13.112350791738104 2028.2269553007059 30.565249975104507 0.32395798953491417
1.139447928186976 13.11572008402614 1824.0452301528974 31.751175591838066 0.3281133810538141
1.1621798877465541 13.118771352690166 1641.8928313483596 32.97707703480726 0.3323123380112617
1.1849975665879 13.121441684847175 1479.0879985544689 34.24973527656682 0.33659207098731175
1.2078802834756364 13.123781442202985 1333.4210119798186 35.57475206751608 0.34097725207669216
1.230826772635689 13.12574251764701 1203.0494609945217 36.95414324644937 0.3454674147442637
1.253807854995166 13.127311458278509 1086.3999260718385 38.38280767899443 0.3500100145687181
1.276808084377707 13.128135671514283 981.600711865108 39.86566033574657 0.354639084969519
1.2998017788940999 13.12847376370374 887.7212696537468 41.409793113602625 0.35938499352766634
1.3228089471186895 13.128325545355514 803.4693908295834 43.017654536960464 0.36424994693519525
1.3458032469256855 13.127533236831532 727.683241727728 44.690884680807535 0.3692310484950111
1.3687703623560463 13.126148213412511 659.6095703842383 46.422851628200824 0.3742670689763922
1.3916450330874501 13.123794120741342 598.3613622754746 48.22702121978352 0.3794344810754835
1.414474986200458 13.120818850839981 543.1872942426006 50.10640739074713 0.38473684661733887
1.4372069057408607 13.117002198754637 493.4741959140444 52.06418914632719 0.39017706297164956
1.459866580065358 13.112563558009061 448.6809441643758 54.103739782602375 0.39575711135766617
1.4823654276248943 13.107050324453345 408.27575414953 56.22141651053842 0.4014352471787811
1.5047642125419054 13.100721796763146 371.734987182269 58.42613142536244 0.4072565187888813
1.5269869773684186 13.09348548649512 338.7687092298338 60.7244080775406 0.4132379699426451
1.5490380667157446 13.085270512033011 308.9471412836512 63.120480067586456 0.41938285469917896
1.5708988514497886 13.076073880349362 281.9720795570388 65.61884662371321 0.4256922156119227
1.5925341328915898 13.065847124926144 257.5612894928668 68.22434833081724 0.4321705348260984
1.6139644905500319 13.054619768776217 235.43103934838123 70.94201266546743 0.4388332954317028
1.635137929272146 13.042311377048334 215.37550922097984 73.77684227962396 0.44568607922598164
1.656037149264479 13.028919640762773 197.19389229144377 76.7301337527842 0.4527125803626609
1.676623312283966 13.014257749896174 180.68097419754446 79.8136061630392 0.45993996658689235
1.696948700773972 12.998690273400134 165.68574885009713 83.0338960890327 0.4673872725080171
1.7169165840007945 12.981653041594393 152.03894113471776 86.39803168556786 0.4750655076681301
1.736543760753137 12.963558674417275 139.6490418849537 89.91349975829606 0.4829797868815326
1.7557852515320986 12.944236431885576 128.3727812039736 93.58831700962422 0.49113749269943974
1.774654442445566 12.923590827272253 118.09567083722744 97.4310955644539 0.49955698524746833
1.793114737401524 12.901812895409211 108.74255248884663 101.45102409237825 0.5082546762039908
1.811120204851148 12.87849932067484 100.20183032872717 105.65793549222914 0.5172382090873332
1.828721305257134 12.854156817794042 92.41829951349202 110.06238928329226 0.5265197343708076
1.8458041192302834 12.828202377638577 85.3121319750039 114.67573191383491 0.5361223495674795
1.8624002162117332 12.800946118567817 78.81834405522326 119.51013913136067 0.5460661207340658
1.8785245260142678 12.772447827298627 72.88471563699795 124.57865720102869 0.5563596717249557
1.8941000212013417 12.742464405251773 67.45660159816589 129.88992905300123 0.5670057023463624
1.909122934294744 12.71102882172169 62.48716196859648 135.46120870083675 0.5780421066376936
1.9235755538130956 12.67807283910946 57.93765012142097 141.31066404846504 0.5894949868053233
1.9374435237386323 12.643881103441155 53.77288217105891 147.45578468214626 0.6013813987622197
1.950715375768373 12.608111544211294 49.94970408624281 153.9153973832107 0.6137366425634335
1.96334487862189 12.570930477758154 46.448884360882346 160.7098535555841 0.6265928409583433
1.9753400524118319 12.532252965483028 43.227922711719195 167.85041237307945 0.6399301552023665
1.986669470916743 12.492059737567097 40.276857319006965 175.3648951193518 0.6538067928538652
1.9973358074235072 12.450407492522226 37.564068329106824 183.28371559265292 0.6682792919652573
2.0073182218530605 12.407333745664163 35.06839633419362 191.6344255569257 0.6833716566478171
2.016545459540087 12.362618571608644 32.77473228263235 200.4254309587615 0.6990629999395447
2.025072081331438 12.316437260197745 30.663140803347726 209.7088036192187 0.7154690608612824
2.0328565619111045 12.268743553056678 28.717678535643042 219.51496677377267 0.7326062939814731
2.039909693593584 12.219664843012449 26.92875281651526 229.86458618409065 0.7504822479147996
2.0459266958892113 12.169608584508955 25.31216755364414 241.0666526020743 0.9398942574994192
2.0486209036804546 12.122184035084718 24.107342909112845 253.59923330621797 1.3531986824717985
