M[M_sun], R[km], Lambda[1], P_c[MeV/fm^3], rho_c[fm^-3]
0.23841724892012095 16.20908015294055 2780876.1263280716 3.453507347168396 0.169602847481901
0.2484244878718344 15.865913874184418 2281664.6568899425 3.635735709681133 0.17198084667352728
0.2587160366574532 15.562343153953474 1881035.4116724525 3.8251511952805752 0.1743796208860281
0.2692893955546863 15.292972845625748 1557572.5700033654 4.020885812342835 0.17677406254819608
0.28015517023075975 15.053078142033058 1294583.4302741082 4.2232255902108164 0.17915507933058794
0.2912979694924291 14.838967321675565 1080292.6107970176 4.433555442506512 0.18155989548119317
0.30273181146505884 14.647401504761227 904607.651987985 4.652223536952566 0.18399232961250686
0.3144449650851633 14.475998251184759 760176.0356009359 4.879597570134411 0.18645402465512045
0.326444679662014 14.322134133307838 640758.8858539421 5.11307069518455 0.18888684022064975
0.33872882372350155 14.183919370309768 541714.0661078033 5.3556897494164835 0.1913398937851514
0.351294957037764 14.059589534314544 459294.6077192197 5.608020086463437 0.19382297737220205
0.3641435363923992 13.947741445656753 390498.1097094512 5.870475178504177 0.19634159638080442
0.37728431880325913 13.847140074136675 332796.97310187534 6.1400913153370755 0.19883828866978537
0.390705364261068 13.75646238348763 284324.0888913691 6.420020756492174 0.20136269982946142
0.40440764264691753 13.674928967442368 243497.1887789461 6.711204805359745 0.20392155189003006
0.4183977569119169 13.601587241153013 208975.61574208346 7.013941494832691 0.20650980517994924
0.43267288364316503 13.535600995387815 179728.97216734968 7.3244682383915505 0.2090715354006191
0.4472324538921817 13.47629993124384 154887.3382657988 7.647557885559054 0.21167769530134922
0.4620749046470471 13.423095200992389 133731.6085991895 7.983745082418647 0.2143282381604074
0.4772038813169419 13.375574279479604 115701.79442904647 8.331385380196068 0.21698986073568707
0.49260875951417693 13.33282346642904 100254.17769179777 8.689874180326887 0.21964461147075334
0.5083013835539828 13.294811480919604 87032.66564763218 9.062987904592529 0.22234767836177502
0.5242716273176152 13.260957248441773 75672.68516214642 9.45133368318467 0.22510170754318115
0.5405241104364445 13.230973501682143 65904.180398096 9.849887164487667 0.2278347183131715
0.557052563526708 13.204584100698328 57486.812757590866 10.264054598327643 0.23060929439343414
0.573859322533565 13.181253718218597 50212.838448801696 10.695176229532278 0.23343438831345534
0.5909446438267075 13.160912622121753 43924.22037712779 11.140751471971894 0.23626932950128515
0.6082998324145037 13.143374567317764 38479.95357880242 11.60066237035644 0.23911633487009207
0.625923462421131 13.12801042069334 33749.031547847335 12.079454701472027 0.24202270207667945
0.6438197363042012 13.115046540728022 29641.486235943234 12.577389772462396 0.2449834476437227
0.6619830390593867 13.104195664892329 26068.47158997365 13.088299215173134 0.24791678948819681
0.6803736374765478 13.095227464781876 22966.930502580784 13.620208079689013 0.2509087662635249
0.6990769189118844 13.087661321335402 20234.537930346298 14.174025989186317 0.25396142378590575
0.7180297820940407 13.081904900904801 17856.475184268922 14.744450774498793 0.2570174273720367
0.7372123628771602 13.077301769316735 15777.034499784748 15.335695864266626 0.26011480094431444
0.7566446503914239 13.074125732249826 13955.646979448991 15.951250330149776 0.2632778242551768
0.7763236383463945 13.072044455488289 12357.323631162928 16.58903326353505 0.266474094725045
0.7962296301963471 13.07093748918607 10953.927831559293 17.246533195813267 0.26967600133904474
0.8163865808799499 13.070821219131044 9719.344328265168 17.93114636199597 0.2729501755507023
0.8367547129075897 13.071431557568536 8632.684173330963 18.643908790991976 0.27629798980848863
0.8573379997242632 13.07264047056667 7674.887827180494 19.37629292510525 0.2796383480205796
0.8781438948431389 13.074611866414898 6830.314099356033 20.138130195054554 0.2830434436736153
0.8991523995468668 13.076948186413473 6084.091609369562 20.931332447179354 0.2865214961979781
0.9203637297165885 13.07984210634077 5424.695008581057 21.751764644811754 0.2900319990461137
0.9417573446016955 13.08304018829709 4841.183854297147 22.600229394989643 0.2935800374877763
0.9633372837337683 13.086472149283622 4324.444194286471 23.483607432624336 0.29721165653947146
0.9851072133383532 13.090265037463606 3866.0377408855225 24.403214391301745 0.3009271430917755
1.0070250005241685 13.093971567116455 3459.143462629782 25.349538693623295 0.3046356986406901
1.0290881280661341 13.097734649466533 3097.942319954823 26.33421723542071 0.3084266285609548
1.0513237078428963 13.101730959222865 2776.793006179047 27.35936616647261 0.3123063614329208
1.073681663325135 13.105485884865542 2490.8856707577033 28.42305447741289 0.31625374025720343
1.0961554996178706 13.109181397260176 2225.1958892051834 29.52187837980235 0.32023830491227046
1.1187571192089172 13.1127253403706 2009.5050543696125 30.665865397155667 0.3243114488225558
1.1414524497100023 13.115995738041295 1807.0988018129678 31.85687654929794 0.3284754279159664
1.164238536613979 13.119000893679443 1626.4048938474227 33.09137927043729 0.3327038459667365
1.187113622481402 13.121827479280745 1465.065854099675 34.3697727616088 0.3369934170433784
1.2100296850012415 13.124011459885597 1320.6020542740043 35.70085307003781 0.3413890495099601
1.2330134508603408 13.125859002810872 1191.3685923525888 37.08664718257279 0.34588872596561293
1.2560239013923447 13.12728633480362 1075.6638986161024 38.52591515320162 0.3504650409362841
1.279069159597278 13.128291599862957 971.989352162149 40.015996178531594 0.35510642124339575
1.302119871531845 13.12856674840022 878.8786818769296 41.56778144475942 0.359865509640005
1.3251492913199359 13.12822977895321 795.3667926021959 43.1837472321472 0.36474439450782054
1.3481782308115153 13.12736464475984 720.3052749330689 44.86649470894918 0.3697440293410696
1.3711594252336945 13.125811936734877 652.8516942553503 46.611248369782764 0.3748145821584909
1.3940942262031275 13.123526357201929 592.1680280110974 48.425132208091384 0.3799987444852978
1.4169411786668966 13.120381456375409 537.5244053633822 50.31482150428654 0.3853189278254186
1.4397213790581034 13.116578872439222 488.2990383360495 52.28353294121824 0.3907778216025264
1.4623835710681916 13.11186625648908 443.93075839110196 54.334671274080705 0.396376308970167
1.4849231686066389 13.106336527908383 403.89553870561105 56.47030336967142 0.4021025885966684
1.5073424261681312 13.099946694264402 367.7613422618101 58.68819512942315 0.40794664588254054
1.5295666661757836 13.092525890504211 335.12766990312247 61.00047255180012 0.41395233781498403
1.551634733721095 13.0842312836449 305.6265179720999 63.411422878339245 0.42012251107036214
1.5735332023545714 13.074962629643053 278.9024604304899 65.92559587354347 0.42645761137777
1.5951747270582748 13.064546961163826 254.7357673073643 68.54790113066333 0.4329649922125032
1.61659179036494 13.053154679697709 232.84765231488973 71.28344754026118 0.4396586640411966
1.6377759344919405 13.040684389408625 212.99590255031822 74.13772220584022 0.44654539101938906
1.6586775180522624 13.027123685696342 195.00261475212127 77.11659625064092 0.45362850047112147
1.6792799313890014 13.012366952936064 178.65826750962782 80.22360250511736 0.46089942840003606
1.6995915509958497 12.996569445394076 163.82732680657557 83.46709574878876 0.4683866186417346
1.7195153050243692 12.979416920509982 150.3597668487985 86.85597454573977 0.4761073168107202
1.7391325768781505 12.961067952032392 138.08140429784143 90.3978329094385 0.4840657698040869
1.758368900573516 12.941560170386074 126.92418133075223 94.10080148781681 0.49227010376607083
1.777178519364241 12.920722040686956 116.79827806816078 97.9736316668552 0.5007407688164169
1.7956127686058725 12.898544445855542 107.50925138975819 102.02566522319034 0.5094929888093415
1.8136175222057427 12.87520132085627 99.06988257082239 106.26688391384121 0.5185332860901128
1.8311561963657257 12.850509715398978 91.37108022780082 110.708009648648 0.5278753867465427
1.8482363475587333 12.824407768589776 84.3408983523709 115.36058115619649 0.5375439631427249
1.8647814670183158 12.796920692851561 77.92432295825661 120.23449736587452 0.5475488715451995
1.8808431749490768 12.768083881684287 72.05568106939614 125.34151125223865 0.5578926003015034
1.8963692050234602 12.737823070024058 66.68715114755099 130.69861112712752 0.5686106776346633
1.911333287986399 12.706153450972566 61.7789353168921 136.32111080476562 0.5797315653370363
1.925724717626248 12.673032936630308 57.28060274710861 142.22551097214097 0.5912726767880546
1.939513593564277 12.638486601875744 53.16769067089768 148.4296034903953 0.6032546163225935
1.9527126342266992 12.602382289328059 49.383353272066074 154.9525600830341 0.6157130170430232
1.965272167716596 12.564972892221435 45.92465672668611 161.8071422234674 0.6286516096695987
1.9771833106946515 12.525996851690124 42.74709363520301 169.0155114937905 0.6420878745636686
1.9884329778594743 12.485489400047554 39.82501845402607 176.608177144729 0.6560895366060667
1.9989967355373333 12.443554723022224 37.145759754029456 184.6112027806488 0.6706961305292278
2.008868096073956 12.40010513813963 34.682142838601685 193.03840058363812 0.685882673020306
2.018009126398497 12.355008143030544 32.412286678152384 201.92655570459908 0.7017264706571059
2.026436112813963 12.308584916113775 30.326902629557335 211.3147855747982 0.7182963793987215
2.0340968119329075 12.260514294958506 28.40593101359027 221.2187969440169 0.7355567193537178
2.041027116614366 12.211110529862394 26.637941679921237 231.6899954797846 0.7536198386575722
2.0471603459956507 12.16002381645281 25.00599797930852 242.76451887706082 0.772521744873012
2.0525168239382277 12.107497196993553 23.503142076288707 254.47983913299666 0.7922823538732409
2.057050036325894 12.053439390974074 22.118962362750544 266.8924733026699 0.8130089763015939
2.0607972367843717 11.99797514483211 20.838937134672054 280.04295876491597 0.8347180837269057
2.06372120208643 11.941009325110297 19.66016990926881 293.98975068924756 0.857487443952788
2.0651829843262584 11.88805130629109 18.69923779919736 310.2031487391601 3.0778306921184537
