M[M_sun], R[km], Lambda[1], P_c[MeV/fm^3], rho_c[fm^-3]
0.23841724892012095 16.20908015294055 2780876.1263280716 3.453507347168396 0.169602847481901
0.24839326890831362 15.86697820958689 2283306.179330182 3.6351636620444094 0.1719735700112382
0.25865028160333076 15.564086677781699 1883181.9253402238 3.823974544604599 0.17436522679752875
0.2691906172466916 15.295274105730707 1560120.7023335968 4.018990217815423 0.17675087354576444
0.28001771820441607 15.055849321030482 1297532.9189157088 4.220629883560944 0.17912472656846504
0.2911241343145183 14.842004377626784 1083303.5232744252 4.430223895451566 0.181522408847689
0.3025152054695035 14.650786234187983 907614.5867153406 4.648118537698489 0.18394787032114154
0.3141843114870669 14.479575904330803 763047.5479503153 4.874559344330798 0.18640034282501983
0.32614065766744976 14.325801680373534 643484.6146226521 5.107053765532474 0.18882414315386264
0.33838058342217425 14.187587203911326 544284.1235891582 5.348746726962435 0.19127061552938504
0.3508972331741224 14.063244125917178 461650.4187657284 5.600107536008662 0.19374692949935354
0.363698867109043 13.951375116221435 392656.2749393177 5.861546491783912 0.19625891518988212
0.37678494188670536 13.850649735876777 334771.7512167114 6.12968231764688 0.1987418995419891
0.3901551303550973 13.759930068849867 286124.7845103829 6.4084615841787915 0.2012596738188155
0.4038038269792995 13.678277945917454 245122.9514247652 6.6984437458083805 0.20381245096002987
0.41773580902789975 13.604864680916249 210468.76239454906 6.999341875434907 0.20638498544632636
0.4319547524704273 13.538698095285529 181076.91574075384 7.308515669848767 0.2089400333327948
0.4464515412889437 13.47922013785776 156100.43775101236 7.630189994757187 0.2115396117068678
0.46124013557790366 13.425996705712256 134841.09335192604 7.9648970612709045 0.2141839329147069
0.47629379266956473 13.378102993364823 116678.0938464459 8.310173156402218 0.2168274545529673
0.49164128974396565 13.335333098759444 101155.47069361198 8.667002924876602 0.21947634321812123
0.5072603265975892 13.297112293038609 87838.28346384567 9.03838351220448 0.2221729465647173
0.5231642015817215 13.26319479098704 76402.74529023269 9.42449563020737 0.22491497990495846
0.5393476999364495 13.233028509954272 66557.04149214698 9.82047827867431 0.22763305202387313
0.5558012109360005 13.206333355943796 58073.936880120564 10.232614335178685 0.23040153061138463
0.5725407842152939 13.182954349651995 50743.14865459691 10.66161425891425 0.23322085263241338
0.5895519564437355 13.162526525396556 44401.366537642054 11.10360362286827 0.23603297892021036
0.6068298436362775 13.144634491345585 38906.262450661736 11.561142706002641 0.23887330817037816
0.6243756760079713 13.129280746799811 34136.245765206746 12.037450598896196 0.24177294368900118
0.6421949319766166 13.116108148287788 29990.346398537476 12.531109075565384 0.2447082604232183
0.6602722981488253 13.105094644793411 26382.742904972267 13.039241931747469 0.24763541159109276
0.6786152057122595 13.095909382878915 23235.56340149199 13.56824788061265 0.2506212031391146
0.6972026067017265 13.088205136160102 20488.3360148476 14.11902527422155 0.2536667620066494
0.7160677017331616 13.082357590378788 18086.748280044525 14.684168250402362 0.2566944687374136
0.7351611077438927 13.077660011292634 15984.736142479394 15.272010752522236 0.2597843702813374
0.7545124667866702 13.074424251721906 14143.183072951535 15.88399932173569 0.26294079358061506
0.774094526667438 13.072122917836928 12526.085203449182 16.515534176636706 0.26610575159650046
0.7939279696232895 13.071001240323332 11105.717373996482 17.169052005006183 0.269300442694303
0.8139814022220935 13.070694768968968 9856.968925332976 17.849486189503896 0.2725663182067776
0.8342663714476748 13.071264182889223 8757.120147753136 18.55553184104457 0.2758852042710492
0.8547599041010805 13.07243668586182 7787.530866242896 19.282577057145428 0.2792109158104023
0.8754731244482646 13.074309050070342 6932.619906337847 20.039499659816858 0.28260822606135516
0.8963934023541146 13.07667770078711 6176.802390758395 20.8275434964462 0.2860773992839306
0.9175093506258505 13.079455169141662 5508.530885610535 21.638944345838656 0.2895492583857453
0.9388242981741199 13.082649588576967 4917.175771641409 22.48162632051292 0.2930868815968036
0.9603214002222109 13.086118294298315 4392.902333661467 23.358914592379445 0.29670754607095595
0.9819659997823098 13.089613844991401 3928.3155662582485 24.268488549207547 0.3003847881052665
1.0037911049715182 13.09339253984438 3515.9567609329724 25.2073788748142 0.3040785877395077
1.0257738782225139 13.09718924021365 3149.381031330508 26.18487429228443 0.30785756586409363
1.0479193703359329 13.101080870493693 2823.2716235189328 27.20245106147552 0.31172404483105076
1.0701703077720177 13.104887170900092 2533.459255769919 28.25310522465934 0.3156230535469875
1.0925709363504248 13.108639974212187 2275.020805983187 29.343406855120566 0.31959290761437104
1.1150789275444575 13.112135328629824 2044.6016084125192 30.478412374958513 0.32365293136726564
1.1376946139115527 13.115425850200959 1838.9215944782272 31.659955070261976 0.32780093257279574
1.1603942722160085 13.118538011060616 1655.5263613488294 32.878449447891335 0.33197451885405943
1.1831634446322004 13.12119504202103 1491.4312409857887 34.14616613835808 0.33624578694832374
1.2060167164335047 13.123575897930019 1344.7011738150482 35.46595897951403 0.34062197564351065
1.228919698247532 13.125523643058456 1213.2913612062225 36.83983425001303 0.345103956387412
1.251866400375508 13.127085584738927 1095.6367421267169 38.259371715748586 0.3496175359906849
1.2748360924025517 13.12817201144557 990.1557236593403 39.73599910949638 0.35423601812119127
1.2978159535000866 13.12857067648922 895.5003022915473 41.27354196518315 0.358970590314082
1.3207805226197868 13.128366282919384 810.5351345601567 42.87442499148854 0.36382356153030315
1.3437232864301818 13.127572899382757 734.2090052793255 44.53635921549379 0.3687710358427552
1.3666482408919225 13.126117524324815 665.5413156477944 46.26042894267964 0.37379504084762527
1.3895208650575066 13.12400140525403 603.7798465842984 48.05623719106797 0.3789480508213721
1.4123286508495336 13.1211177605229 548.1212215524781 49.926756065894516 0.3842350971991856
1.435044168479312 13.117453956716291 498.0343166917967 51.87513227477097 0.3896592569066529
1.457666216869743 13.112969934647413 452.8146797349042 53.90247328278692 0.3952119218858517
1.480161096310682 13.107650167303289 412.0658979544734 56.00695290828631 0.400860204989287
1.5025528040442335 13.101576920243721 375.22651884660974 58.20033330244458 0.4066618946577696
1.5247336658295099 13.094281840712561 341.9847479093411 60.48656809533743 0.4126225150113311
1.54679068455769 13.086209402650761 311.88282480705305 62.86984495091723 0.41874567153453235
1.568625170351852 13.077085713397407 284.66683840784583 65.35461983664145 0.4250329212072581
1.5902955811741808 13.067206021123415 260.0335665611081 67.94567424612265 0.4314862734471504
1.61169152116707 13.05592366783233 237.7052541792688 70.64744845210267 0.4381202586123524
1.6328469459475456 13.043766037189654 217.479550657499 73.46018344147497 0.4449206030423175
1.6537335843134762 13.03036488168577 199.11505544265535 76.39589615233997 0.4519174494468114
1.674357990729636 13.015981040949976 182.44259399996452 79.4606554494079 0.4591140013357523
1.6946556876588055 13.00039992502259 167.30132103837772 82.66101077699345 0.4665270652421196
1.714653277221687 12.983712268570457 153.5392357542899 86.00389184608895 0.47416884888394467
1.734279302377753 12.965747921729106 141.03504136242864 89.49669382150661 0.48204521503092757
1.7535394595391935 12.946533051608643 129.6419499824619 93.14733602588728 0.4901629071976197
1.772419263936347 12.926098495405087 119.27309478782165 96.96431156584237 0.4985384885513798
1.7909091843250924 12.904486283900527 109.82169086853278 100.95667828946341 0.5071893945763314
1.8089591851535374 12.881438020717118 101.20138333726354 105.13414196072303 0.5161242346803342
1.8265588263974115 12.85708622691793 93.33644796684133 109.50712343189667 0.5253538054271097
1.8437019983437062 12.831454435334546 86.15842116850735 114.08680497079708 0.5348998519939064
1.8603475358977124 12.804476262115582 79.6070068995787 118.88518446532619 0.5447832713461025
1.876486428361965 12.776079082772053 73.61200884978207 123.91512956096767 0.5550139087530196
1.8921175006443738 12.74640940120991 68.13388614466709 129.19049346977516 0.5656111249634641
1.9071930102535286 12.715180403520982 63.11114506277512 134.7221042354442 0.5765899803281112
1.921726390197844 12.68267873286164 58.51848001570049 140.52445154760426 0.5879672535300532
1.935621024236966 12.64847587587062 54.306470546648924 146.619021163414 0.5997718178998541
1.9489492492070795 12.613034205303265 50.451066062907806 153.02434582834627 0.6120386914576595
1.9616595611727918 12.576088969022894 46.90793873771407 159.76046067095012 0.624800297978358
1.9737273509055093 12.537665415808075 43.65714419850618 166.8489606499338 0.6380743850238526
1.9851394816011014 12.497764489528286 40.673963030317545 174.29721626023886 0.6518464675252188
1.9958783648485388 12.456395293349914 37.93310711492736 182.1503420802904 0.6662042768694072
2.0055685099195935 12.413924863065033 35.46589294522556 190.50442606790884 0.7806967314110332
2.0135890759091226 12.370313655597688 33.31204382790286 199.4958151583633 0.9006168831536687
2.0199406407784664 12.32449929640084 31.40620293850858 209.157724859682 1.0139988589793314
2.0247709533831912 12.276363318208661 29.69962690161184 219.50880035142896 1.1227545602395528
2.028181770197265 12.22558662046969 28.153524002670256 230.5708135041471 1.2260820693382861
2.030345202763868 12.17222476222758 26.739555975924958 242.37531304308806 1.3249408245281438
2.031330582010083 12.116224309530939 25.43767484505256 254.95062026351923 1.419769232959493
