M[M_sun], R[km], Lambda[1], P_c[MeV/fm^3], rho_c[fm^-3]
0.23841724892012095 16.20908015294055 2780876.1263280716 3.453507347168396 0.169602847481901
0.24842145382146746 15.866007002356671 2281794.65118515 3.6356926514181116 0.1719802989561369
0.25871159708293306 15.562501230191911 1881073.4740343392 3.825062619383476 0.17437853732798678
0.26928378007138587 15.293084599396467 1557476.8910517124 4.0207431005425684 0.17677231674009442
0.28014585399299 15.05319806734503 1294784.0304774647 4.223030150715099 0.17915279396890302
0.29128409816328504 14.839105518862628 1059847.322245347 4.433304575422199 0.1815570727197875
0.3027153521982678 14.647663903280412 904886.4670506611 4.651914400199032 0.1839889814995971
0.31442722171748344 14.476142302747885 760355.7211538245 4.879227205838126 0.18645016541853926
0.3264215793066936 14.322410812220301 640982.822446702 5.112617486006274 0.1888821177313135
0.33870304923268846 14.184156125754123 542001.3246795366 5.355166739537076 0.19133467513398994
0.35126554483117234 14.059947718010054 459493.76175191905 5.607423992998076 0.19381724829150693
0.3641097819055076 13.948000756168332 390643.070322774 5.86980247902895 0.1963353670667421
0.3772471341099764 13.847398289430132 332966.2240581811 6.139306999508615 0.1988310257688921
0.39066394344310335 13.756701836518392 284463.88939832704 6.4191497056908515 0.20135493622090042
0.4043628132060453 13.675204654285007 243613.06812051637 6.710243110478828 0.2039133298607023
0.4183478126040863 13.601779723497803 209084.41032193982 7.012841116995764 0.20650039747795731
0.43261962905985746 13.535792110563499 179818.94168929345 7.323265797211774 0.20906162329767758
0.44717155965732536 13.476488617393523 154974.96040297687 7.646248665841706 0.21166728633651868
0.46201472555181505 13.423419133596079 133820.2144313397 7.982324184780548 0.21431735940654917
0.47713580655787324 13.375742708475522 115769.31163548797 8.32978606514889 0.21697761597274742
0.4925349416778933 13.333001984218434 100322.73398407428 8.688149658781317 0.21963192383199515
0.5082229383467863 13.294913461391864 87087.09381746556 9.061132573348134 0.2223345024475985
0.5241907135090705 13.261142708256429 75728.8510871728 9.449341422631566 0.2250880459649898
0.5404326612569769 13.23113202345954 65955.23759419832 9.847669126727125 0.22781950850728047
0.55695407207698 13.204662858311108 57531.6510921578 10.261683193832702 0.23059362366051744
0.5737588094920311 13.181411370057585 50255.48299901783 10.692644627050448 0.233418281170456
0.5908400847298367 13.16099001424583 43957.47812872722 11.137949041926541 0.23625149923693275
0.6081896007619 13.143484569011317 38512.25345777443 11.597680818142438 0.23909799977523635
0.6258089590301756 13.128141551852824 33780.0176813486 12.07628550895809 0.242003857907563
0.6436964717636178 13.115100505951915 29667.8253227564 12.573897476307785 0.2449626822850224
0.6618533858461144 13.104211337726976 26092.373768370056 13.084597167715671 0.24789555565183613
0.6802716404467521 13.09512050145583 22973.600051541784 13.616286723865498 0.2508870643194874
0.6989313051662683 13.087658549406324 20102.35530484849 14.169874915163714 0.25393918475032035
0.7178720207561121 13.08177439917372 17873.871127549275 14.739900485236392 0.2569930495738381
0.7370568733683284 13.077381379531575 15793.275725573685 15.330888445557465 0.26008985761756565
0.7564822777987421 13.074153835276304 13969.720450933653 15.946173424404828 0.26325238117248917
0.7761515289747817 13.072036397149978 12369.934373126242 16.58348395351611 0.26644628417256205
0.7960598692565256 13.070937521993308 10964.472270640514 17.240682879686158 0.2696476443046068
0.8162015173697178 13.070708258491594 9729.04535574505 17.924980138626264 0.27292119018301925
0.8365646717123626 13.071330814424817 8586.580706114211 18.637410517563858 0.2762683515899651
0.8571450692872334 13.07266889479568 7683.817390355635 19.369214998384887 0.2796060660396577
0.8779362886344827 13.074517734038722 6838.111150734766 20.130680643267667 0.2830105717426936
0.8989416882272568 13.076919562249193 6091.067490168207 20.923492815623693 0.2864879516235649
0.9201500509756816 13.079816698238336 5430.904090317117 21.743241668268734 0.2899955305438838
0.9415325930713129 13.082919484788812 4846.71826044053 22.591269027212874 0.2935427799531475
0.9631101267402179 13.086409999614007 4329.420415225169 23.474186424004245 0.29717356911552606
0.9848687214808586 13.090149114777985 3870.6343378775164 24.393308851914394 0.30088832421861555
1.0067844200208969 13.093925456458928 3463.347453764869 25.338795833818047 0.3045935983879076
1.0288467089114888 13.09778924310028 3101.7437057866196 26.322930873156427 0.30838362252656853
1.0510660029999213 13.101668677459784 2780.2039213339913 27.347506826833264 0.31226235107229083
1.073416873401115 13.10547986536632 2494.1389685449535 28.410208186908772 0.3162060672926846
1.095883247927601 13.109125844753756 2239.365368901089 29.508387065358196 0.3201895169731138
1.1184771960609707 13.112675439216002 2012.143144045131 30.651694254219514 0.3242616659762966
1.141162014769677 13.115935498852451 1809.52173441464 31.84198866825724 0.328424433953902
1.1639612340223597 13.11907645295768 1628.6135671013392 33.07527871366958 0.3326486983484298
1.1868049525887463 13.121652049204732 1466.9474381962375 34.352863798862295 0.3369368818243332
1.2097223418040204 13.12392679353262 1322.3851353571024 35.683089397446956 0.34133104017909005
1.2327152832008776 13.125941233536137 1193.0117715380154 37.06798092150393 0.3458293744815814
1.2557174128087718 13.127302067095496 1077.0936813198439 38.505753593376916 0.3504009349810758
1.2787477544369084 13.128201525054594 973.2849719213604 39.99481554263796 0.3550405787984173
1.3017815732083862 13.128497329474936 880.1325443411026 41.54552189365928 0.35979780797571925
1.3248200886049188 13.1282549388763 796.4998320476512 43.160345006937824 0.36467472754603275
1.347843286251854 13.127400446009872 721.3304899280085 44.841883406789904 0.36967250468386126
1.3708288542545914 13.125861473652465 653.7808282116946 46.58470047473879 0.3747374294308402
1.393750825482401 13.123551744475249 593.0063297264439 48.397214407147466 0.37991922848424364
1.416608906722819 13.120521259372126 538.3324916087395 50.28545068482186 0.38523689786215964
1.439370994548667 13.116662368229553 488.9989443308157 52.25262066729215 0.39069315626986745
1.4620305887145135 13.111983627737896 444.6062702756484 54.30212466379579 0.39628904160245376
1.4845716395018471 13.10648134289082 404.51248862131354 56.43522327664803 0.4020085281906695
1.5069602543642004 13.100035887903008 368.3421531347576 58.651256291920525 0.4078493699447673
1.5292173163811844 13.09266483604769 335.61244560607975 60.96155864089802 0.4138516408752199
1.5512839357583605 13.084386580641052 306.0627450324127 63.370409982976675 0.4200182450488815
1.5731710769803955 13.075201816425619 279.3429567141972 65.8823529380795 0.42634971230474783
1.5948085228586073 13.064733484218047 255.12493559663324 68.50228734473951 0.4328529912990006
1.6162233240697672 13.053312247127186 233.19945635154923 71.23531058458705 0.43954230002831124
1.6374047734591732 13.040928917988952 213.3301232684217 74.0868995649411 0.44642448704882953
1.6583050195503948 13.027399211310783 195.31362022905827 77.06291504155845 0.4535028772279068
1.678900671673804 13.012626811505067 178.95277073339517 80.16578877294911 0.46076413434348523
1.6991882973371275 12.996701828086747 164.0847324775654 83.40600707011605 0.46824569347369577
1.7191629259400867 12.979696320516908 150.5750152595301 86.79139335076482 0.4759603961242856
1.738769922458586 12.961450998854033 138.30293742837964 90.32952646176304 0.4839126115172735
1.7580042022201756 12.941852120152648 127.11973800902473 94.02852092970859 0.4921103608597015
1.7768719135670288 12.921288861269863 116.95358604784546 97.89710843779615 0.5005737993911528
1.795278794269202 12.899020458180564 107.67674306610199 101.94460909864895 0.509318318366558
1.8132672256962954 12.875616358670353 99.2185372959624 106.18098360218505 0.5183505981740115
1.8308194619846117 12.851067531521773 91.52158773096973 110.61693087404566 0.5276841425358668
1.8478742587891752 12.824892006999477 84.47887601317713 115.26396242738767 0.5373434014891499
1.8644520781047609 12.797497286365541 78.04745507980925 120.13343347309406 0.5473438943347684
1.8805062318202894 12.768587012473953 72.16680626836518 125.23415151441529 0.5576773073390378
1.8960492166868492 12.738460852589615 66.79479873435848 130.58450437360423 0.5683842122219966
1.9110371673715218 12.706981443354309 61.88231647213313 136.19976860265962 0.5794931630375085
1.925425257258202 12.67379770386601 57.37462407456079 142.0964064789367 0.5910218066606537
1.9392338261020083 12.639228696136284 53.24829697750786 148.2921670498779 0.6029902464504656
1.9524283083973184 12.603239408211776 49.46559342256877 154.80617317791135 0.6154340681920089
1.9650104730193656 12.565851452521906 46.00036893071465 161.65294478256934 0.6283634263748262
1.976917289095826 12.526832725697345 42.81397701590138 168.85104812308066 0.6417832946417568
1.9881901793375596 12.48644585925594 39.89045063453791 176.43266379788162 0.6557672830965926
1.9987789826798892 12.444582383205828 37.20451107134024 184.42378711916945 0.6703549194032363
2.0086444098222414 12.401004990487111 34.732371989656365 192.84017619088968 0.6855281477003055
2.0178054174681783 12.3560182205958 32.45942213989413 201.7145969127082 0.7013503886312141
2.026250641074367 12.309678638122026 30.372538952368256 211.08800117059127 0.7178971272478559
2.0339257249359344 12.261710321512764 28.448684683399172 220.9781808283664 0.7351400581717619
2.040861357415441 12.212164207306753 26.673940309969268 231.43218619305395 0.7531767051458962
2.0470236745097856 12.161297632343889 25.042647896932547 242.4903685116198 0.7720578647285737
2.052393554151458 12.108818564047587 23.53880964083766 254.18567774136267 0.7917881213425427
2.0569677478680926 12.054775286464915 22.147791667312493 266.57898436557673 0.8124896076095578
2.0607185908552683 11.999367118733764 20.869948679115527 279.7060911868713 0.8341642829182393
2.0636697133643604 11.942491364028434 19.687964732518417 293.6343871579794 0.8569177243349181
2.065760863972376 11.884005656857248 18.597207594770158 308.4199589305615 0.8808173177390928
2.0670408543757466 11.82424978792839 17.591567014445396 324.1227649759562 0.9059039092739286
2.0674729170202837 11.76302897559388 16.6611213477629 340.82691045164864 0.9323195741458138
