M[M_sun], R[km], Lambda[1], P_c[MeV/fm^3], rho_c[fm^-3]
0.23841724892012095 16.20908015294055 2780876.1263280716 3.453507347168396 0.169602847481901
0.2484438643227842 15.865394142064563 2281030.653300464 3.636090299718392 0.1719853571929081
0.2587556187647351 15.56126526646756 1879621.0935021879 3.8258806837506456 0.17438854479336255
0.2693529012359895 15.291400577426808 1555693.2595556874 4.0220612447510495 0.17678844173350083
0.2802407209208887 15.05129772848371 1266650.773784375 4.224835427201421 0.17917390387658774
0.29140656345476834 14.83701708860403 1078464.270899923 4.435621983793932 0.18158314824472466
0.3028670549474897 14.645374966352364 902832.4373905184 4.654770255775663 0.18401991191086398
0.31460806879041014 14.473825406738134 758376.4328036042 4.882648896014606 0.18648581980539844
0.32663218265120736 14.319822674755596 639088.4386499228 5.116804863505803 0.1889257506640436
0.33894603022817205 14.18160344032226 540158.6599747564 5.359999313487816 0.19138289509818923
0.35154159123548195 14.05733567551023 457874.96335727046 5.612932165039701 0.19387018757694255
0.3644198074532996 13.945486596991353 389152.9963947622 5.87601886734532 0.19639293190302046
0.37759285235364176 13.844919634729152 331574.0641964553 6.146555373858571 0.19889814697521072
0.3910456993888925 13.754393430483187 283223.8136808716 6.427200085954043 0.20142668863882565
0.40478340291123643 13.672837558625686 242473.34817255166 6.719131701353189 0.20398932304346903
0.41880273911692467 13.599549659081429 208064.0130884641 7.0229056408329305 0.20658565953360286
0.43311635439442275 13.533679377168598 178903.3713124283 7.334380937255661 0.20915324891244977
0.4477132723437623 13.474403444051292 154127.34188184686 7.65835144976951 0.21176350964463642
0.46259554862228225 13.421347890225999 133063.5255030468 7.995459991136846 0.2144179304823593
0.4777590902880862 13.37374055268158 115082.09003620499 8.344572452390395 0.21709082431579751
0.4932108100574598 13.331334593553544 99708.43731390369 8.704094395874414 0.2197492323485812
0.5089397300417943 13.293337921277761 86537.73279653321 9.07828756371756 0.22245633119461578
0.5249527057552646 13.259655049847957 75231.87736477214 9.467763351644265 0.22521437112022644
0.5412477737370076 13.229733407052379 65504.85662431071 9.868180405636364 0.22796016101389505
0.5578233919293268 13.203402347641427 57124.237806569436 10.28361371733215 0.23073854510990177
0.5746793202686308 13.180238821474335 49890.11725078125 10.716057682201265 0.23356724508958346
0.5918081379985999 13.159993796299254 43631.3553195296 11.163868922887806 0.23641641265922797
0.609209699012816 13.142376384483978 38213.25730706984 11.625258611023472 0.239267589778058
0.6268879109430968 13.127276627083484 33512.66712602705 12.105600134768164 0.2421781640640747
0.6448247424295899 13.11431787638869 29430.096061568587 12.605660552712095 0.24514851855223724
0.6630401460022665 13.103536286335641 25875.556780997038 13.11884495790575 0.2480919907275522
0.6815120274285205 13.094599366353183 22780.12071915458 13.65256485891315 0.25108783825891645
0.7002462865196277 13.087171020873301 20077.225030914426 14.208279858903335 0.25414493605849525
0.7192479883754958 13.081644225697815 17716.9450864609 14.782002505521222 0.25721860766368043
0.7384747852523565 13.077002965903876 15650.116753461163 15.375371405357932 0.26032065777627533
0.7579683923152826 13.073982595423841 13840.713446530046 15.99315185426291 0.26348781514260056
0.7776900184835281 13.071898446089895 12253.674042364748 16.634838222515786 0.26670364780666567
0.797670366029862 13.07088978483582 10859.410607656311 17.294824892258763 0.2699100757496266
0.8178647038230673 13.070749522891852 9572.343761387492 17.98204802024129 0.2731894473369247
0.8383009227736307 13.071515884601704 8556.082610527812 18.69755390881119 0.2765426618344098
0.8589483425128356 13.072835338270584 7605.710869969798 19.434729141366393 0.2799048719467263
0.879794118120141 13.074673868596895 6767.714268177251 20.19963735270765 0.28331485047705773
0.9008690746939639 13.077199022938489 6027.643608935613 20.996063194650883 0.28679846908375284
0.9221168743227023 13.08004219158733 5373.821783082456 21.822144954154968 0.2903331455358724
0.9435980601124097 13.083312883873441 4794.539580229162 22.674224880142017 0.293887713402328
0.9652263070628561 13.086778616878679 4282.19559900675 23.561410445161624 0.29752619996494045
0.9870351385348234 13.090429228969088 3827.6612066597017 24.48502259181288 0.3012477417017953
1.0090167785325597 13.094280269062077 3424.6221535584746 25.438271602299213 0.3049834345278845
1.031151540374075 13.098205593432168 3066.503406795068 26.427443569493438 0.30878186214596254
1.0534245710040324 13.102024782518795 2734.0330781802386 27.457329853702912 0.3126699075775425
1.0758385265689443 13.105844632925997 2465.093776885369 28.52918241230711 0.31664758416669975
1.0983798463738241 13.10954132407213 2212.8324733405134 29.63334030067466 0.32064137886301936
1.1210269879373138 13.113029493995834 1988.1626583251536 30.782949413362996 0.32472276184116855
1.1437777875045527 13.11628189669559 1787.6708431951304 31.979888215324117 0.32889676740770957
1.16662726288924 13.119328371904098 1608.704347515749 33.22442566132672 0.3331595563926378
1.1895361060785337 13.121968666368433 1448.9258788075053 34.5095061711447 0.3374606165419214
1.212507805461132 13.124212363598451 1305.9422716515214 35.847656933566 0.3418684545343912
1.2355361628285795 13.12603944036492 1178.0271178056007 37.24091800452049 0.346379247457388
1.258606201842864 13.12741275024342 1063.4501835638007 38.69159849024726 0.35098937856543067
1.2816967530603771 13.128268613330118 960.7952233928814 40.19107679362608 0.3556506794906011
1.3047799492256744 13.128488477562842 868.7279400261957 41.751790041327276 0.3604251655007403
1.3278734852598988 13.128226239135085 786.106826496017 43.377212033949085 0.36532032713105744
1.350941689758092 13.12725995344143 711.8204201416643 45.069965888725406 0.3703353514211078
1.3739602208664745 13.125624319399948 645.1536391960398 46.83075661517431 0.3754525106965434
1.396913024448029 13.123164981091865 585.1008909167291 48.6559802125379 0.38065625007471715
1.419806477973619 13.119978797601872 531.0597712802575 50.55769811873906 0.3859972595888196
1.4426092848453647 13.11606368881262 482.4239783437772 52.5391712077401 0.3914779868160975
1.465302844643609 13.111249814913318 438.53039323718326 54.603841157945396 0.39709803535048527
1.4878914691757181 13.105624896203448 398.93043209511757 56.75544523310125 0.4028568793561168
1.510305715682944 13.098971789042054 363.2111363075799 58.99374735448851 0.40875129706382973
1.5325806807414037 13.09152313395395 330.9420768619665 61.32238252547426 0.41478533939403583
1.5546534819060633 13.082987473904396 301.78411784094135 63.750718273962754 0.420985092965535
1.576537403559424 13.073509077744234 275.3983529226953 66.28336373154544 0.42735030794939155
1.5982220651429573 13.063122999052776 251.52094010889957 68.92530953008438 0.4338916876104532
1.6196399712431777 13.051429058023823 229.8851381549992 71.68176017974116 0.44062152628422313
1.640810321531068 13.038794684090382 210.28725932329516 74.55828752947016 0.4475458903363659
1.6617119985180213 13.024970076733325 192.50001365765735 77.56084888774542 0.45466812789445327
1.6823316957108978 13.010205550544443 176.37451852355733 80.69579986470835 0.4619935299936444
1.7025880339792492 12.993907426123775 161.70965230821707 83.96984323420405 0.46954143654796254
1.7225704553258772 12.976819418133564 148.40487373728243 87.39020877189631 0.47732200584093776
1.7421390003011032 12.95819279795775 136.28716082815365 90.963329438283 0.48533373911744127
1.7613450517331428 12.93836585486752 125.26925926480014 94.69924764857265 0.4935926935679033
1.7801485563986343 12.917346972120924 115.2463365070421 98.60725784743494 0.5021233058643777
1.7964469917951182 12.896124053136067 107.00832703077506 103.53380877749221 1.3223581990237574
