M[M_sun], R[km], Lambda[1], P_c[MeV/fm^3], rho_c[fm^-3]
0.23841724892012095 16.20908015294055 2780876.1263280716 3.453507347168396 0.169602847481901
0.2484041723945221 15.866557964598286 2282717.539513858 3.635366473880506 0.17197614985449733
0.25867243240878246 15.563552758884992 1882363.697637655 3.8243916810586134 0.1743703296705887
0.2692269080463774 15.294359417284447 1559063.7713120084 4.019662178140803 0.17675909370539977
0.28006666528802826 15.054898465461871 1296508.5353877987 4.221549960772051 0.17913548544398158
0.29118254794640663 14.841043636204066 1082312.2790914727 4.43140472166409 0.18153569552764007
0.302590943721898 14.649663921933556 906565.5181233074 4.649573411443024 0.18396362736559016
0.3142791953820855 14.478230156349454 762008.4872922439 4.876378219822092 0.18642004219898303
0.3262500266062426 14.324410038481014 642497.9074496357 5.109185960732495 0.18884636086166195
0.3385040404707708 14.186173370165202 543347.2216513646 5.351206949350357 0.19129516390395254
0.3510380292172405 14.061933330954936 460816.1203691904 5.602911140614206 0.19377387506738228
0.36385873647779665 13.950184556256628 391891.12412765407 5.8647099563057115 0.1962882094211949
0.37696271643600926 13.849394125780815 334079.4145147986 6.133369973404393 0.1987760478752541
0.39035343504663567 13.758841873279302 285498.5190858801 6.412556490525996 0.20129617140302683
0.40401905327329324 13.677088450138873 244547.30634749573 6.702964182004375 0.20385109851833053
0.4179708749238428 13.603706524961487 209936.15036111657 7.004513183354047 0.20642919764524484
0.4322076867040969 13.537514768569194 180590.4505895911 7.314165904472463 0.2089866100038002
0.4467284570031435 13.47819261848919 155673.05281017302 7.6363412028528925 0.21158851695010936
0.46153133160865834 13.424885395124358 134448.85623644968 7.971572149919336 0.21423503909184527
0.47661654361561595 13.377119326704436 116331.43227450205 8.317684921258412 0.2168849665360408
0.4919851257676351 13.334453443842639 100835.0834875745 8.675101791876209 0.21953592815001471
0.5076320571664418 13.296397975675644 87554.29462605921 9.047095671465089 0.22223481727543637
0.5235590586078983 13.262403298988406 76141.03380419016 9.434220212097976 0.22498404048741796
0.5397635631190206 13.2323614377638 66331.17206435763 9.830890292442922 0.22770445058668048
0.556250833647429 13.205792289329878 57865.515385347775 10.243745022769014 0.23047508450435372
0.5730049250251651 13.182330600727045 50096.943857106104 10.673495540450428 0.23329644645177977
0.5900413488483137 13.161936920727248 44235.71460167051 11.116753219217129 0.23611664230350024
0.6073517578545061 13.1441462921625 38752.82728435391 11.575131245610518 0.2389593308800926
0.6249232814607651 13.128834630777648 33999.91610788925 12.05231787636889 0.24186134522654246
0.6427723095438362 13.11578942624812 29866.391453799853 12.547488614914172 0.2448056539416557
0.6608711318153412 13.104693107237866 26270.55215989332 13.05660338971162 0.2477349917184762
0.6792504063483669 13.095552147910855 23134.592006111718 13.586635887322876 0.25072296781198466
0.6978667583570337 13.088002065600268 20397.549461287028 14.138488441439604 0.2537710343144932
0.716757449993999 13.08214328674221 18005.079749618355 14.705498593359444 0.25680874428477524
0.7358843385440651 13.077521554212785 15909.398333482543 15.294544105636135 0.2599012847469727
0.7552692377653414 13.0743000927495 14075.93199735195 15.907793370024175 0.2630600382482317
0.7748836380790264 13.07207641518911 12465.542171501991 16.541536478110725 0.2662360629987026
0.7947429110978994 13.070984252692073 10977.856365202806 17.19646193610858 0.2694333012173852
0.8148310155410905 13.070730529155481 9807.98646778878 17.878373281502064 0.27270210683016316
0.8351485068981587 13.071268993293316 8712.67976417873 18.5870244958828 0.27603324077979535
0.8556710121830771 13.072527838421621 7747.6238076230675 19.315724338709707 0.2793620984876674
0.876420577603756 13.074349808054324 6895.727018096377 20.07438380691265 0.2827621560300831
0.8973684467054818 13.076742399309188 6143.609962501284 20.864250573706546 0.2862344632066302
0.9185209616349518 13.079608256829557 5478.649910695879 21.678841717209494 0.28971997308494246
0.9398603295489251 13.08274098942705 4889.988112239895 22.52356694589908 0.2932612722403136
0.9613774802812641 13.086168928016455 4368.740507646362 23.403006844479258 0.2968858030247657
0.983073356729555 13.089775043115887 3906.0127052168623 24.316337844942826 0.3005782341029988
1.0049473671298759 13.093612199493485 3495.5028426059357 25.257640510922226 0.30427555834358994
1.0269588560403298 13.097481503967241 3131.0548744257944 26.237673341988696 0.30805875360678464
1.0491210332430358 13.101277230420761 2806.792262849356 27.257924823832916 0.3119299096060799
1.0714205835984143 13.105140340153127 2518.355624127492 28.31318083872878 0.31584599593000934
1.0938345539396448 13.1087647887158 2261.2918451029636 29.40649228938668 0.3198210401911771
1.1163762055135744 13.11234804337596 2032.1560467427366 30.54466966026102 0.3238856914390982
1.1390362412355928 13.115732689192296 1827.6403894547625 31.729556012647784 0.3280393296828994
1.161773511242774 13.118861917001848 1645.1785530097914 32.95370062324547 0.3322322691390612
1.1845654955015623 13.121402887133629 1482.0188749954584 34.225187029417 0.33650999377473534
1.2074416469836822 13.123780106099808 1336.1578110210382 35.548964980055686 0.3408930413550065
1.2303646818610339 13.12564720072143 1205.4779615633684 36.927048043090835 0.34538126248680123
1.253334599440189 13.127124440942175 1088.5086528136922 38.35354734544558 0.3499169780354255
1.2763360867800082 13.12810372201205 983.6154325074936 39.834923515482416 0.35454353602532207
1.2993369389481126 13.12853117658942 889.5604408739181 41.37749326733581 0.3592867546486072
1.322326101761352 13.128352302502803 805.1043278713171 42.98369946946546 0.36414886482148545
1.3453148511221864 13.127580118678441 729.254779711617 44.65424948544781 0.36912198780815847
1.368250882494431 13.126025058114145 661.0337854241205 46.38434307949168 0.37415515654168285
1.3911312078280909 13.123801094608433 599.6472492801354 48.18652915159946 0.37931915081208356
1.4139723630767624 13.120909739233221 544.336977268754 50.06381170187671 0.3846178808255524
1.4366926515966618 13.117113880539682 494.5629607403201 52.01936206263952 0.3900542864990542
1.4593297821699518 13.112571071229691 449.65404945535477 54.056547125902874 0.3956305734820008
1.4818606220865789 13.107202678081634 409.1381125909545 56.17056048003286 0.4012988866829963
1.504237534091172 13.100901054747647 372.57339191060976 58.37258596094526 0.40711551041891525
1.5264534496138515 13.093662315675532 339.51996772799896 60.66800522668405 0.4130920171369887
1.5485162617688764 13.08549326431642 309.6275514933032 63.06104096087062 0.41923174419788817
1.570369221076014 13.076376743918127 282.62304154752223 65.55618210930933 0.4255358561293155
1.5920101113824061 13.066149999653234 258.14589103507336 68.15825521331257 0.43200824859208325
1.6134209280479068 13.054941933623969 235.9779192897386 70.87227118248417 0.43866470565050747
1.6345890393138371 13.042600137772007 215.87020768564267 73.70173256366405 0.4455045125308432
1.65549428814329 13.029289029773054 197.64359227341873 76.65085156696038 0.45252397286625456
1.6761056945876645 13.014793698051019 181.1054376226518 79.72988204943887 0.4597440377904751
1.6964083038888584 12.99903901532624 166.06435420135014 82.94543987366089 0.4671832133061126
1.71637889260902 12.982206431215111 152.4072685674697 86.30452978805212 0.474852793069534
1.7360066431310333 12.964162772779162 139.98581573815557 89.81461680552795 0.4827580692522838
1.755253005077526 12.94474123693482 128.66800368082048 93.48369446929351 0.49090627272685533
1.7741289241911873 12.92422409958835 118.37439924789977 97.3203465991822 0.49931533717135607
1.792583905293889 12.902331954529142 108.98779203632225 101.31693323203761 0.5079371997038128
1.8106176589880956 12.879263163693494 100.43921320584771 105.53489119142887 0.5169801568793561
1.8274327243281245 12.854919142071443 92.89192970520686 110.00994439622579 0.6273463142852398
1.8418765909846562 12.828604784920978 86.52286358343008 114.84521984345496 0.7478591045048315
1.8539415714098333 12.798787571295463 81.04690213674051 120.07701296564218 0.8685090507550799
1.8638402901742654 12.76581567590532 76.32007135713565 125.72723024612692 0.9903313416795501
1.8716854780849341 12.728890116153172 72.1581920758034 131.82105371080223 1.112263464317087
1.877691752458704 12.688337002514695 68.46738141040815 138.38244740791748 1.2357239269189502
1.8819534917567078 12.644071672520907 65.16756114487026 145.43725881089932 1.3604904806061573
1.8846297567737484 12.596223703983245 62.190412488437985 153.01573569968048 1.4875349008066456
1.885829274677016 12.54467760753651 59.47866655757324 161.1509999669852 1.6170380297449658
