M[M_sun], R[km], Lambda[1], P_c[MeV/fm^3], rho_c[fm^-3]
0.23841724892012095 16.20908015294055 2780876.1263280716 3.453507347168396 0.169602847481901
0.24841291175095673 15.866304783725262 2282203.729981373 3.635519000684636 0.17197809005313192
0.25869073508469914 15.563025603207807 1881806.6511271058 3.8247054141832737 0.17437416760010654
0.26925369342787525 15.293765373723662 1558381.6806770966 4.020167603525237 0.17676527662600816
0.2801045844621182 15.054052124158822 1295723.8436676203 4.222242056388141 0.1791435784284498
0.2912308577158255 14.840060001150022 1081407.6155953738 4.4322930128583105 0.1815456905977662
0.3026487943487537 14.648706163987493 905772.6079750714 4.650667925727479 0.1839754815283961
0.3143470339442418 14.477309073984198 761248.2688512829 4.8777339095241405 0.18643460510719365
0.32632975090266475 14.323522736128814 641813.1036970754 5.110790243796326 0.1888630776671117
0.3385964116910194 14.185254202506048 542678.6437552648 5.3530581506047 0.19131363539742996
0.3511444168789885 14.060943820776703 460187.22359531035 5.605020840042601 0.19379415148202203
0.36397774856022536 13.949170220334668 391314.46532843163 5.867090579868097 0.19631025440915814
0.3770960378835899 13.848475721323812 333550.6676386662 6.136145278658047 0.198801747684278
0.3904963407383344 13.757823983160367 285013.9776023583 6.415638455193866 0.20132364071623318
0.40417978339324584 13.676273671963958 244114.88806704458 6.706366592794052 0.20388018749639714
0.41814866705643755 13.602792539242849 209530.485289441 7.008405787238003 0.20646247753882677
0.43240460062952396 13.536846915936147 180237.82638183696 7.318419227935595 0.20902167149430737
0.4469396959030352 13.477556631788334 155351.13684438533 7.640971874689482 0.21162533315418128
0.46175614053753117 13.424191818563697 134154.55556707873 7.976597448079706 0.21427351405322537
0.47685800181690824 13.376426360567292 116067.89367448064 8.323340550146847 0.21692826746985977
0.4922424757226687 13.333754950067565 100592.87083490142 8.681199742109866 0.2195807919500228
0.5079058915042852 13.29564003622647 87333.50097621305 9.05365569954362 0.22228140430253435
0.5238546088246062 13.261832076910363 75949.13735148165 9.441312957003705 0.22503299216654923
0.5400806010748134 13.2317254499738 66149.55472176714 9.83873125560682 0.22775821861977852
0.5565814711294385 13.20519335690101 57705.955127589536 10.252127574139282 0.23053047814300298
0.5733573739773308 13.181865486681234 50415.04725766308 10.682443761948056 0.23335337888263602
0.5904153742952495 13.16151123790531 44104.285981619876 11.126657467088812 0.2361796573850209
0.6077458532644605 13.1438916830053 38640.89427279267 11.585667841142493 0.2390241258139623
0.6253365432157184 13.12854162514307 33898.50453439382 12.063516844628941 0.2419279348233858
0.6432058130070502 13.115525781266674 29774.453980387054 12.55982774972925 0.24487902302295428
0.6613258048147489 13.104437407374336 26187.29954496693 13.069682781995859 0.2478100111985482
0.6797255587957811 13.095323578280768 23057.78567154698 13.600489215946462 0.25079963623384016
0.6983655832034098 13.08784992762415 20178.138683704325 14.153152390100306 0.25384959520603895
0.7172800079628014 13.081970733193339 17943.502049489514 14.721570688738082 0.2568948492058418
0.736437099482252 13.077486056925231 15855.844820741018 15.311523346076841 0.25998938165882535
0.7558350181850793 13.074224597128643 14026.506060371681 15.92572329280341 0.2631498946550222
0.7754782653054582 13.072066547497236 12421.128241662263 16.56113214263795 0.2663342673258917
0.7953572644454441 13.070946725116096 11011.120623944518 17.217119239066296 0.2695334291145175
0.8154717076729182 13.070742596929648 9771.168635375043 17.90014470906557 0.27280444707881724
0.8358107946998379 13.07134813951173 8679.67559924312 18.61076180012717 0.2761448219616752
0.8563571624759863 13.072558620090227 7669.581485006794 19.340709802552773 0.2794760556249723
0.8771349025631084 13.074468695900686 6868.527249573979 20.1006795201928 0.2828781886311319
0.8981044693442386 13.076822064103693 6119.211085979477 20.891921517299263 0.28635286290690176
0.9192839336613772 13.079712644406353 5456.297690261608 21.708920373858877 0.28984867501807043
0.9406401405892061 13.082824682823913 4869.786585626001 22.55518727711776 0.29339275072587395
0.962186231173321 13.086275152887518 4350.080781436175 23.436250690170393 0.2970202018450484
0.9839170090184259 13.08998898124152 3889.3312748352396 24.35241776324831 0.3007240986489122
1.0058042407727208 13.093816992789133 3480.5387674543567 25.295540943016526 0.30442408655680897
1.0278395416650443 13.097627284454779 3117.3353474437895 26.277488759005877 0.30821046796374474
1.0500353487838876 13.10148709011126 2794.295205111966 27.2997589373124 0.31208515724016883
1.0723533862696315 13.10525552756666 2506.899417165701 28.35848971743807 0.31601413852077537
1.0947997476899072 13.108994472906094 2251.028229104998 29.4540731432395 0.31999310435975026
1.1173609717936015 13.112483701459063 2022.7655045821937 30.594644910649382 0.32406125315758905
1.1400314583496038 13.11580295787052 1819.1074126348883 31.78205547396425 0.32821915080932135
1.162787076223819 13.118853400249096 1637.3279648290295 33.01046768617009 0.33242670765219634
1.1856123520837962 13.12152349030506 1474.9679941524896 34.28480041737066 0.33670931149732514
1.2085116141392018 13.123834823097544 1329.6361623466682 35.61158748368777 0.34109754239579765
1.2314688631828103 13.125824504503623 1199.6466635615577 36.992847972937184 0.3455904807909461
1.2544557976802821 13.127215039457473 1083.187759389614 38.42460708595009 0.3501429205012616
1.277471250633556 13.12816344659449 978.7723883419992 39.909569812808634 0.35477558263380127
1.300475810940873 13.128473920775575 885.120129500752 41.45593638999853 0.3595253367265721
1.3235120859695677 13.128326336172021 800.9893291997105 43.06616343289322 0.36439435488653665
1.3464907422384347 13.127423749304018 725.5378449504549 44.74283884954321 0.36938466424536776
1.3694643247842637 13.125979216893315 657.5992352652804 46.47786939342896 0.37442696002046805
1.3923559462625132 13.123700464778649 596.5396454643609 48.2848740994486 0.37959925872576034
1.415188937744677 13.120689026486856 541.5505571155436 50.16726713223468 0.38490682220702843
1.4379449416155405 13.116907889239755 491.9586543843084 52.12823847618698 0.39035248707122006
1.4605898090681506 13.11227827164672 447.2962176487134 54.17117059240687 0.3959379138812746
1.4831317514344278 13.106866401242119 406.9493779984453 56.29408520406602 0.40163009406279765
1.5055078798040566 13.100497195957486 370.59506690448836 58.502644871229386 0.4074580117892618
1.52775233783598 13.093278372299658 337.69428554184617 60.80500650242612 0.41344653326993946
1.549807151702596 13.084984098512725 307.96642051705544 63.20541932320923 0.419598793568479
1.5716610461767266 13.075715015008466 281.0790483228747 65.70839728025672 0.4259156609614555
1.5933169411664134 13.06548721129331 256.7250925126761 68.31880105914072 0.43240245576054365
1.6147299092547953 13.05415185241254 234.67160144531644 71.0416818495695 0.4390742310301574
1.6359110219442912 13.041824058435191 214.67364819935747 73.88247564426534 0.4459381749790551
1.6568138645109294 13.02840682932959 196.54545371288103 76.84344672297607 0.4529821450245856
1.6774037286385752 13.013701076848555 180.0819202516359 79.93327106014125 0.4602200029856593
1.6977138286620674 12.997952705405696 165.12659889371324 83.16032810834878 0.4676789379025669
1.7176724277708197 12.981003770154006 151.5507649396279 86.53167953523979 0.47536955335545333
1.7372942044013142 12.9629017715664 139.194992875048 90.05484335309397 0.4832967107381815
1.7565483238353155 12.943437670354994 127.94397977036299 93.7378694295457 0.49146800949175684
1.775388364361991 12.922681472442477 117.70161558631561 97.58941042357135 0.4999024194556513
1.7938376933147027 12.900800260535975 108.37756052730252 101.61869956502126 0.5086160054584571
1.811856454642251 12.877552972914682 99.86513147696893 105.8356130691068 0.5176160836914167
1.8294175537103103 12.852929652233843 92.1056579638572 110.25075770599624 0.5269152641797401
1.846528460377663 12.827211540610891 85.03256649875792 114.87553587062763 0.536537103647348
1.863108071374024 12.799800293878105 78.55753478997647 119.72218392856195 0.546501386767099
1.8791879007667307 12.7710570221188 72.63971314504235 124.80257557393577 0.5568118500955819
1.8947513999119994 12.741031644257706 67.23256440923426 130.12583096337184 0.5674738921934255
1.9097726388671539 12.709520229092819 62.270159044400714 135.71203810254102 0.5785349137989089
1.9242055531339184 12.67665592972857 57.74232966336768 141.57750534498675 0.590013500982427
1.938050816377238 12.642230453550313 53.59216131187567 147.73981017773616 0.601927744285048
1.9512833017772382 12.60642410309443 49.78644117403811 154.21787968352302 0.6143130403638623
1.9639144513990163 12.569184033254123 46.29508289122732 161.03217317465163 0.6272014106872958
1.9758745966057965 12.53041519563682 43.09110493431712 168.19017363665654 0.6405593801701043
1.9871971597089475 12.490182961057998 40.14559709700016 175.72743218640932 0.6544724336400062
1.9978424107426307 12.448489558277155 37.44034534439321 183.67078081733982 0.6689839874005536
2.0077549027708557 12.40512975452628 34.954506703595015 192.043775645694 0.684103781333385
2.0169798822830574 12.36042261531023 32.66788950703255 200.86307576725574 0.6998395204354924
2.0254858896258963 12.314207553202225 30.56460341871179 210.1769852547891 0.7162932909297074
2.0332167735539834 12.26636231684435 28.62776056196646 220.0116490204977 0.7334663702544922
2.0402233247911576 12.21704609708493 26.8407739062608 230.39666949175017 0.7513968152200251
2.0464459271037194 12.16628282324954 25.197616396472025 241.3892362509389 0.770194608576826
2.0518950747524163 12.11399841204215 23.68127192291086 253.00430761625458 0.7898032532965356
2.0565392122323742 12.060194596533815 22.28262485139755 265.3186197378196 0.8103992265137394
2.0603796858064425 12.004956627358768 20.992500217741927 278.3534046841092 0.8319405044131958
2.0634031267538977 11.948247057645853 19.802362625844072 292.1898434449638 0.8545742637266548
2.06558946726411 11.890080533083232 18.705124839820478 306.8654653422517 0.8783125696018943
2.066952418246338 11.830456802522644 17.689496956717914 322.45921375911195 0.9032596716177078
2.0674730552783753 11.76950367715218 16.754627437062204 339.0443948014029 0.92952250495937
