M[M_sun], R[km], Lambda[1], P_c[MeV/fm^3], rho_c[fm^-3]
0.23841724892012095 16.20908015294055 2780876.1263280716 3.453507347168396 0.169602847481901
0.2484229770574647 15.86597327278431 2281755.8362714862 3.6357031238595625 0.17198043216955286
0.2587116770403943 15.562472403141953 1880995.3194867524 3.825084162290263 0.17437880086457683
0.26928454133660407 15.293093965960246 1557468.8462225278 4.020777809835535 0.17677274134243812
0.28014774935050535 15.053196779326793 1294730.7220540212 4.223077683757289 0.1791533497940856
0.2912865717196086 14.83907734123365 1080475.6244720384 4.433365588710658 0.1815577592425187
0.302719473132961 14.647636078324727 904827.367913802 4.651989584806795 0.18398979578826707
0.31443130423785487 14.476134628575116 760307.5324587933 4.8793172809943135 0.1864511040115443
0.32642765613134667 14.322286357500523 640943.7024505415 5.112727708867614 0.18888326626561563
0.3387094539886419 14.184093038451955 541868.3316550571 5.355293937618913 0.19133594433069853
0.35127202951755687 14.059762993414608 459440.7530541691 5.607568964546658 0.19381864161948079
0.36409157770564543 13.948787372697952 390957.23464511475 5.869966080539601 0.19633688204516625
0.3772566935471479 13.847292588694735 332891.1258834056 6.139497744967207 0.19883279210499208
0.39067496626749937 13.75664204978307 284422.24645963043 6.419361544035365 0.20135682431971455
0.40437576042566536 13.675140223402346 243573.33588366938 6.710476992214601 0.20391532943720928
0.41835999874901253 13.601756356139845 209059.91844500712 7.013108724182502 0.20650268539087163
0.4326342822717458 13.535868361197998 179813.33366504282 7.323558224400421 0.20906403386747968
0.4471863474755875 13.476403546600366 154950.50744472098 7.646567059535616 0.2116698177288574
0.4620280445157171 13.423274967018074 133798.76777089457 7.982669736266957 0.21432000503665313
0.4771526592994652 13.375703985146295 115751.80534569752 8.330175003585587 0.21698059378438242
0.49255346120129173 13.332914967759454 100306.27597301488 8.688569044431196 0.2196350093333852
0.5082415430456074 13.294942894621633 87076.3741794654 9.061583768617353 0.22233770667873623
0.5242112263966374 13.261050120838854 75711.74089699853 9.449825915494124 0.2250913682900314
0.540459832858299 13.231177656681238 65939.75192508084 9.848208521811491 0.22782320731470285
0.5569782140524842 13.204669060578 57521.38741050043 10.262259883130982 0.2305974345430508
0.5737800440860293 13.181387329811727 50245.89577701863 10.693260271547919 0.2334221981653352
0.5908654458988265 13.161025225086632 43951.18952180756 11.138630542141557 0.2362558352341899
0.6082109780694508 13.143325572699542 38501.90609773403 11.598405874732633 0.23910245852034723
0.6258362227075857 13.128080801436989 33772.092473273486 12.077056193050204 0.24200844043175593
0.643726453416813 13.115129466799047 29662.858792336563 12.574746726180924 0.2449677319650785
0.6618846552621 13.104192596370476 26086.02454871844 13.085497421013955 0.24790071923535
0.6803043016242394 13.09506197952221 22967.104433928354 13.617240304290695 0.2508923417158661
0.6989668452372292 13.08761364870091 20248.454129695172 14.17088435375854 0.25394459273406367
0.7179110324120619 13.081850309147864 17870.389126897808 14.741006994392645 0.25699897760508195
0.737095801992014 13.07736897916549 15788.571293017438 15.332057477350425 0.26009592314748003
0.7565235183770329 13.074147344327441 13966.058203537605 15.94740798341152 0.26325856820618015
0.7761914878049588 13.071988690290985 12366.31458205107 16.58483337691554 0.2664530468529932
0.7960972993508435 13.07093823982019 10962.223607471393 17.242105493355858 0.26965453984733423
0.8162436336694883 13.070774160933356 9726.971534468274 17.926479565520022 0.27292823849074727
0.8366109962857141 13.07134893140071 8639.271680365357 18.63899068251591 0.2762755586234441
0.8571894987217696 13.072589351607506 7681.251322972894 19.37093610161805 0.2796139158838187
0.8779840433239174 13.0745258663273 6836.375457614995 20.132492106015004 0.2830185650126246
0.8989953196150254 13.076937274970767 6089.3724151585375 20.925399124736348 0.2864961084262705
0.9202023349801476 13.079817348356684 5429.4921994718725 21.745314124128186 0.2900043982628961
0.941584218824609 13.082977508004655 4845.6220129887315 22.593447831572316 0.2935518395008015
0.9631640686294212 13.086443022804648 4328.215181868233 23.476477229389108 0.29718283042494503
0.9848924249308343 13.090230865524417 3871.392035952851 24.39571746649798 0.3008977633516456
1.006842673599644 13.09395120081348 3462.357493735648 25.34140802716038 0.3046038353268627
1.0289070625090155 13.097790817681604 3100.8547611779327 26.325675212268163 0.3083940796729407
1.0511215033908308 13.101641951896202 2779.4137972186463 27.35039047758436 0.31227305238563086
1.0734814867212175 13.105473886816041 2493.23844962817 28.413331791245774 0.31621765908088845
1.0959460680385396 13.109149641500172 2238.6985593732393 29.51166749617839 0.3202013798245747
1.1185494485394665 13.112674777526395 2011.4410348690456 30.65513997294159 0.3242737706940435
1.14122932046265 13.11596629978493 1808.997259251494 31.84560864801906 0.3284368331066184
1.1640196059514922 13.119011788155666 1628.1446353684203 33.07919351885689 0.3326621073370337
1.1868790652801116 13.121664205164736 1466.480112671086 34.356975149367145 0.3369506281495719
1.2097915747030388 13.123958406250278 1316.0656844174157 35.687408549988206 0.34134514487211237
1.2327707787094622 13.125828699775507 1192.639906342364 37.072519515566384 0.3458438054536989
1.2557926025230552 13.127302216566271 1076.7802475055157 38.51065571419296 0.35041652182753963
1.278818576583804 13.128145547599429 972.9634327776328 39.99996542205237 0.35505658779142824
1.301870946709944 13.128548898319197 879.8238677015402 41.55093407843888 0.35981426895084645
1.3249029791186508 13.128291459350175 796.2300591832031 43.16603499662497 0.36469166628970184
1.3479268147526826 13.127389209016783 721.0714213173079 44.84786734355079 0.3696898950284602
1.3708930514609816 13.125794678571689 653.590280941549 46.59115520660442 0.37475618798660754
1.3938404730637857 13.12362665524312 592.8348177859974 48.40400218067558 0.37993856154733485
1.416691015001457 13.120504726221244 538.1162620676716 50.29259170367941 0.3852568420627367
1.4394452204981898 13.116652112114625 488.89389174061176 52.26013642901127 0.39071374111806256
1.4621166351912205 13.111967199394103 444.44535165567305 54.31003774648814 0.39631025898549344
1.4846563785380305 13.106457351747203 404.3786582576277 56.44375223887787 0.40203139693419176
1.507059024999161 13.100049997853063 368.1991472201635 58.66023712237967 0.40787302035620304
1.5293010938866036 13.092634774834313 335.49851424587183 60.97101961644988 0.4138761228988246
1.55135451538992 13.084308056040655 305.96780250445056 63.38038122326699 0.42004359467477614
1.5732523108937668 13.07514543846701 279.23761907013727 65.89286629915112 0.4263759450732175
1.5948942437557339 13.064699020375437 255.0376630584844 68.51337705343343 0.4328802211699495
1.6163100686109273 13.053277327535014 233.1122452836192 71.24701366487015 0.4395705905042208
1.6374942414453895 13.040839949472762 213.2464938330506 74.0992555187794 0.4464538811112527
1.658395722079753 13.027294784995346 195.22669040271026 77.07596589050942 0.4535334184545287
1.6789887193687432 13.012601929221258 178.90725623263486 80.17984415350901 0.46079702634649206
1.6992763868648288 12.996630462142587 164.02344947533635 83.42085854735433 0.4682799542724379
1.7192452653902375 12.979602424313208 150.5250059059302 86.80709380615272 0.47599611428781324
1.7388532178419025 12.9612832735674 138.24456436011317 90.34613246251239 0.48394984587379686
1.7580950917788196 12.94178365238526 127.07450728187365 94.04609296074153 0.49214919574672344
1.7769195000750249 12.920940509450665 116.90600749652047 97.91571177209623 0.5006143908308277
1.795357996830033 12.89893286877978 107.63951466777534 101.96431427379876 0.5093607816805644
1.813349559149174 12.8755763590845 99.19231885500626 106.20186627517982 0.5183950102598176
1.8308923298159445 12.850814080111205 91.47950496435033 110.63907228710018 0.5277306343456365
1.8479756738172575 12.824909121406034 84.4537444258794 115.28745043611347 0.5373921580183169
1.8645409206056438 12.797358412986618 78.01777394603637 120.15800202576266 0.5473937241330454
1.8806033293824385 12.768549610072448 72.14098769565446 125.26025037400125 0.5577296444712919
1.8961168896811853 12.738278091873832 66.77096544711777 130.61224318758056 0.5684392648964446
1.9110909085884185 12.706627105874352 61.85253120590127 136.22926607279243 0.5795511170270345
1.9254981980005181 12.6736287658799 57.35529324107045 142.1277906398983 0.5910827909708307
1.9392962275445917 12.639019496329226 53.22687491806256 148.32557633925026 0.6030545118630884
1.9525168622537832 12.60318500650071 49.44965746548076 154.84175790546067 0.6155018769817037
1.96507270805455 12.56553279212908 45.97608033797206 161.69042795939833 0.6284334795828056
1.9770054643827586 12.526739633998721 42.797095886259804 168.8910264185244 0.6418573329279227
1.9882566958841756 12.48627071998567 39.87410731262121 176.4753277407884 0.6558456167707928
1.9988412006102425 12.444391947775319 37.189824815135815 184.46934383088933 0.6704378604807306
2.00869154116377 12.400845863523827 34.719361269155065 192.88835996690568 0.685614324625224
2.017849116861544 12.35586584211735 32.4515148430448 201.76611866000508 0.7014418045282762
2.026299157182163 12.309407249371734 30.359762007544727 211.14312604701587 0.7179941741570368
2.033973901294812 12.261442925564413 28.43916624890236 221.03666736974628 0.7352413359743478
2.0409019344154467 12.211956633359765 26.66648115547392 231.4948511622507 0.7532844163467275
2.047056357386714 12.16098602437525 25.034760225801318 242.55700491454806 0.7721706178309287
2.0524245616036545 12.10847249646272 23.529497542198325 254.25717726850192 0.791908250609152
2.0569916231485132 12.054412039468373 22.139907129831396 266.6551810043747 0.812615845393248
2.0607431708560644 11.999053580567372 20.86221521574655 279.7879692035308 0.8342988880711045
2.0636768633235048 11.942033740698033 19.67855783753467 293.7218301161103 0.8570595816743696
2.0657794226818553 11.88371099399355 18.59177410736834 308.51406457885673 0.8809689497233222
2.0670470553781395 11.823854631830216 17.58477170383004 324.223478775021 0.9060639952498166
2.0674749355602016 11.762626904722966 16.654923694549918 340.9348333020991 0.9324889233907792
