M[M_sun], R[km], Lambda[1], P_c[MeV/fm^3], rho_c[fm^-3]
0.23841724892012095 16.20908015294055 2780876.1263280716 3.453507347168396 0.169602847481901
0.24842214234131618 15.866022225531534 2281949.018637016 3.6356804188040788 0.17198014335266
0.2587098274251486 15.56255276126738 1881156.5722537038 3.825037455726398 0.17437822949838677
0.269281613235689 15.293153303610643 1557609.2712199434 4.020702557790056 0.17677182077644132
0.28014303648539685 15.053256406009158 1294823.6464534556 4.2229746292064085 0.17915214473099855
0.2912800496628648 14.839180461545613 1080620.3191024347 4.433233308447923 0.18155627082238018
0.30271075073277487 14.647698047586234 904922.9756297872 4.6518265806674925 0.18398803036808684
0.3144205833064221 14.476289475334818 760432.0562365951 4.879121993774481 0.18644906909729858
0.3264155942882502 14.322479843220046 641002.9717136744 5.112488741069771 0.18888077619495705
0.33869572298960055 14.184165367460121 541950.3514496342 5.35501816738105 0.19133319266437485
0.35125712034195683 14.060036024833483 459548.98036842584 5.607254661374625 0.19381562083777465
0.3640995938836619 13.948089958776402 390714.5655486435 5.869611387659294 0.19633359752744553
0.37723583437066766 13.847464076410228 332982.91406621074 6.139084204280452 0.19882896264635533
0.3906526241732069 13.75682548102447 284488.8835849688 6.4189022743193975 0.2013527308841844
0.40434875475716997 13.675335361471804 243647.10734045683 6.7099699329047 0.20391099432365128
0.4183339577732659 13.601862811725317 209111.7255996038 7.012528549097883 0.20649772517255746
0.43260370063170583 13.535871309443296 179852.69629668735 7.322924240413187 0.2090588077369625
0.44715491271355784 13.476544230546054 154998.6452117108 7.645876781187255 0.21166432966374793
0.4619950484342745 13.423382364347143 133842.44670673274 7.981920581015236 0.21431426931342681
0.47711608608663475 13.375811595358485 115794.64228328924 8.329331787754834 0.2169741379094297
0.49251667687410305 13.333027226437236 100340.20444969187 8.68765982074621 0.2196283199987723
0.5081998976869594 13.294998751081767 87107.23301099107 9.060605583586085 0.2223307599504581
0.5241672115229272 13.26119533936024 75741.461196354 9.448775543409052 0.22508416554722355
0.5404092047496906 13.23115206982358 65967.53229777738 9.84703912589877 0.22781518838682044
0.556928692477645 13.204766987277454 57542.706099427436 10.261009636175592 0.2305891726517709
0.5737293978462775 13.181463754069096 50267.09720285099 10.691925572798782 0.23341370623827803
0.5908128393977483 13.161101189310047 43971.836561269236 11.137153074356846 0.23624643494917036
0.608152166867344 13.143417116987637 38520.52896528091 11.596833980656381 0.23909279213689236
0.625775659154099 13.128207063883414 33789.486354953515 12.075385382821866 0.24199850571483172
0.6436606230162518 13.115133886419265 29673.123228425553 12.572905594019188 0.24495678450585384
0.6618162316773567 13.104174745465164 26097.48872568999 13.083545718765661 0.24788952485531
0.6802343479276505 13.095180519825279 22980.20330197737 13.615172994582187 0.250880900611916
0.6988952352914274 13.087607872469272 20257.31754290364 14.168695949738863 0.25393286854061303
0.7178316328535137 13.081823946545805 17878.74771382053 14.738608154147942 0.2569861260169688
0.7370162145252481 13.077385949375142 15797.431338596094 15.329523095652299 0.2600827734897059
0.7564393014208369 13.074104222319644 13973.15184465949 15.944731546905484 0.2632451551552487
0.7761056135704473 13.072071529668028 12373.746751114277 16.58190793139498 0.26643838588506963
0.7960169418151208 13.07104416323808 10968.62687688503 17.239021381271343 0.26963959086497313
0.8161480654205637 13.070741595881861 9732.508537806714 17.92322893303451 0.27291295834727114
0.8365120171189666 13.071341664542546 8644.329974727876 18.63556502138691 0.2762599343973705
0.8570880458514484 13.072671809962255 7686.165212660194 19.36720491002897 0.279596898152433
0.8778868890096608 13.074531913157974 6839.911843366126 20.12856502882292 0.2830012363714023
0.8988855387500083 13.07690155991365 6092.8180669480025 20.921266435422442 0.28647842528603196
0.9200897512700722 13.079813986730851 5432.789823894469 21.740821259395297 0.28998517398758533
0.9414694827886688 13.082939678827584 4848.546307496303 22.588724421073863 0.29353219938840924
0.9630460238369288 13.086382391353117 4330.657775809132 23.471511019759692 0.297162752942885
0.9847990895688954 13.090144459569396 3871.822400764284 24.39049586698611 0.3008773003964024
1.0067133056668525 13.093948263874275 3464.62778496669 25.33574511076322 0.3045816428924338
1.0287716600980954 13.097747330248776 3102.6994764380706 26.319725828301245 0.3083714098874538
1.050994351780126 13.101636376414634 2781.221870360407 27.344139092243065 0.3122498533094872
1.0733378283259538 13.105442009217489 2495.0384311327707 28.40656023994957 0.31619252965348077
1.0958088375357993 13.109073513826893 2240.044532287085 29.50455597649579 0.3201756628055976
1.118400610059574 13.112663152362877 2012.8424039423674 30.647670142790048 0.3242475293804323
1.1410938170676275 13.116027757524137 1810.2504627743876 31.837761056084474 0.32840995353898117
1.1638614099761961 13.118903116858625 1629.2269570614433 33.070706817364986 0.33263303869168737
1.1867254305858286 13.121640294465607 1467.494298079073 34.3480623808389 0.33692082825417924
1.2096417501823804 13.123931725869777 1322.917906060651 35.67804531314589 0.34131456813741845
1.2326211442164545 13.125849126576961 1193.4570155242513 37.062680579463816 0.3458125214457862
1.2556262167873569 13.127302827536356 1077.5725723927355 38.50002874888616 0.35038273219182287
1.278663848901285 13.128231462637268 973.6903055192923 39.984519020261985 0.3549918473473478
1.300264580838179 13.127977278576234 885.6543862988106 41.69699132959474 0.6635595689911689
1.30224212265429 13.114035422126829 869.3678830886172 43.90353802901802 1.7023291603020545
1.2899025509319688 13.08412504793465 898.1065174261294 47.91140187960254 2.681949431386848
1.2718511631202225 13.0451913865474 945.8032218859034 53.276601531088986 3.7369224218548434
1.2499608686891412 12.998721513297058 1008.6028353762608 59.942205957285196 4.512443026092776
1.2231993504197007 12.937672107655432 1089.8025821612362 67.68111093179535 4.8187102929643615
1.192702110800949 12.859917087930175 1186.2746000097118 75.91040762580697 4.852555593226024
1.1602486194712147 12.766282728344425 1292.151556415549 84.25839824211853 4.88393840413092
1.1271870595336895 12.658539914667253 1402.1687194194587 92.93115376716823 4.916418974756876
1.0942976268620042 12.537616391578519 1511.8537170993307 101.92585858459299 4.9500252406889205
1.0620779753281369 12.404301398599584 1616.2046757122248 111.24483211282147 4.984759327486112
1.0309648515873964 12.259091213647771 1710.0671418030686 120.89401491339649 5.02063576379623
1.001314888837597 12.10269139625023 1787.9841423379396 130.88188790453648 5.057677819509569
0.9733873209258875 11.935821459038426 1844.716318306418 141.21901968839276 5.095913755124409
0.9474282956810808 11.759256043470094 1875.7036932369263 151.84433735832914 5.135088874744845
0.9236376150914466 11.574250355993 1877.6907379803488 162.85564230117865 5.175580068833127
0.902142785179766 11.381789922281293 1849.4070461787219 174.27018886973485 5.21744223915277
0.883058975708139 11.183453093265234 1791.288282957645 186.1025724838725 5.260719244885375
0.8664209542046027 10.98079025041846 1706.532694157166 198.36879391137816 5.305445711309156
0.852260010846594 10.775493563677736 1599.0458724776074 211.08741691612747 5.351682494584401
0.8405179221965051 10.5691936348901 1475.206503970273 224.27804825048537 5.399497568988295
0.831143490502413 10.363624770417799 1340.9802130132525 237.96183960381623 5.448947709692448
0.824019734765145 10.160354361288242 1202.6702863726543 252.16203927550688 5.500098881886909
0.8190322961052795 9.960876833285807 1065.897504689692 266.90363317150525 5.553036709938664
0.8160410748065784 9.76652501582799 934.9328850908323 282.21310584434633 5.607833098656823
0.8148788496252735 9.57821028321023 812.8634055645653 298.1195478846033 5.664576089445358
0.8153871864933266 9.396820180677583 702.0683424157354 314.6535728087989 5.723365377420287
0.8174105245079031 9.222939200174787 603.0146734865972 331.8482343203233 5.784289955963892
0.8207642696671681 9.056845423703908 515.8845046188118 349.7394245236085 5.847472986003977
0.8253150448714264 8.898787857875112 440.24448801604 368.3647723830607 5.913003676606467
0.8309089531329313 8.748679029533683 375.16561608371126 387.71518962207847 5.980840980440367
0.8373992329202471 8.606500645121068 319.6953996361344 407.86251499159334 6.051191693217194
0.8446597234942946 8.471996447018743 272.5133951717488 428.8680172002574 6.124278752540931
0.8525669882213567 8.344814778748026 232.5977015435634 450.78253172683 6.200239035103883
0.8610203008630418 8.224659897779464 198.97537228555493 473.65970567501813 6.279236136456444
0.869888003072557 8.111166742221927 170.59453287394805 497.52359238727365 6.361312338659078
0.8791095195924609 8.003903767045655 146.71543994461982 522.3937502659752 6.446480058471833
0.8885800795213492 7.902449143162813 126.52439663945954 548.4059377655823 6.535209653127788
0.8982236657126241 7.806375182348637 109.5056312532505 575.6318729996797 6.627706871390848
0.9079751341254603 7.715355505197572 94.86333625261268 604.0403278339869 6.723776233410199
0.917764507434815 7.628941368578285 82.87506648732176 633.7894245564995 6.82395500644061
0.9275412051839219 7.546741076836767 72.47014796381283 664.9830934993497 6.928556377112086
0.9372269764399401 7.468491563956009 63.61202538089678 697.5823945464643 7.037333505512112
0.9468034576921524 7.393788414850451 56.01632658443823 731.8264014056036 7.151109899719484
0.9562067224692086 7.3223838747853875 49.52246717181793 767.6963952045071 7.269701468942943
0.9653947183986087 7.253910194957238 43.93439059204957 805.3949602211347 7.393773898811178
0.9743442345997569 7.1882106443747515 39.10702386827644 844.9487120023899 7.523276936356958
0.9830162496085098 7.124904256356649 34.91866071239844 886.5876228272728 7.6589891735725875
0.9913597221410724 7.063850406603876 31.239019737428777 930.3094434585555 7.800700210319243
0.9993750676758543 7.00480177156735 28.112365252713765 976.3830482728296 7.949294619518362
1.007011499349627 6.947614624786863 25.35509396690348 1024.9289964916745 8.10505057043239
1.0142700442188177 6.892014098540631 22.92165493343852 1076.0696705979028 8.268209267799058
1.021100320296404 6.837884646829463 20.794747336548014 1130.0556829923155 8.43952416333054
1.0274985668773062 6.78509352074151 18.922405072901217 1187.080543817792 8.619476692472851
1.0334506478253398 6.733472619318898 17.263755493537516 1247.357663502777 8.808604177032914
1.038922908476748 6.682939429185794 15.797128478780285 1311.1014429816041 9.007411147500584
1.043916929078872 6.633292717086061 14.49514828994597 1378.5958764232582 9.216653370295887
1.0484068186386033 6.5844968976320795 13.322007712789173 1450.1358820393036 9.43708710897942
1.0523832707742338 6.536416516015151 12.304402010956917 1526.0356268142846 9.66949657903612
1.0558416938493806 6.488998310590366 11.370616437712524 1606.6410575483371 9.914739095153053
1.0587571620710494 6.4421274674752915 10.548037832661919 1692.3310072984393 10.173738506253402
1.061138265566552 6.3957997309738 9.82120361674981 1783.4950971561664 10.447390944527955
1.0629587450235727 6.349872741269025 9.159264931971602 1880.6214861898952 10.736948378477678
1.0642397717206444 6.304320317612999 8.557814294752305 1984.2230203251133 11.04364972406376
1.0649462535427416 6.259109936877397 8.031310398988662 2094.8662348356306 11.368863816349931
