M[M_sun], R[km], Lambda[1], P_c[MeV/fm^3], rho_c[fm^-3]
0.23841724892012095 16.20908015294055 2780876.1263280716 3.453507347168396 0.169602847481901
0.24840248933309667 15.86660155267829 2282746.8954855176 3.635336322896215 0.17197576632257397
0.25866901657018443 15.563676322336788 1882590.3676429347 3.82432966550757 0.17436957102798703
0.26922169049073263 15.294490755936405 1559258.3456146193 4.019562274515518 0.17675787157409684
0.280060476037728 15.054980640745201 1296637.0895647448 4.221413164049496 0.17913388581854658
0.29117680372823496 14.841226382194552 1082437.6207345412 4.431229151470407 0.1815337200083404
0.3025807395466331 14.649832707251932 906742.3633733813 4.649357088237825 0.18396128447200755
0.31426415501592453 14.478444305344421 762164.0186354558 4.876107764022468 0.1864171130210581
0.32623258788319404 14.324623643382917 642646.7745020372 5.108868906978599 0.18884305712677846
0.3384854001505436 14.186447091799964 543506.9884147213 5.350841108192279 0.1912915134998977
0.3510174299834779 14.062170135705545 460944.90641726536 5.602494226220599 0.1937698680846812
0.3638353687623513 13.95032878966893 391993.90262893465 5.864239515784514 0.19628385306020146
0.3769372554164347 13.849621983652936 334177.88078568736 6.132821560106701 0.1987709694727979
0.3903206822061219 13.758912900028868 285573.35723521106 6.411947496692451 0.20129074348799303
0.40398702952280147 13.677262290592905 244627.06607486142 6.7022918863518255 0.20384535071340626
0.4179364145797941 13.603853805743144 210012.05659384877 7.003744058957551 0.2064226220010669
0.4321705073059904 13.537712837878551 180660.2775947721 7.313325528910707 0.20897968252225868
0.4466851430403549 13.478323664290928 155732.02863166307 7.635426293913042 0.21158124295717154
0.4614889366068203 13.425107723960924 134504.60266204976 7.970579297284219 0.21422743755944398
0.4765669227713603 13.377234825770906 116377.1342671504 8.316567578767359 0.21687641187762657
0.49193327882412635 13.33458438968588 100878.99360324295 8.673897092608474 0.219527064944356
0.5075770100154756 13.296498138950993 87595.01023340558 9.045799716119737 0.2222256138534283
0.5235019213288504 13.262541570261032 76179.66107698916 9.43277359989159 0.22497376715302786
0.5397056966709773 13.232362360049928 66356.81759502411 9.829341384609922 0.22769382922220144
0.5561827653071236 13.205880506324403 57896.41706526377 10.242089167665098 0.23046414227027362
0.5729374890688324 13.182423935682914 50581.639339564535 10.671727985379441 0.2332852005067738
0.5899657399877097 13.162045863826446 44259.42380103385 11.114796901453161 0.23610419536911675
0.6072734454702037 13.144254386527523 38775.41120260626 11.573050071043912 0.23894653266951263
0.6248442850881404 13.12892892273058 34021.1852657242 12.050105919625224 0.2418481928267521
0.6426869192634137 13.115825353042855 29884.4240737346 12.545051564164584 0.24479116312222188
0.660784010169276 13.104844349679245 26288.136517913026 13.054020189947805 0.2477201752576658
0.679157190306793 13.095602042886798 23148.939012418577 13.583899892649345 0.25070782600747515
0.6977664631969251 13.088039945206765 20258.157811834742 14.135592413034853 0.25375551908195365
0.7166548767846154 13.08210893899714 18016.744974703808 14.702324605737056 0.25679173990872756
0.735778500823114 13.077542178620378 15921.597506247535 15.291191041631594 0.25988388735012946
0.7551551394997545 13.074323144350162 14085.999798631101 15.904252639071151 0.2630422937568155
0.7747668639698206 13.072106572571608 12475.150581156964 16.537666977742912 0.26621667086838463
0.7946225139365184 13.070996181361528 11059.835353641656 17.192382881411532 0.26941352965427556
0.8147050758304266 13.070688113316107 9814.560876789237 17.87407431697246 0.27268189882599664
0.8350165494564898 13.071277782165865 8719.227675185999 18.58233756803684 0.2760112090889575
0.8555358124238048 13.072504835118732 7753.66419313145 19.310791063448388 0.2793395981278643
0.8762737655962188 13.07439621595788 6901.756551440117 20.0691919350796 0.28273924634945635
0.8972201370072269 13.076775993515891 6148.772504202118 20.858787286058114 0.28621108664132067
0.9183709900452006 13.079584393508815 5483.138407215878 21.672903337531356 0.2896945636741056
0.9397072741344474 13.082669759311003 4893.864314444641 22.51732432433433 0.29323531519313456
0.961217337539042 13.086120074940972 4372.117916787603 23.396443837496857 0.29685926998150297
0.9829141441905918 13.089809111854658 3909.325234073608 24.309215286028728 0.300549438893072
1.004773158551656 13.093570987089715 3498.6043234741524 25.25015871877383 0.30424623790690697
1.0267801269784387 13.097410566789542 3133.6634971485296 26.229813683448626 0.30802880482988704
1.048941201959546 13.101225983840319 2809.095031943783 27.249666843798174 0.31189926399760115
1.071245765155606 13.105171656223234 2520.55102173977 28.3042373927635 0.3158128065371615
1.0936600371135117 13.108829951639926 2263.3246136591138 29.397100582665523 0.3197870774503348
1.1161852751530266 13.112309930153595 2033.9086484232148 30.534805550387414 0.32385103908483615
1.1388249553811691 13.115579580769252 1829.3232584690302 31.719193900022503 0.3280038373803564
1.1615542932791816 13.118636190054325 1646.615972539146 32.94249676644623 0.33219389369483016
1.1843590132571213 13.12135567159124 1483.361926311817 34.21483430483976 0.3364638082849865
1.206989543445597 13.123591089586393 1338.7033384815147 35.54858631202749 0.3686918279127674
1.2281950344516097 13.123874109508296 1215.854662435692 36.95935539467553 0.4263902619858891
1.247906090657531 13.121183231003448 1110.6140299236113 38.4649309470176 0.4815830053593105
1.2662952183946927 13.115331491549863 1019.0679774371101 40.065066817402204 0.5356311773496355
1.2835658921750617 13.10645010630436 938.4839962592606 41.7636517764614 0.5890251835507362
1.299793090250772 13.09415218321356 866.6553472089234 43.564895715469 0.6417708691547683
1.315169892802427 13.078811139353697 802.0734740868209 45.471850426414 0.6936676620424761
1.3297715206188636 13.060498986170437 743.5367166692978 47.4832279582667 0.7440801180428139
1.3436971420617028 13.039238754201792 690.2488302519341 49.60737224793671 0.7942073790839426
1.357027705856661 13.015217365870358 641.3674898143976 51.84904500187686 0.8441042625704821
1.3698478192442338 12.988565652601997 596.3234031011629 54.21309143630337 0.8938386029231912
1.3821831536126261 12.95932577635278 554.7607195382554 56.704508815914174 0.943489667752702
1.3941066539855465 12.927704892765561 516.2755302438126 59.32189250567148 0.9926587912129294
1.4056703381964604 12.893817844736123 480.4603973445903 62.073970208093165 1.0418317782348498
1.4168958370172695 12.857712255155137 447.22269591270725 64.96958658785732 1.091312784438644
1.427831792568159 12.819624950007858 416.226099222069 68.01522888411756 1.1411793204956908
1.43848321253477 12.779512533195541 387.3948641598467 71.21773660860508 1.1914742879725437
1.4488728452931652 12.73750647644907 360.4892056965652 74.58434343441922 1.242153875037498
1.4590412012931782 12.693829596805434 335.39073276038135 78.12276380764236 1.2931572406920493
1.468973274594264 12.6484155356941 311.9841516687753 81.84107597992607 1.3447852808938558
1.4786950291157979 12.601357363575612 290.14603847577916 85.74794851397306 1.3976504731430424
1.4881405849188425 12.552615228227857 269.82190759478533 89.84899835549652 1.4517803201698982
1.4974200097948303 12.502679744372026 250.87589201150303 94.16038794772767 1.5072958456126857
1.5064644017701194 12.451252959240827 233.2296536583914 98.69376030920904 1.5644869886664323
1.5152626752661635 12.398447901906147 216.82301656190066 103.46161125318953 1.6235218074858653
1.5238591300618638 12.344574987837122 201.56138448982844 108.47722544186439 1.6844454727324714
1.5321893495045178 12.289284548593423 187.37511296834643 113.75500630815158 1.7474321697333473
1.5402522478496365 12.232991971323374 174.21648432423012 119.31056930412358 1.8127231653741576
1.548046892132291 12.175425537129652 161.98516028221738 125.16050096702118 1.8803732300811762
1.5555400980216765 12.116781704803778 150.6561739707477 131.32296307510885 1.9506531971004057
1.5627506566372982 12.05717831596721 140.1431784421541 137.81709135926576 2.023750352048887
1.5696343551549103 11.99653315699932 130.4097104757455 144.65616028265558 2.0996805458570535
1.5761776836709047 11.934752495336399 121.38686598378216 151.86892171597148 2.178886637494401
1.5823586859366665 11.872082442429397 113.043900779219 159.4799992008305 2.2615472751574974
1.5881851920897603 11.808436126684743 105.32265470211972 167.51558363580196 2.348054501323584
1.5936385529857497 11.743874577849441 98.16116703725251 176.0045521037489 2.4388105128139843
1.5986827982220908 11.678461110158384 91.54781375048537 184.97776251874853 2.534719433023158
1.6032965864788118 11.612057493410553 85.43794444088911 194.4697417712206 2.6382162228955006
1.607467498503121 11.544945297591545 79.80166651618838 204.5038420257461 2.7624203190991454
1.61115322774507 11.476900045444403 74.59284442251584 215.127465886587 2.8642643477222998
1.6144307014775598 11.407760004364018 69.74765561625435 226.36888183316543 2.9383859815063795
1.6172603577821967 11.337621071005573 65.25838216669895 238.26583595442864 3.0161967701767582
1.6196950994051855 11.26662156849126 61.07813374969718 250.83907233751057 3.0976231786276176
1.6217000587366088 11.194920530316658 57.20625831821738 264.15898958032017 3.183140151040627
1.6232823706706048 11.122541566256874 53.61146078855882 278.29118517096185 3.2730771024443097
1.6243618155846467 11.049267470010545 50.28788307712196 293.26438059920804 3.36740609213016
1.624991736594737 10.975479828521536 47.20971927310369 309.16862063895496 3.4666778514635825
1.62510554338409 10.901040860158073 44.362490611582054 326.071898471046 3.5711571191238054
