M[M_sun], R[km], Lambda[1], P_c[MeV/fm^3], rho_c[fm^-3]
0.23841724892012095 16.20908015294055 2780876.1263280716 3.453507347168396 0.169602847481901
0.24841369004335015 15.866321753025701 2282088.1377815376 3.6355414556432963 0.1719783756886986
0.2586939120057185 15.562944061205865 1881651.373796834 3.8247516034342928 0.17437473263795547
0.26925801630151225 15.293613872847429 1558249.5582692279 4.020242017234565 0.17676618693655274
0.2801094472799352 15.053966591019021 1295575.893068658 4.22234395681188 0.17914476999581053
0.29123766232694553 14.839937101368491 1081345.2126905273 4.432423804145605 0.18154716226392356
0.3026569804043933 14.648606176029501 905684.2829586144 4.650829086027561 0.18397722697883212
0.3143585576505458 14.477150268402061 761142.5693484959 4.877926977214531 0.1864366168936992
0.326342602493994 14.323330914791605 641672.3241709954 5.11102647983471 0.18886553927253713
0.33861005521516097 14.185159410680171 542629.8631340305 5.353330753971018 0.19131635546435463
0.3511598117144399 14.060802082844452 460081.6101630235 5.605331517866786 0.19379713742034946
0.3639926072639978 13.949006839465099 391197.73655961617 5.867441163945238 0.19631350087864738
0.37711480269911873 13.848375117984311 333475.6863752111 6.136554000912641 0.19880553252339545
0.39051811972452144 13.75768763558257 284938.8577490051 6.416092351509234 0.20132768625905853
0.40420452432735826 13.676118148528948 244045.14912311424 6.706867695720838 0.20388447168574036
0.41817512543442603 13.602669913846762 209481.20303594432 7.008979106930434 0.2064673791468304
0.4324306283731516 13.536764978236272 180192.24583361534 7.319045691695231 0.20902683563321
0.44696683297568784 13.477351370231442 155307.00176873687 7.641653934110211 0.21163075587462205
0.4617899276485404 13.424125594266899 134113.1132637424 7.977337650480208 0.21427918123114476
0.47689435870519997 13.376300582755874 116014.7123923314 8.32417362949005 0.21693464573728458
0.4922824478281648 13.333640825408658 100553.40296602891 8.68209799687224 0.21958740058414924
0.5079472769930056 13.295552461431756 87304.60625680516 9.05462204262664 0.22228826693343404
0.5238951865776534 13.26169921862398 75918.25470519486 9.44235056986827 0.2250401074152347
0.5401279861557675 13.231718202781572 66124.64409513105 9.839886362151761 0.22776613956082134
0.5566302727507401 13.205183796734193 57682.16382421395 10.253362493175215 0.2305386387442109
0.5734073086321986 13.181874753478299 50396.99752620018 10.683762044335483 0.2333617663617447
0.5904734060067606 13.161530264272377 44086.96923600901 11.128116653514411 0.2361889413561769
0.6077972148236104 13.143698948050904 38622.82970191761 11.58722022413751 0.2390336722137645
0.6253976582410042 13.128399015259202 33880.68754136646 12.065166851533688 0.24193774584276048
0.6432678106547695 13.115423724329434 29760.90408955695 12.561645818960072 0.24488983334889702
0.6613953931248889 13.104508770809039 26176.798431309096 13.071609962137229 0.24782106492712128
0.679796954651256 13.095268850871383 23046.791206963157 13.602530473501718 0.2508109331574615
0.6984395406687631 13.08777446617743 20318.814728521662 14.155313134698842 0.2538611712164296
0.7173594034213743 13.082049203346392 17935.441604161566 14.723939024940478 0.2569075373710724
0.736517678426654 13.077406198420391 15846.975650120274 15.314025406927435 0.2600023636196483
0.7559203489484185 13.074182106929955 14018.166384594322 15.928365499091782 0.2631631361600747
0.7755642247693513 13.072067527415532 12414.432642923523 16.564019942432935 0.2663487396310044
0.7954484022242402 13.070952661389805 11004.713255300949 17.22016355212923 0.26954818518726464
0.8155657983863545 13.070728613914556 9765.434983747708 17.90335327653629 0.27281952948863253
0.8359082538557601 13.07130033487223 8674.185278128485 18.614260243909587 0.27616126698373683
0.8564663268518881 13.072592891263424 7713.2219671361545 19.344392274790994 0.279492851150447
0.8772412930937449 13.074484357189114 6864.681090742451 20.10455517928304 0.28289529038457084
0.8982129494759769 13.076784668495302 6115.27657894968 20.89599994825854 0.28637031388400846
0.919397458386006 13.079711419971854 5452.969734387476 21.713353879695788 0.28986764530581954
0.9407628558411355 13.08285071268536 4866.66179855126 22.559848113072256 0.29341213065103994
0.9623070244348974 13.086261647684976 4347.452600281937 23.44115092920909 0.2970400126200118
0.9840396366651646 13.090027596124258 3887.0265975749708 24.35773629509671 0.3007456005056078
1.005931915057336 13.093769856195815 3478.2092098554663 25.301127947574617 0.3044459814999113
1.02797219284288 13.09769711261188 3115.4430546909066 26.283358174007763 0.3082328330320889
1.0501679472949041 13.10148330006481 2792.2637918342425 27.305926064197994 0.312108043630688
1.072494879399753 13.105289993934575 2505.183967236771 28.365169408790948 0.31603892705321285
1.0949432211298158 13.108958528154098 2249.365405956493 29.46108792561396 0.32001847155262825
1.1175082294960954 13.112543535102464 2021.3199083446173 30.602012847959728 0.32408713652437326
1.1401831799921056 13.115848867208689 1817.838564593675 31.78979572153886 0.3282456627011151
1.1629342703191738 13.118870865733061 1636.3222987987028 33.01883753896526 0.33245537606744996
1.1857730814542655 13.121545618662664 1473.8765871745304 34.293590125166055 0.3367386999384144
1.2086633712794213 13.123864770381708 1328.738512016315 35.620821070815985 0.3411276957443295
1.2316320040450246 13.12584197381439 1198.792777217185 37.00255027912976 0.3456213303686378
1.2546193556325738 13.12725991227922 1082.3942629921924 38.43508549271763 0.3501762377783341
1.2776337016690371 13.128199246816864 978.0989091816756 39.920577336613256 0.35480980078872804
1.3006440288825702 13.128485039576288 884.499780157269 41.46750406700216 0.35956051942102735
1.3236791268208368 13.128314674006397 800.444068807195 43.07832432960733 0.3644305571159873
1.3466746771202098 13.127462307492094 724.9572520777232 44.75562740109327 0.36942182996540524
1.3696443787180603 13.125943820774651 657.1067843476 46.4916627028613 0.3744670457389128
1.3925401487108993 13.123691243933639 596.0909722164045 48.299378416988176 0.37964057019334635
1.41537418073147 13.120661651924852 541.1096993493862 50.18252554499557 0.384949437532749
1.4381532797267913 13.117058497696375 491.60771030181604 52.14429682691926 0.39039646913510684
1.460773514825471 13.112246312574896 446.93660072796655 54.188077024439586 0.3959832451710158
1.4833200221795013 13.106813016881388 406.64570806461296 56.312305538280064 0.4016789483241722
1.5056943556109208 13.100418186615101 370.2875156755338 58.52182953675368 0.40750853331229586
1.5279385748017726 13.093174743634744 337.4343938729127 60.82521577549189 0.41349882850075553
1.5500211572807856 13.085111187545435 307.7344509899615 63.22671740249543 0.4196529391237421
1.5718555180859752 13.075649528533049 280.84866340122227 65.73085205959103 0.4259716897635961
1.593511182181246 13.065406748813043 256.52190235193217 68.34248547843478 0.4324606109112944
1.6149224542725933 13.054076363749175 234.48571090560324 71.06667480182736 0.4391346478175892
1.636126029967177 13.041852507809967 214.50255750512693 73.90886129468933 0.44600094483606406
1.6570042831764096 13.028284002338859 196.38494104811198 76.8718626276337 0.45304974473289217
1.6776120061526656 13.01361999959324 179.9427138806104 79.96328048066394 0.4602902301805658
1.697888974498596 12.997770096976033 164.9997526796864 83.19203525112272 0.4677520829520349
1.7178974253594401 12.98102625982028 151.42747283744748 86.56519702178463 0.47544580484216925
1.7374793498866838 12.962610868772918 139.07730519046393 90.09029164173973 0.4833761937056642
1.7567379500416729 12.94330026484392 127.84150776407171 93.77537730763189 0.49155090339316065
1.7756123901663565 12.92273735149308 117.61175670052617 97.62911685797796 0.4999890566848127
1.7940200651189673 12.900514732002259 108.28099714332404 101.66075471378937 0.5087066314475258
1.812037723824109 12.877292642155526 99.78422660953348 105.88017796998669 0.5177108617977592
1.8295974271894966 12.852715098272311 92.03334231462256 110.29800526509598 0.5270144730479517
1.846692994864772 12.82677900153794 84.95203288276275 114.92565304676154 0.5366411371390098
1.8632824215447585 12.799523003842948 78.49010851565639 119.77537290740857 0.5466105682048387
1.8793617298704668 12.770813691661505 72.58301206284783 124.85825730022981 0.5569235109849626
1.8949208800056712 12.740723091048734 67.17364383465808 130.18500655010456 0.5675913368078362
1.9099418910209323 12.70923747227477 62.22569452883961 135.774960033806 0.5786585371784416
1.9243613165249767 12.67626339541664 57.69802303870925 141.64444592092948 0.5901435769418165
1.9382035528442618 12.641813730516237 53.546412097927174 147.81106378396464 0.6020648062367135
1.9514626013597092 12.606154279219558 49.74462326789126 154.29376590771727 0.6144576460239727
1.964047795191587 12.568684768039507 46.25409218598017 161.11303871955826 0.6273540924349592
1.9760180102082352 12.529976638722898 43.05343806278363 168.27541660073106 0.6407172469049844
1.987323964864229 12.489763683907237 40.11497792913403 175.8183924374705 0.6546394423641495
1.9979437477433162 12.44785288617727 37.40853968778078 183.76789850017283 0.6691608009798008
2.007872697504024 12.40463360766923 34.9265960344734 192.14648700701835 0.6842874811179388
2.0170868945904656 12.359825318555444 32.64132143005094 200.97289062570547 0.7000343667736432
2.0255859418785085 12.313623755961217 30.539512500401774 210.2944668476843 0.7165001163453023
2.0333133935282115 12.265744761539532 28.6033488748469 220.1362854815554 0.733682196094082
2.0403054029232197 12.216468692702726 26.821001981335616 230.53019464771648 0.7516263239084465
2.046522479162344 12.165650581583032 25.177011488481835 241.53125154383937 0.7704349768041623
2.051960694865204 12.113317203560722 23.662247848002842 253.15662563848937 0.7900591690072339
2.0565993264867344 12.059551333460767 22.265767621969182 265.48214420798064 0.8106720626021596
2.0604249355457016 12.004254206250398 20.977017157701045 278.52779360789924 0.8322271948913296
2.063433903846784 11.947515488720867 19.788540043062564 292.3760661770898 0.8548763699441188
2.0656164061267477 11.88935749581309 18.69121868531183 307.06584984131086 0.8786354481936854
2.066967100249738 11.82968089873231 17.67760134116223 322.67364592899145 0.9036005145160564
2.067464866562053 11.768627405250674 16.74212950699434 339.2741496565323 0.9298830292698465
