M[M_sun], R[km], Lambda[1], P_c[MeV/fm^3], rho_c[fm^-3]
0.23841724892012095 16.20908015294055 2780876.1263280716 3.453507347168396 0.169602847481901
0.24840902865441594 15.866584879168064 2282890.448432199 3.635484312140995 0.1719776488017375
0.2586882515414097 15.563108580193548 1881810.1323225475 3.824634061549907 0.1743732947360184
0.2692463630864348 15.293914162893444 1558513.344596129 4.020052651394988 0.1767638704047993
0.2800964756834261 15.05421404795295 1295830.6981987932 4.222084645238016 0.17914173774926695
0.2912192409591682 14.84026802260205 1081650.0491922956 4.432090974474376 0.18154341725786513
0.3026357572504692 14.648974817311057 905972.1780504616 4.6504189776160185 0.18397278528999575
0.314333490320551 14.477451914957904 761368.0042113347 4.87743541238533 0.18643149214800592
0.32631179609695077 14.323707213781294 641993.3756874818 5.110425332249703 0.1888592752487799
0.3385759475327401 14.185418907403244 542821.850210658 5.352637066729803 0.19130943377535867
0.3511198008888788 14.061205073982903 460359.40440204355 5.604540947830425 0.19378953921671754
0.3639520116286551 13.949431109154128 391488.6626959566 5.866549050787084 0.19630523975574493
0.3770661015938401 13.848641619538805 333660.9952042558 6.135513954171892 0.19879590150980586
0.3904625792386358 13.75806713340413 285138.73613747896 6.414937359566932 0.20131739190502368
0.4041435265438232 13.6764116136243 244209.11951903204 6.705592587582002 0.20387357012359045
0.4181070535331711 13.603028655404827 209633.5077802236 7.0075202467337725 0.20645490659284257
0.4323576404688798 13.536964216986435 180317.7962930685 7.3174516098753335 0.20901369511260762
0.4468904045884004 13.477563014855077 155408.92454601277 7.639918393607653 0.21161695744200318
0.4617044931333877 13.424298922322393 134216.64059137588 7.975454170713409 0.21426476083080725
0.47680362326847986 13.376600884635682 116124.70848187398 8.322053836246253 0.2169184160608383
0.4921840638965124 13.333931360847268 100650.25954882175 8.679812373620434 0.219570584811548
0.5078420902640234 13.295800113745125 87381.05813916028 9.05216317879723 0.22227080494173526
0.5237869434220398 13.261887772573651 75987.128159192 9.439710371639675 0.22502200271779219
0.5400084219721839 13.231883900081025 66191.38394279689 9.836947225153379 0.22774598494306517
0.5565041838147995 13.20536515978417 57743.077208310766 10.250220289293377 0.23051787440902172
0.5732789961156648 13.18200743699703 50446.198927886486 10.680407740110656 0.23334042483668282
0.590326227147495 13.161602055895294 44135.26011164272 11.12440385570444 0.23616531894085613
0.6076553124548768 13.143945389964376 38667.442200337166 11.583270310923966 0.23900938217010803
0.625245193060894 13.128608273577925 33919.95158022127 12.060968559759559 0.24191278260059582
0.6431063534267568 13.115573617993748 29794.724215095666 12.557019945888182 0.24486232768804037
0.6612284777042825 13.104607029157945 26206.392662065195 13.066706488837923 0.24779294007166416
0.6796151282864339 13.09538575104474 22899.372994851343 13.597336765384851 0.250782189639155
0.6982508605822301 13.087888312685914 20345.29645667229 14.149815429886488 0.25383171771781826
0.7171622472694368 13.082045394442927 17958.04191433542 14.71791318353869 0.2568752544243852
0.7363117131430634 13.077481537176356 15868.56432427594 15.307659350636131 0.2599693332905295
0.7557083454180826 13.074255045871631 14037.5841963651 15.921642893926911 0.26312944559978485
0.7753412718834233 13.072102571024754 12431.27158250245 16.556672533030557 0.2663119178434125
0.795217060645676 13.070974788699766 10947.163071429173 17.212417957523027 0.26951064155915666
0.8153299087061355 13.070754656749097 9779.208521054328 17.89518980417002 0.2727811557168894
0.8356596468393065 13.071324602693407 8686.995422016129 18.605359325170102 0.2761194267215679
0.8562048918121125 13.072547038456467 7724.28872444136 19.335023178116536 0.2794501192867177
0.8769733128621012 13.074473965691906 6874.852100720077 20.09469460719658 0.282851779572948
0.897908553450667 13.076938678772615 6128.021229574599 20.885623518122657 0.2863259147396908
0.9191079744144768 13.079707053468795 5461.464032019504 21.702074162039796 0.2898193811335067
0.9404666968666199 13.082778230010238 4874.021746834161 22.547990068856986 0.2933628244725452
0.9620027784237571 13.086206238560237 4354.174302676171 23.42868384746325 0.2969896104765722
0.9837162686008251 13.089939204227688 3893.504893462063 24.344205126744246 0.30069089645360025
1.0056092097932907 13.093706490339182 3483.7359304071842 25.286913799206836 0.30439027759515785
1.0276364040872639 13.097544584624023 3120.442326011335 26.268425591810367 0.30817593328632326
1.049827728070933 13.101396833253176 2796.9614073216208 27.290236125675346 0.3120498178041545
1.0721369966003713 13.105238292115628 2509.5283276520877 28.34817560361248 0.315975862538904
1.0945819573969804 13.10891822439481 2253.2062070562793 29.44324168769647 0.3199539351300804
1.1171301379954186 13.112426323644408 2024.8101434507098 30.58326822889651 0.3240212871787548
1.1398037416188103 13.115764876439997 1820.9845259253311 31.770103997011333 0.3281782146169455
1.1625483444426856 13.118792295811614 1639.173205467927 32.997544263257645 0.33238244235104714
1.1853726057579814 13.121462915169419 1476.5122203820295 34.271228814108404 0.3366639347598676
1.2082679197319552 13.123830018809779 1331.1029176097643 35.597330616619395 0.34105098494464503
1.231212024686067 13.125747788766844 1200.9959114987546 36.97786750036903 0.3455428486874877
1.2541910346654328 13.127186090372572 1084.4147360553945 38.4084285740706 0.3500914790965835
1.277218165399596 13.128197478051442 979.8207047904156 39.89257447609856 0.35472275067314424
1.3002139888634936 13.128482645430658 886.1350341424406 41.438076324280175 0.3594710159467889
1.323228540207571 13.128256506477372 801.943844032045 43.0473876007941 0.36433846040788426
1.3462329854984163 13.127498393401407 726.3574875919157 44.72296576110762 0.3693265518659676
1.3691809348387853 13.125929226259078 658.3813575909529 46.45657372869211 0.3743650711732031
1.3920809601425266 13.123727307779927 597.2260863206253 48.26248087866743 0.37953547793690745
1.4149127992749657 13.120713211696925 542.1633675149174 50.143709855446744 0.3848410289270105
1.4376651045564612 13.116985791373978 492.5427181663761 52.10344639140023 0.3902845842663084
1.4603061804968884 13.11240504158933 447.84845856372476 54.145069397979384 0.39586792863513315
1.4828441598305422 13.10700367712126 407.48907550514815 56.26595603477188 0.4015546711988259
1.5052189781190812 13.10055763023842 371.02716209117324 58.47302719480332 0.4073800156355169
1.5274569012917103 13.093317752391032 338.10284299838276 60.77380729687826 0.41336579955675284
1.5495035533212955 13.085145537616576 308.36663070878416 63.17253951468743 0.41951520408299386
1.5713615469808289 13.075859480360778 281.42916301669925 65.67373209396474 0.42582916494940376
1.593016315660271 13.065615528335318 257.0505083346898 68.28223793485661 0.43231267800503864
1.614438353861837 13.054347779769314 234.9715439899995 71.00309904235861 0.4389809627664592
1.6356183726389015 13.042037321034359 214.94101879142468 73.84174327544413 0.44584127515185884
1.6565204260683906 13.028642947684066 196.7970991398297 76.79958103972523 0.4528777912329977
1.677106034415717 13.013906850930239 180.31450474832351 79.88694595165734 0.46011159428046267
1.697405106574801 12.998170670302056 165.34162810665288 83.11138277902168 0.4675660261665464
1.7173791733382668 12.981313707649615 151.74772161298324 86.47994020766077 0.4752518476126822
1.7370211097182158 12.963238028378212 139.3735182164699 90.00012416082505 0.48317401810770627
1.7562555003352986 12.943789290326462 128.1108072101212 93.6799716581255 0.49134005311564366
1.7751056686624915 12.92309815641044 117.85957551591876 97.52811965590841 0.4997686864130639
1.7935544158808512 12.901170520162372 108.51636387631032 101.55378412129633 0.5084761170865041
1.811567366972438 12.877875164532648 99.99663952835394 105.76682448794152 0.5174697880342489
1.8291651113652703 12.853588338907132 92.233932990973 110.17782921983174 0.5267621313468357
1.8462289565944654 12.827541123379744 85.13990831202827 114.79817903663486 0.5363765259339771
1.862841832950821 12.800202143987327 78.64942129167544 119.64008681821633 0.5463328653790939
1.8789532207803274 12.771728382980447 72.73457091130939 124.71663140687619 0.5566395026708578
1.894494598278321 12.741554154342188 67.31822466990911 130.03449536458552 0.5672926202403498
1.9095105641703933 12.710040997247367 62.35832615835777 135.61492156631095 0.5783441079196882
1.923966501212796 12.677298434109717 57.82391217795871 141.47418780480365 0.5898127389188832
1.9378063397250485 12.642854558837499 53.66197204246413 147.62983750700695 0.6017162031480048
1.9510651893299957 12.60708837113298 49.85029516563475 154.1007588898556 0.6140898598082243
1.9636828044327093 12.56980254723119 46.35347610876334 160.9073694509873 0.6269657695292975
1.97568592303632 12.53125976551247 43.146006317476356 168.05861525019944 0.6403157390304329
1.9869925562326833 12.490817466177175 40.19273364100535 175.5870525140052 0.6542146877596864
1.997648724838937 12.4492682497233 37.4881026738862 183.5209009583347 0.6687111143916978
2.007596240830601 12.405987096517064 34.99555906550253 191.88526492670252 0.6838202841179575
2.016809395528176 12.361239273564802 32.708371033830865 200.69360560860017 0.6995388267014565
2.025326084150206 12.315031657795355 30.59921972947659 209.99568695450014 0.7159741167052198
2.033080606908283 12.267255849157776 28.662287375620192 219.81931177356003 0.7331333108314916
2.0400932747598115 12.218027897616917 26.87444775083726 230.19061944491636 0.751042647680165
2.0463465891416024 12.16738160041215 25.229264855124484 241.16835262876174 0.7698177382809629
2.0517962709073125 12.115067095927085 23.709841419561602 252.76926556033206 0.7894083495687765
2.0564733338826486 12.061419393413349 22.310625425209754 265.06629043744914 0.8099782220045119
2.060306624247541 12.006091449204845 21.01813771315222 278.084315181428 0.8314981288511025
2.0633450500744637 11.949407170747453 19.826226826004525 291.9024987973074 0.8541081090117016
2.0655450600920324 11.8912825163931 18.727680733452274 306.55627606052843 0.8778143743804653
2.0669401092253903 11.831771674576089 17.711011364062887 322.1283553549253 0.9027337676104438
2.0674656139559615 11.770743523487285 16.773709205888345 338.6878657173089 0.9289594190946314
