M[M_sun], R[km], Lambda[1], P_c[MeV/fm^3], rho_c[fm^-3]
0.23841724892012095 16.20908015294055 2780876.1263280716 3.453507347168396 0.169602847481901
0.24842910148205707 15.865786992862052 2281578.589687565 3.635815653955851 0.17198186359493683
0.2587227681540448 15.562229096095512 1880735.3719289396 3.825315653877671 0.1743816327249276
0.26930541322791224 15.29251818327171 1556952.0361017007 4.021150791492768 0.17677730406533662
0.28017574768407527 15.052622122520148 1294103.6736597433 4.223588479362117 0.1791593227562027
0.2913217171813923 14.838404517343855 1079858.0552723776 4.434021259009974 0.18156513685772407
0.3027619827174365 14.647078742280469 904295.7852926536 4.652797562332178 0.183998546607937
0.3144831147425672 14.475403990237686 759722.439082377 4.880285301090182 0.1864611908870957
0.32648616356931404 14.321610175221673 640360.7105706271 5.11391228253972 0.18889560965317853
0.3387779037209458 14.183303726510102 532776.1075144347 5.356660972812894 0.19134958476099198
0.35134993236886436 14.059096371187325 458978.45045977336 5.609127046919919 0.19383361641817387
0.36420628491148177 13.947243485464822 390178.40341752063 5.871724422084906 0.19635316459349267
0.3773540624884867 13.846643444442725 332515.67265742214 6.141547875130255 0.19885177666663448
0.3907822488395845 13.755979144179753 284078.39552229625 6.421638422623215 0.20137711796282945
0.4044934181602302 13.67448781092316 243257.28326420792 6.712990842903853 0.20393682165319454
0.4184900499301387 13.601160316939485 208779.285431617 7.015985145627049 0.20652727741267118
0.43277217785669253 13.535115144440384 179540.678198769 7.326701483327555 0.20908994474493597
0.4473393797196177 13.475773823324818 154711.72889135775 7.64998948792924 0.21169702778100696
0.4621925634749723 13.422690260949247 133582.22293936159 7.9863841478833315 0.21434844351710328
0.4773285013477257 13.375024398467325 115544.91224771953 8.334355905241491 0.21701260383127147
0.4927446698145442 13.332464788253652 100133.80115022356 8.69307731346362 0.2196681775411441
0.5084467320721957 13.294485822299556 86922.54898075426 9.066434059968115 0.22237215175303865
0.5244225733097854 13.260646052132278 75571.64059792056 9.455034234633741 0.22512708342732135
0.5406844415792622 13.230751937121065 65817.97622001934 9.854007203431689 0.2278629707594178
0.5572261743824202 13.204292065528504 57403.80050375695 10.268459587063745 0.23063840347294032
0.5740427328775873 13.180987349388719 50139.262321643786 10.699878865227046 0.2334643085028031
0.5911403419370435 13.160675627722947 43857.58676296649 11.145957337653275 0.2363024514560815
0.6084981992523752 13.143000646505765 38417.9503328047 11.60620106133034 0.2391503951236426
0.6261424334619192 13.127886869881582 33695.06723468188 12.08534205071096 0.24205770853470246
0.6440450148974437 13.114888298497762 29595.40623986529 12.583877534079534 0.24502202418224564
0.6622224927273909 13.104012613061608 26024.353430769213 13.095176739945817 0.2479562369121609
0.6806550236074077 13.094879878187973 22912.75768081979 13.627493132682453 0.25094908390351717
0.6993410671289194 13.087549394449967 20199.047344360286 14.18173792066728 0.25400273982067256
0.7182972373706121 13.081685440256985 17824.50083334788 14.752904625834303 0.25706271818103227
0.737495217743551 13.07730566954633 15748.732723859104 15.344627555803795 0.26016114309046595
0.7569429202232787 13.074054999422128 13928.759231114991 15.960682833954879 0.26332509556300115
0.7766307638662573 13.07198373508659 12333.431666260829 16.59934377240638 0.2665257661845804
0.7965515895085427 13.070964732489923 10932.694324800552 17.257403119828577 0.26972868888668194
0.8167209643673892 13.070782947368986 9699.97372184496 17.94260340300647 0.2730040312945406
0.8371039171908528 13.071460501992403 8615.237751774197 18.655982959563232 0.27635305933588905
0.8576996152516752 13.072709074629635 7611.943953927325 19.389444532963193 0.27969833168115366
0.8785082437402206 13.0745594985244 6816.04093928134 20.15197251725675 0.2831045243764874
0.8995309937807066 13.077021090436709 6071.5118638794675 20.945899794450344 0.28658382763040136
0.9207636231877439 13.079913421720924 5413.138219127343 21.767602267421807 0.2900997657908133
0.9421693088034407 13.083061392006325 4830.508069939159 22.61688002073209 0.2936492713943128
0.9637658120715145 13.086544319717275 4314.713138221937 23.501114289762583 0.29728243357796746
0.9855348659656772 13.090181797036637 3857.233764707476 24.42162189943926 0.3009992803773525
1.00747241823878 13.094074808309843 3451.4421468860705 25.369502852728075 0.3047139362943632
1.029558706152131 13.097900425103361 3090.905833300724 26.355191716248964 0.3085065506140142
1.05180177540024 13.101765333633939 2770.152162052002 27.381405777080456 0.3123881510806155
1.074167345568529 13.105570793259918 2485.0621834664853 28.446929059552424 0.31634233953859714
1.0966647348463117 13.10929982462276 2231.0114951255364 29.546952088157298 0.3203289776604831
1.1192669399720503 13.11277606296962 2004.7558027127798 30.692202955324195 0.32440397196024867
1.1419811281120416 13.116082207241558 1802.7260207241038 31.884546596871846 0.3285702033479065
1.164775467937302 13.119054957805517 1622.386830252908 33.12130418933056 0.3328063447826965
1.187651034455159 13.121779231380826 1461.368383956211 34.401200676385024 0.33709849646620554
1.2105916246312258 13.124058697920571 1317.279288764449 35.733870098170485 0.34149687044054167
1.2335823439211455 13.125937809287203 1188.3175499661932 37.12134237232729 0.3459990432376734
1.2566054709860928 13.127286364651175 1072.8816000096829 38.563391014946376 0.3505841996688073
1.2796547985177609 13.128190528762621 969.4164952101388 40.05536689800744 0.35522880965722203
1.3027094066216443 13.128543103477252 876.5916813394825 41.60915832577409 0.3599913560101786
1.325765750316852 13.12819802086329 793.1884693466307 43.22724887268034 0.3648738961727953
1.3488020577302529 13.127404180280605 718.4121093879727 44.91224462806999 0.3698769864378233
1.3718019866548739 13.125777784645619 651.0884635860044 46.66060005908007 0.3749580066159535
1.3947235332542374 13.123404211691778 590.5886111252205 48.47703140061717 0.38014656473288394
1.417605914213945 13.120430896653946 536.0989739785174 50.369422817795936 0.38547142420865554
1.4403866368679992 13.116608590329522 487.0101599512315 52.34100090154172 0.39093522005175246
1.4630481609576602 13.111772743005087 442.7025950955119 54.395178683193116 0.3965385477493875
1.4855832976632564 13.106155405657343 402.7920658784898 56.53552332040391 0.4022774631342313
1.5080228521304593 13.099852209613077 366.75123952796355 58.75687210921811 0.4081275020779342
1.5302443802896977 13.092304808872825 334.19195508145145 61.07282300906528 0.4141395580009855
1.5523205242846039 13.083918104819675 304.73832662969903 63.48767737678914 0.4203163709064719
1.5741835170936092 13.074533451677354 278.1170512853361 66.00599827874025 0.4266582301585351
1.5958647526084389 13.06425617826916 254.00395363091351 68.6327134684142 0.43317324195788154
1.6172805892041875 13.052821007735027 232.1860904332237 71.37295326294758 0.43987503096598723
1.6384694435183165 13.040379388118781 212.39360952139953 74.23222375067866 0.4467702044449184
1.6593497658585985 13.026617812111597 194.43930418984087 77.21641535974157 0.4538620943195901
1.6799605488506306 13.011847217161073 178.13788769492118 80.33111050949078 0.46115101558318206
1.7002616015608487 12.995998676854352 163.35272384363424 83.58069635449804 0.468648683312255
1.7202059553101243 12.978740296512354 149.89875484036799 86.97607271183676 0.4763805372893651
1.7398139304351325 12.960410749435047 137.6682315789079 90.52486184109367 0.48435059699405403
1.7590402505983607 12.940788005674548 126.54473546330284 94.23522441576728 0.492567183779777
1.7778890078881835 12.920083452889308 116.42061648618694 98.1159485175294 0.5010512962608893
1.7963045473387451 12.897901123485907 107.19023224882191 102.17641627341978 0.5098178470830698
1.814272835477592 12.874373528750349 98.77693122825771 106.42664868282345 0.5188730647492241
1.8318011710943847 12.84955251438654 91.09740421129887 110.87741047067826 0.528231089012394
1.8488491015261233 12.823295184554775 84.0877257809483 115.54029106326622 0.5379170058909588
1.865409145001767 12.795894388215151 77.6940696696493 120.42247740883856 0.5479301315952868
1.8814527164634456 12.76689273569834 71.8360487799284 125.54120765301396 0.5582930598274701
1.8969445860702328 12.736583934262638 66.49122769470256 130.91086398634718 0.5690319316785183
1.9119173941753016 12.704937392115234 61.59570991518073 136.54682965050898 0.5801750375250962
1.9262800250404366 12.671652246660296 57.11377543256951 142.4656769033639 0.5917393565779508
1.9400550080822168 12.637022832446233 53.004986339732795 148.68527738655533 0.6037464252997453
1.9532524659678279 12.601064488671655 49.242467971162505 155.2248938765226 0.6162319650918415
1.9657827578391143 12.563479351404869 45.78981063785488 162.09401196636426 0.6291877474109064
1.9776580643443191 12.524240006069318 42.61617524595057 169.32149104023202 0.6426545370731349
1.988889577301171 12.483754786674115 39.70918403621217 176.93472691727612 0.6566891024630882
1.9994307447349207 12.44174891309082 37.0361558688278 184.95991049422145 0.6713309918351126
2.009274793886314 12.39819772499137 34.57987899577559 193.40722797766367 0.6865423226632126
2.0184003636647936 12.353161174405749 32.32040695663744 202.32095382209533 0.7024262578266436
2.0267882900196392 12.306551516707957 30.239965448875903 211.73678741649184 0.7190393103050798
2.0344187020077706 12.258382037778887 28.32287369085083 221.66654943974441 0.7363320667721116
2.041309396897321 12.208764056733807 26.559698225100494 232.16976270189363 0.7544444828611083
2.047416350718266 12.15761841789856 24.934100672189388 243.27471162043975 0.7733850239830334
2.052731845314847 12.105034906565855 23.43716038815177 255.02729715680502 0.7932021603884836
2.0572603696784757 12.050940569727704 22.053966601989355 267.47592124754965 0.8139755960452222
2.0609556285055133 11.99537593222511 20.78275914205235 280.6699476748247 0.8357488358323705
2.0638365197611517 11.93829305754518 19.607362037964844 294.6637882350504 0.8585877055563127
2.06588726864912 11.879781943773104 18.52231418321228 309.5278459232037 0.8826024507894414
2.067100037979981 11.819843812180514 17.521721650190948 325.30849202416573 0.9077886388086301
2.0674691268848444 11.758464245307437 16.595969414589394 342.0975602526856 0.9343134390550792
