M[M_sun], R[km], Lambda[1], P_c[MeV/fm^3], rho_c[fm^-3]
0.23841724892012095 16.20908015294055 2780876.1263280716 3.453507347168396 0.169602847481901
0.2484134099686772 15.866282978985877 2282253.754655332 3.635515615071481 0.17197804698685212
0.25869127087424254 15.563019960653087 1881766.4962818068 3.824698450101568 0.17437408240778018
0.26925274351259737 15.293828880055809 1558477.091615915 4.020156384022138 0.1767651393766751
0.28010323086912936 15.05411668941108 1295725.455552829 4.222226692731461 0.17914339877432112
0.2912298601123663 14.84005557374928 1081443.6801283292 4.432273293380308 0.18154546871380883
0.3026487776040514 14.648735174254192 905800.1196397813 4.6506436276047225 0.18397521836700376
0.314345368691619 14.477316358845352 761263.9940137037 4.8777048008540715 0.18643430179165948
0.3263280685456511 14.323543267912912 641807.1843041754 5.110754626857254 0.18886270653470083
0.33859496535864214 14.185250379465959 542684.6426543003 5.35301705079399 0.1913132252989149
0.3511410949938319 14.060997806629398 460214.098349369 5.604974000022138 0.19379370130051093
0.3639754355798398 13.949223839252944 391294.9295017955 5.867037723506199 0.19630976495006
0.37709335217695833 13.848485089095613 333556.40554449573 6.13608365733878 0.1988011770601512
0.3904930413262214 13.75783864579612 285021.8252152402 6.415570023440251 0.20132303078929506
0.4041767541365877 13.676314857162906 244127.73155065256 6.70629104421535 0.20387954159233537
0.41814406630139467 13.602826353580985 209549.61202371234 7.008319351411771 0.2064617385540278
0.43239965877520736 13.536854936841435 180248.3515459156 7.318324780260465 0.20902089293225024
0.44693279417358445 13.477471363609041 155353.55067097014 7.6408690456081745 0.21162451561051254
0.4617512038732444 13.424215757657924 134165.70146718816 7.976485853605635 0.2142726596575372
0.4768531191155928 13.376435464112802 116067.48034337374 8.323214954067085 0.21692730587431575
0.49223498329791154 13.333739903294052 100592.4013115909 8.681064320572146 0.2195797956275616
0.5078984658128916 13.295673204894035 87341.03509627926 9.053510013456524 0.22228036969085188
0.5238475099906532 13.261762646800085 75948.8114459655 9.441156526792154 0.2250319194737414
0.5400725160194216 13.231728682755131 66153.6534488889 9.838557113098927 0.22775702446799737
0.5565744078742652 13.20527200528547 57711.02756454042 10.251941399803773 0.23052924786436688
0.5733474498872525 13.181882913640724 50417.187631232955 10.682245020532308 0.23335211440433568
0.5904091226022442 13.161546237002584 44107.258672826305 11.126437484597218 0.2361782577618672
0.6077323443334577 13.143771732056654 38642.489702150786 11.585433809359968 0.23902268663241394
0.6253290623190623 13.128524277065964 33899.139108546115 12.063268096187103 0.24192645575334357
0.6431963531030169 13.115545664639113 29777.00627423942 12.55955366655784 0.24487739331140745
0.6613166360268555 13.104422659740607 26188.79208447791 13.069392250693761 0.24780834479794225
0.6797133664249403 13.09532536406105 22883.971061749522 13.600181487881716 0.2507979331756275
0.6983530044181132 13.087856189701533 20331.589429410593 14.152826649846132 0.2538478500795814
0.7172672903733925 13.08199808986506 17944.901170313726 14.721213655509018 0.25689293642986066
0.7364241976343098 13.07745469216819 15856.511452317429 15.31114615461112 0.2599874245981769
0.7558245611980725 13.074210283759875 14026.751084423811 15.92532497526657 0.2631478984733842
0.7754622699291003 13.072077356200072 12422.350449171468 16.560696804202777 0.26633208561278543
0.7953419373886094 13.070947810609324 10938.804042466267 17.21666030745815 0.2695312046296975
0.8154583581627134 13.07073355917342 9772.015225613746 17.897512981542164 0.2727819328447469
0.8357979816044289 13.071295006583606 8679.744479906549 18.60229150795118 0.27606821725702124
0.8559519745827336 13.072351852472652 7734.222169713413 19.3550409257045 0.33002170973292133
0.8714244686637493 13.069027284140889 7024.620142974316 20.201001573868183 0.46928284895038685
0.882750456567769 13.058280659918744 6584.808073677986 21.144493741760883 0.5980980234122121
0.8909519556576185 13.040140858410751 6215.167701351237 22.221763772542737 0.7211814844186253
0.8967194398228295 13.014908663954294 5919.564359695859 23.412035985303127 0.8377040406836164
0.9007150395225582 12.983111039395038 5670.055412793184 24.715644615102185 0.9472406549598205
0.9034601667089823 12.945004605675635 5446.808997293931 26.13581832577596 1.045377475824746
0.9052927710427552 12.901094440070848 5238.6870300336095 27.663595770101196 1.1362353069390612
0.906498620960869 12.852053485567096 5039.501673824367 29.302000019500674 1.2245288626417221
0.9072589935029747 12.797956440629159 4844.140935833094 31.055764006983512 1.310163777560892
0.9077449397179045 12.739320656334428 4649.106769266397 32.91833572197097 1.3916709125714504
0.9080890955933151 12.676222887510553 4452.927307302823 34.88784554760073 1.469426053930967
0.9084062239377974 12.6091182589932 4254.725927384286 36.97707759253302 1.5475685820008216
0.9088178729309574 12.538395528563164 4053.2551236537984 39.19059008596819 1.6272551740563004
0.9093415606334956 12.464301082877762 3850.8747619687774 41.51712614656645 1.709165019732846
0.9100546746327767 12.387387313986908 3647.9479022306386 43.96846826169346 1.799040893405859
0.9109394642742721 12.308144161283172 3446.7995060656513 46.56574732646913 1.904682387312416
0.911971002227988 12.227145390085727 3250.1280497502003 49.3197238308105 2.0256991870569827
0.913090195026968 12.144216120586627 3059.153001881204 52.231500071408576 2.146142944021168
0.9144464173069501 12.058122712301504 2869.092082566064 55.2649907603655 2.1787944687337877
0.9164256915914318 11.9678985638861 2674.3358564562604 58.423522887487785 2.1990093890637143
0.9191664626472381 11.874879822299006 2477.460689141759 61.70402912225999 2.2196976173844245
0.9227601195474819 11.780073336963317 2281.3763659350952 65.10964915441946 2.240956497508217
0.9272596478714007 11.684316006762653 2089.0474974024255 68.60824859873831 2.262633575822269
0.9326586731321145 11.588355078798937 1903.1726057782216 72.23697176307209 2.2850427603042687
0.938972800990131 11.49287923752857 1725.7803257622966 76.0067636863827 2.3082601776179423
0.9461509912750931 11.398376037490655 1558.527131684876 79.92233407688605 2.3323134463731217
0.954179716891991 11.30527042470972 1402.4909653361915 83.9889051689072 2.357228319280871
0.9630136220728424 11.21388133912975 1258.1323701904682 88.19794020967014 2.382938462914899
0.9726016989551632 11.124583940253226 1125.6974218493685 92.55435388923622 2.4094655910001546
0.9829051098117301 11.037519738297197 1005.2024690388274 97.08342597096286 2.4369660574566665
0.9938477463178583 10.95282573491094 896.0684956659054 101.79221742108 2.4654746882598717
1.0053867330357162 10.870709148052557 797.8511001558271 106.68837496816526 2.4950277728303765
1.0174557218158933 10.791009159793216 709.8638455212587 111.78020078233094 2.525662291227065
1.0300092023063387 10.71387513634443 631.2964921326809 117.07677256857959 2.5574195298879596
1.0429780007650553 10.639311738326072 561.3496985434548 122.58761817461357 2.5903542528401298
1.0563221473369657 10.567265776045666 499.205748379942 128.3166180595674 2.624474243291081
1.0699609947620106 10.497468363445812 444.09392867314017 134.27517966008648 2.6598360537043733
1.0838538418004136 10.430012733107564 395.30539670578486 140.48389455356235 2.696536761507789
1.0979504701194052 10.364748935540879 352.2002902685987 146.95578555534186 2.734654039284895
1.1121931495373303 10.301486227903709 314.0727935302677 153.70462929578602 2.7742593745108497
1.1265187491369764 10.240256472043898 280.37376930687833 160.745122941919 2.8154106495568927
1.1409218271634554 10.180753981057544 250.61097191655082 168.09326534719062 2.858184661641993
1.1553146545662605 10.122853284095513 224.28420371772893 175.7662644346816 2.902675412170819
1.169666623280274 10.066501909883346 201.00393787766114 183.78240130930897 2.9489510652296853
1.1839310697147138 10.011575476853526 180.407434508082 192.16169359890216 2.9971167705546002
1.19807475054433 9.957777525817766 162.15620837864404 200.92540653055536 3.0472742941051947
1.212046100828469 9.905188768722299 145.99367851210076 210.09647556150682 3.099516742776551
1.225816249887423 9.853545528255541 131.65655645048707 219.69384045140666 3.1539419919870513
1.2393406338707014 9.802780975767964 118.92115480975332 229.73836897069222 3.2105978726207196
1.2525966743429495 9.752684445816602 107.59573117972579 240.26766268889338 3.269713044920641
1.2655392319077763 9.70328892784432 97.51826965836332 251.31297272611175 3.3314030558676135
1.2781242322243669 9.654632944841143 88.59812303492582 262.90743572949424 3.3958333526651123
1.2903591143876596 9.60582464680311 80.51245695264937 275.08741525913473 3.463166914603176
1.3021856585244371 9.55768028551139 73.34938910515432 287.89171588156023 3.5335694526967587
1.3135769952284713 9.509696077045666 66.94604131265615 301.32785025690487 3.606990544208514
1.3245149860486303 9.461822916303543 61.1944572743467 315.4730276607082 3.683851499715318
1.334965692746901 9.414000140273581 56.04686654790997 330.37663084885094 3.7643805265331296
1.3449117519205838 9.36618286548449 51.417593501048195 346.0805161421161 3.8487099273111838
1.3543263980505273 9.318238828325997 47.255233681406686 362.6188478296301 3.9369321332025455
1.3631855381939613 9.270136726759421 43.5065903997353 380.08609848011525 4.029544230541065
1.3714814221284235 9.22170769720504 40.127619693099035 398.5292132981717 4.126680108780727
1.3791907587921228 9.173102403420982 37.07757889771028 418.00873926701166 4.228560362320309
1.3862801844157715 9.124144989520406 34.32494037165952 438.63407841344684 4.335732256498946
1.392736156410472 9.07477200212634 31.782448699535486 460.43479879665955 4.448128923761171
1.3985725373192897 9.02501681486365 29.52559728775341 483.5618146378275 4.566572749563121
1.4037428902976168 8.974752945606378 27.48350623757358 508.05221727442984 4.690950181895294
1.4082500439063224 8.924006422974992 25.668640072612266 534.068524271324 4.822150218474405
1.4120770580838122 8.87274379127456 23.94548092909465 561.6853336223016 4.960248666734902
1.4152213293565072 8.82095127831716 22.442116014739895 591.0545752752491 5.105920627409774
1.4176719241429703 8.768569502854193 21.04647094139761 622.322289024292 5.2597666404888335
1.4194044533665597 8.71567647097162 19.775373298541247 655.6067137090603 5.422031778173886
1.420437418177014 8.662168796595578 18.61717892770414 691.1065541785778 5.593597763600094
1.420751941821347 8.608092335448632 17.562385111042804 729.0049048681853 5.775105470080576
