M[M_sun], R[km], Lambda[1], P_c[MeV/fm^3], rho_c[fm^-3]
0.23841724892012095 16.20908015294055 2780876.1263280716 3.453507347168396 0.169602847481901
0.2484076926118227 15.866412717111782 2282554.0484874686 3.635423311948881 0.17197687285622337
0.25868138559510895 15.56335637860314 1882100.9908922918 3.8245085894296387 0.17437175982269176
0.2692363761811819 15.29406723316551 1558822.7580250367 4.0198505143763015 0.17676139764190085
0.2800815359410603 15.05451215184177 1296063.6830316104 4.2218078512361865 0.17913850107285167
0.2912016663744472 14.840576014550896 1061204.5241066923 4.431735713379363 0.18153941985298164
0.3026133502961326 14.649311026971132 906311.0578217559 4.649981238461764 0.1839680443457479
0.31430585862445676 14.47784269876432 761692.4669279861 4.876888110423933 0.1864255645811879
0.32627937228094905 14.324130559187356 642244.9177813157 5.109783711252325 0.1888525894876275
0.3385387159020235 14.185781403417398 543109.93435718 5.351896689970905 0.1913020462131254
0.35107800127183025 14.061574716444568 460581.19829026825 5.60369718331635 0.1937814297586045
0.36390057748693055 13.949763700596185 391654.30755279807 5.865596928150575 0.19629642293464267
0.37701348166342713 13.849000813090383 333865.4887310131 6.134403974683912 0.19878562290682195
0.3904076586700322 13.75851702701984 285312.248005161 6.413704727951985 0.2013064055545791
0.40407790730313037 13.676774988976556 244381.45878553254 6.70423178912141 0.2038619359503468
0.4180377798785017 13.603367563024689 207182.52196448337 7.005963387469614 0.20644159619389682
0.432279451385546 13.537229630706433 180462.40743616634 7.3157504742755615 0.20899967211383977
0.44680379739579584 13.477932354765095 155552.3996611269 7.6380663300983 0.21160223259202013
0.461613553001915 13.424619859634277 134338.94530521947 7.9734442680493265 0.21424937250460044
0.47670715432929084 13.376866448091695 116232.85053184173 8.319791817389662 0.2169010974689118
0.4920855444219294 13.33428377919934 99691.16960451198 8.677373437188495 0.21955264108420974
0.5077343825265256 13.296161824948982 87474.61228468173 9.049539422059027 0.22225217193821795
0.5236694513143135 13.262184787733519 76070.50145108221 9.436893163150431 0.22500268420345568
0.5398844090435521 13.232092796373191 66257.90583471222 9.833811119436225 0.22772447964678022
0.5563730350620347 13.205508854714603 57803.91276156339 10.24686755820389 0.2304957188663646
0.5731384504144642 13.182167694624159 50501.24978028585 10.676828750646147 0.23331765376756283
0.5901828477582904 13.16181008402814 44184.94233091926 11.120442467407308 0.23614011488601896
0.6074975193731463 13.144032026018728 38710.40616218163 11.579055992018196 0.2389834661601429
0.6250792867360583 13.12872421694775 33960.94580590034 12.056489299868776 0.24188614870867314
0.6429306896883633 13.115591887838345 29831.391907022116 12.552084626914231 0.2448329820471619
0.6610444463910279 13.104603346586599 26238.551788255303 13.061475073211898 0.24776293423715934
0.6794282732678529 13.095484777044748 23106.381136569482 13.59179578103268 0.2507515241913518
0.6980528567641847 13.087950817497962 20372.114374932684 14.143950202751089 0.2538002952487728
0.7169520197686178 13.082047245910923 17981.71682138161 14.711484697230599 0.25684081434093026
0.7360898750977569 13.077549627596415 15890.459750831898 15.30086800886133 0.25993409636460313
0.7554798952533578 13.07427826894052 14057.322397806864 15.914471280923136 0.2630935048217154
0.7751059056662709 13.07209639936095 12448.776947375356 16.54883461358342 0.26627263784835037
0.7949782448360814 13.070975991497319 11036.424425926614 17.20415538078344 0.2694705920698539
0.8150729435263521 13.0707347334596 9793.800085668976 17.886481574441053 0.2727402212217489
0.835394820863214 13.071290649522705 8700.31180634291 18.595864722468633 0.2760747957483115
0.8559302472949712 13.072527023378383 7736.188139291184 19.325029303464884 0.2794045378497254
0.876688082979379 13.074378685173443 6885.570232433028 20.08417662292739 0.2828053678609118
0.8976500970119279 13.076856068076149 6134.631839119728 20.874555430009472 0.28627855609755454
0.9188056057538648 13.079655665234467 5470.326232662974 21.690042944943542 0.28976790141098385
0.9401521920055046 13.082775822300237 4882.407355526357 22.535342163060786 0.2933102340209116
0.9616781175072722 13.086192433587865 4361.75316018141 23.41538651424766 0.2969358517774829
0.9833806120242649 13.08980701233638 3899.854398972754 24.329773297168447 0.3006325511921185
1.0052657058050416 13.093656503807875 3489.9157641609377 25.271753732963113 0.304330866727602
1.02729090551628 13.09752047747289 3125.7162498571897 26.25249949677676 0.30811524781702715
1.0494650339434792 13.101378198592291 2801.9316563935145 27.273502513062052 0.31198771887216087
1.071772776231803 13.105199190871778 2513.9777153359646 28.330051978215455 0.31590860522830305
1.0941976662126933 13.10889026213377 2257.418697261707 29.42420921936045 0.31988510900412936
1.1167410667389515 13.112375590280312 2028.5967241711755 30.563277943436308 0.3239510618403874
1.1394072688784551 13.115730664011886 1824.426401945666 31.749103962517744 0.32810628531018987
1.1621414466740583 13.118743478651837 1642.2597769306387 32.97483702663195 0.33230466553647475
1.184957014135996 13.121437314117019 1479.359232579895 34.2473829628275 0.33658420601212025
1.2078367751380867 13.123779158730093 1333.704166550938 35.572281025666086 0.3409691826032465
1.2307907522555808 13.125794479511447 1203.2827460931614 36.95154683620699 0.345459159164827
1.253747238251271 13.12714430691235 1086.5364545347343 38.38000374785028 0.35000109915315025
1.276760403050727 13.128166985295069 981.8301499773617 39.86271489583301 0.3546299287304703
1.2997540509308718 13.128485631383253 887.9194115120114 41.406697869497165 0.359375579448453
1.32276120307646 13.128335750035028 803.6038529460342 43.014400650967495 0.36424026031996504
1.3457580657483852 13.127521109393792 727.8392499238636 44.68737390032755 0.3692205971209492
1.368706891003872 13.126001928890519 659.7261551843227 46.419161294094934 0.37425634423374354
1.3915977148690177 13.123798907514951 598.4725850191238 48.22314077121821 0.37942342870954576
1.414430417328636 13.120860285167122 543.3076447887637 50.10232531431748 0.38472544575806267
1.4371584544386324 13.117007638296325 493.5815980082894 52.0598931929028 0.3901652968257286
1.4598105594377544 13.112520057413896 448.7805507147325 54.099217088956024 0.39574498463952146
1.482325416788286 13.107079494877159 408.3373482452811 56.21654265106282 0.40142217887817105
1.5047140456473849 13.100725601793428 371.81589688285277 58.4209997754052 0.40724300493474663
1.5269372075844856 13.093490160442014 338.83974181885804 60.71900253520049 0.41322398210233824
1.5489870918005069 13.085295109160649 309.0184426271571 63.11478348408254 0.41936837242250147
1.5708567890434064 13.076201620873237 282.0451125548128 65.6128408641908 0.42567723013791847
1.5925008236052134 13.065899620756305 257.60321200841213 68.21801391369469 0.4321549811839295
1.6139189001934222 13.054640606272775 235.4815006324522 70.93532852043498 0.43881713749384005
1.6350822610748972 13.042366906412168 215.4250565114757 73.76964349576318 0.4456686772244175
1.6559808017481439 13.028974251006849 197.24938963292803 76.7225349868309 0.4526945033607803
1.6765765834986353 13.01425993542855 180.7129339805375 79.80558157851391 0.45992118768174567
1.6968928939990815 12.9986806118411 165.71609867863623 83.02541786265049 0.4673677141298766
1.7168692287383196 12.98172827890124 152.07824069549523 86.38906974918281 0.47504511947546835
1.7364934970303016 12.963630743506638 139.6784754022299 89.90402195355776 0.4829585355299272
1.7557380146628154 12.944349815549453 128.4076724259448 93.57828895687034 0.4911153303042666
1.7746244372273716 12.92387222339583 118.1281950239564 97.42048016915251 0.49953382304594834
1.7930808481371323 12.901938170992807 108.76251201625361 101.43978127557975 0.5082304486974398
1.8110957901301852 12.878741956318335 100.22881884362364 105.64602227408878 0.5172128727299422
1.8286720904168032 12.854226798612153 92.44210289620194 110.04975951967431 0.5264932148092007
1.8457532907664322 12.828292411453026 85.33446582348915 114.66233571401149 0.536094541667072
1.8623545578010108 12.801044783554032 78.8408920163984 119.49592254536267 0.546036938235498
1.8784711565279675 12.772402293050472 72.89334820878561 124.56356220156141 0.5563290561332035
1.8940571091829457 12.742551702572229 67.47034623313276 129.87411349312052 0.566974313518056
1.9090819062931648 12.711127800161162 62.503196150336755 135.44439277065356 0.5780090682029628
1.9235290094387634 12.678221088684577 57.95090708831877 141.29277511009656 0.5894602258133843
1.93740141187563 12.64400087800553 53.784323418099916 147.4367442127232 0.6013447729121346
1.9506919210801874 12.608413286338632 49.963731226181515 153.89512014485547 0.6136980030940343
1.9633022156962883 12.571026137295574 46.45885466329951 160.68824708650908 0.6265520459143847
1.9753034772584799 12.53241306553164 43.24260680339428 167.82763706942953 0.6398879762042269
1.9866636223227998 12.492338279275211 40.28792984133432 175.34059377469262 0.65376217406138
1.9973113666808375 12.450465853728057 37.56671387765825 183.25777085391363 0.6682320566731321
2.0072835685482406 12.40748610312433 35.07639208554415 191.60680633971748 0.6833219904841087
2.0165344282101394 12.36282002043484 32.780786231436515 200.39609735356558 0.6990109528337353
2.025051559389547 12.316511996592276 30.66553662238881 209.67742424576764 0.7154138177223771
2.032844865958477 12.26894982514676 28.72540560120784 219.4816778984786 0.7325486495377977
2.0398743783605218 12.219736994951116 26.93282410739797 229.82892583281134 0.7504209533939916
2.0461349465619896 12.168988096361534 25.280239473538444 240.78063390569278 0.7691562149482939
2.051617112134015 12.116895633238514 23.76080905772644 252.3567046937676 0.7887151892596803
2.0563160254598407 12.06328895919463 22.357832018281872 264.62340185313917 0.8092392745623948
2.060194227999385 12.008116397760448 21.062768572470002 277.6120219510251 0.8307216920849317
2.0632487205856456 11.951452868602154 19.86768082683945 291.3978081254897 0.8532887697309847
2.0654880522617316 11.893390467580124 18.76249820253206 306.0136382839232 0.876940024707783
2.0668926388259123 11.83389661833932 17.746539304902424 321.5477055966054 0.901810816792652
2.067464332569027 11.773053321889588 16.807301286613495 338.0621227555839 0.9279710296549243
