M[M_sun], R[km], Lambda[1], P_c[MeV/fm^3], rho_c[fm^-3]
0.23841724892012095 16.20908015294055 2780876.1263280716 3.453507347168396 0.169602847481901
0.24840970321188263 15.866374729158991 2282335.0063774884 3.6354624470354344 0.17197737066932534
0.25868426124143373 15.563237764525331 1882003.7812710358 3.8245890865837233 0.1743727445526405
0.2692421776070919 15.294054596735585 1558716.2589484511 4.019980195637773 0.17676298404608387
0.2800908177892905 15.054329725920768 1295921.921218152 4.221985428065431 0.17914057755836552
0.2912124420545014 14.840381139599735 1081723.8835955563 4.431963629779792 0.1815419843728373
0.3026270910953691 14.649091389440622 906099.6802267422 4.650262067281806 0.18397108586891545
0.31432476270749243 14.477638117503588 761515.0580533093 4.877239226988655 0.18642936735743412
0.32629999691969097 14.323851271637071 642021.2868589831 5.11019533581742 0.18885687866073428
0.3385625132003184 14.185623524936856 542940.438611397 5.352371668459645 0.19130678560169057
0.3511036370669691 14.06138547729757 460435.0386551004 5.604238486908849 0.19378663225140502
0.36393308618391296 13.949482163003108 391496.7479908722 5.866207745086492 0.1963020792056352
0.3770461923667876 13.848835618915965 333747.6360060725 6.135116058515336 0.19879221692686802
0.3904416180845663 13.758163502189479 285185.24580098165 6.414495494046773 0.20131345359174746
0.40411875269104286 13.676541225147421 244271.31215244558 6.705104774858749 0.20386939955910413
0.4180822776972194 13.603100096288287 207082.33496308923 7.00696214631326 0.206450135102304
0.43233103621817115 13.537116731886531 180368.75823479507 7.316841786083724 0.20900866814222413
0.446858507883998 13.477649670040572 155463.38221408948 7.639254461469802 0.2116116788427114
0.46167150365201337 13.424425890571586 134257.93801309948 7.974733652142823 0.21425924435729818
0.4767690823982207 13.376677696458712 116162.43748508324 8.321242930957665 0.2169122075636177
0.49214625390017785 13.334047676364758 100681.92962397133 8.67893804101935 0.21956415217739184
0.5078031862885752 13.295907897246401 87415.6230282898 9.051222585255287 0.22226412517507846
0.5237455673261527 13.262005979603341 76020.22943091061 9.438700422248605 0.22501507716653638
0.5399628332518731 13.231933760128667 66216.27142839412 9.835822943417513 0.22773827537775768
0.5564567020128838 13.205380787392748 57764.308954320164 10.249018342240669 0.2305099316935199
0.5732251058013097 13.182079389184377 50468.52169864913 10.679124673653527 0.2333322614164575
0.5902777785156988 13.161655773366165 44149.97462586733 11.122983686561401 0.23615628321442025
0.6075979003346033 13.143924134598189 38681.937613650065 11.5817594582012 0.23900009116126542
0.6251848498485317 13.128637118187235 33934.67176262636 12.059362716882681 0.24190323418262713
0.6430447745134945 13.11561748781786 29809.327335082144 12.555250586593631 0.24485180699369072
0.6611631122021013 13.104638463631566 26219.104124164485 13.064830967317306 0.24778218264148066
0.6795490637045308 13.095383666732978 23086.6726994321 13.595350250855885 0.2507711956796477
0.6981804985212492 13.087893456581648 20354.744631186208 14.147712660559584 0.25382045230514816
0.7170856507731539 13.08202343968373 17966.396999773275 14.715608455820204 0.2568629070363437
0.7362359825337491 13.077537112582052 15876.029309214491 15.305224521740753 0.25995670016319256
0.7556275647244874 13.074233532658473 13946.303523034005 15.91907171884536 0.26311656006999745
0.77525729026026 13.072092037725366 12437.717797263054 16.553862445802626 0.2662978349974249
0.7951270185775796 13.070940572619865 11025.861889301035 17.20945560706325 0.26949628276688287
0.8152377217030342 13.070780220312791 9784.746794237863 17.892067661635508 0.2727664795619894
0.8355621442276463 13.07131857658846 8691.892310709663 18.601955212337987 0.27610342511796754
0.8561082577850596 13.072561531880206 7728.7328923050545 19.331440044834096 0.279433776840005
0.8768721371775411 13.074443131013387 6878.706638214148 20.090923546750986 0.2828351393720319
0.8978330230131784 13.076794483110348 6128.30612633394 20.881655209022096 0.2863089349570348
0.9190000723675298 13.07968346976324 5464.752080235267 21.697760492665832 0.2898009236075016
0.9403205789113391 13.082849929937248 4879.433796131119 22.543455272103973 0.2933439686229563
0.961887419439009 13.086179157335813 4356.8494150412025 23.423916183022666 0.2969703356765905
0.9835903907132669 13.089782641010299 3895.4784524995243 24.339030642830267 0.3006699769564978
1.0054610819626082 13.09381000748679 3487.69417666144 25.28147818428636 0.3043689759337447
1.0275158589068936 13.097566246433924 3122.3393006977176 26.262715293085066 0.308154174521401
1.0496929661503072 13.10138458930685 2798.811166027543 27.28423626457531 0.31202755214191924
1.0720075806008231 13.105203465142791 2511.0423886490566 28.341677281913043 0.3159517470746219
1.0944494117617536 13.108921350038305 2254.779428284303 29.436417464315962 0.3199292570457872
1.1170092670097032 13.112534971761846 2026.21621371787 30.576100540431586 0.3239961072808107
1.1396605093579564 13.115740707996961 1822.2102063811233 31.762574219225645 0.32815242362615865
1.1623996476630207 13.118767688951433 1640.214207866365 32.98940226094638 0.33235455436914735
1.1852288775654776 13.121486627691215 1477.555300484937 34.262678504658645 0.3366353467485926
1.2081128471419635 13.12382035011229 1332.039356020176 35.58834864371389 0.3410216532715084
1.23105952023446 13.125740426815065 1201.8206432220493 36.96842971546076 0.3455128401850774
1.2540323349384486 13.127186855231898 1085.1741673332128 38.39823618507278 0.3500590712452942
1.277041209221992 13.128163254111596 980.6074897773454 39.881867568713005 0.3546894670189629
1.30004873343097 13.128471151470679 886.7812585705691 41.426824728577415 0.3594367946028129
1.3230603210554932 13.12833909348199 802.6598317760227 43.03555917396596 0.3643032479205044
1.346062798868575 13.12750283132431 726.8739093500611 44.71020311759716 0.3692885582739138
1.3690285906633273 13.12612211592507 658.8835965139915 46.443158186231315 0.37432608331024636
1.3919120393689235 13.12374771982085 597.6649720729945 48.24837402451251 0.3794952985319426
1.4147352030562015 13.120739898162903 542.5846338931833 50.12886981108586 0.3847995820652657
1.4375061211141766 13.117144124553835 492.94075527035716 52.08782860120324 0.390241808849476
1.4601266046885424 13.112383610230548 448.1670281335922 54.12862707155525 0.3958238417537788
1.4826581670401489 13.107033671422926 407.78569812911127 56.24823651195808 0.401507159765237
1.5050314255202206 13.100595595143648 371.31564807542134 58.45437017279445 0.4073308836261016
1.5272695648213568 13.093382384190221 338.36037533025626 60.754154199451115 0.41331494353324033
1.5493218314350006 13.085180396769855 308.59113647159757 63.15182795567838 0.41946254962303814
1.5711876895451402 13.075946880836849 281.6326556859359 65.65189609832882 0.42577468012633723
1.5928369711068984 13.065781822298298 257.2551147309974 68.25920662629025 0.43225612651416045
1.6142628248568334 13.054580491019523 235.15892463257856 70.97879576245485 0.43892221316054264
1.6354233392302449 13.042131783066763 215.11612213381937 73.81608624558868 0.44578023863885186
1.6563130287235122 13.028685007346393 196.95922861553993 76.77195088944954 0.4528120607865591
1.6769184810354114 13.014047664902892 180.45858223453087 79.85776696092549 0.4600433104338035
1.6972231992589908 12.998338294092134 165.47630429230463 83.08055370813044 0.46749490673672367
1.7171750381268434 12.981416331789115 151.8697821931629 86.44735164531606 0.4751777094064836
1.7368181852291045 12.963301395543349 139.47788709050968 89.96565908648655 0.48309673972593975
1.756065384986592 12.943904735974877 128.21106713899036 93.64350496443785 0.4912594602731448
1.7749298179546829 12.923404180033108 117.9627068231221 97.48951635192424 0.4996844561530658
1.7933865131075157 12.9014933409059 108.60817358447761 101.51289835076216 0.5083880110281014
1.811405809911419 12.87826709924955 100.08620661128195 105.72349983261076 0.5173776476118733
1.8289690720212748 12.853708475866515 92.30652213135468 110.13189774010667 0.5266656859387421
1.8460592166716923 12.827792146126137 85.20962890631854 114.74945915124407 0.5362753929456174
1.86267433532714 12.800501639893753 78.71768407095242 119.58838216518473 0.5462267308286994
1.878770699539214 12.771851341605686 72.79041023949478 124.66173549894792 0.5565281706545571
1.894330482541394 12.741783283112301 67.36736308715393 129.97697346518382 0.5671784576664166
1.9093507258114353 12.710383939909754 62.4085352648183 135.55375979956483 0.5782239427538811
1.9238126862333411 12.67759920467377 57.87045666390889 141.4091217556461 0.5896863054568363
1.9376639801651856 12.643252808569438 53.7057169924154 147.5605813273099 0.601582983404379
1.9509280293348485 12.60753862375311 49.890485301590694 154.02700227476527 0.6139493122434205
1.9635528982418566 12.570308359894376 46.39183156437445 160.82877578412123 0.6268173773008615
1.9755365289140374 12.531579248440968 43.177665597058535 167.9757686751197 0.640162310317039
1.9868831660005943 12.491497981707578 40.229477331610894 175.49865238432312 0.6540523795789144
1.9975137067174078 12.449687411197889 37.51913556375324 183.4265199911975 0.6685392833087731
2.007462524399275 12.406493215556916 35.02792667256441 191.78545010835484 0.6836417648150359
2.0167027125850656 12.361753960661126 32.73368579301467 200.5868915384098 0.6993494821437227
2.025244064818219 12.315671572013896 30.62644562392495 209.8815269324552 0.7157731388888497
2.0329925134754667 12.26783411395283 28.682855124121073 219.6982022916403 0.7329235924601917
2.040026650116486 12.218714983954733 26.896109022036484 230.06087795017888 0.7508196425087758
2.0462662255436896 12.167859972186504 25.244609329312958 241.02927383767474 0.7695804428915239
2.051740877576712 12.115775696375538 23.72743832417555 252.62127412577226 0.7891597031341854
2.0564136402631075 12.062078252771512 22.327472328874652 264.90741768032814 0.8097131471715726
2.0602609910470333 12.006732819422792 21.02763362675909 277.91489251782673 0.8312196027648184
2.0633075775448586 11.950161014156276 19.841476529879507 291.72158549581235 0.8538146162002731
2.065532273118492 11.892053090090858 18.74007225564319 306.36161377719066 0.8775007159676935
2.0669219079701966 11.832517631894808 17.722726924264304 321.92005425558233 0.9024026701334693
2.067460268126568 11.771582675231349 16.786283455163066 338.46338421307024 0.9286048403589995
