M[M_sun], R[km], Lambda[1], P_c[MeV/fm^3], rho_c[fm^-3]
0.23841724892012095 16.20908015294055 2780876.1263280716 3.453507347168396 0.169602847481901
0.2484171117313581 15.86614094083617 2281962.0214804467 3.6355838656448562 0.171978915159958
0.2586993264048759 15.562742074378 1838989.7111140287 3.8248388407526557 0.17437579982102566
0.26926539097947266 15.29341909026763 1557969.9077144794 4.020382563734191 0.1767679062563094
0.2801202580239929 15.05374671361016 1295332.61069475 4.222536420257186 0.17914702055720313
0.2912509045830815 14.839703613201532 1081118.9132838503 4.4326708377921475 0.18154994189141144
0.3026722361515598 14.648366612481993 905442.8706679918 4.651133482942835 0.18398052375681168
0.31437749256697806 14.476882770700811 760925.8461366886 4.878291644269783 0.18644041676440407
0.3263654753101134 14.32305057631191 641460.4211448382 5.111472689428411 0.18887018882543455
0.3386368728043371 14.184802512014867 542387.1313902792 5.353845660708093 0.19132149326145423
0.3511887059228594 14.060590297653446 459920.6673655217 5.6059183475824925 0.19380277746673638
0.3640259725757024 13.948788054296273 391053.6644290357 5.868103378010999 0.19631963309599557
0.3771521268753247 13.84811059393633 333339.33353302476 6.137326042076096 0.1988126817587573
0.3905586945045622 13.757425183444788 284806.5715255677 6.4169497309846815 0.2013353280161472
0.40424906731799215 13.675910694794439 243930.81646127728 6.707814254339707 0.20389256430729757
0.4182232804315874 13.60243672099011 209373.3061746573 7.010062094658795 0.20647663817174655
0.43248271619970735 13.53636069129668 180071.28111777105 7.320229078351891 0.2090365906636911
0.44702393310261035 13.477068899960527 155213.08252584108 7.642942352404035 0.21164099945752088
0.4618504450740148 13.42377952978069 134027.67622830532 7.978735914022296 0.2142898866926048
0.4769618068724719 13.376097366938287 115948.6460613409 8.325747362821408 0.21694669464009878
0.49235297554494184 13.333457311866862 100492.51957724536 8.68379486497018 0.21959988477114142
0.5080234506828994 13.29539553945394 87242.42436968136 9.056447550052429 0.22230123104927235
0.5239754334625492 13.261575780760381 75868.40172863181 9.444310728652178 0.2250535488611601
0.5402151598248345 13.231493755213016 66072.70741675397 9.84206851071252 0.22778110326280376
0.5567225461475619 13.204968490233066 57639.519057334845 10.25569543724055 0.23055405532262907
0.5735102163948113 13.181674969953761 50353.17783621479 10.686252494182174 0.2333776116739931
0.5905787851804366 13.16138911291153 44051.158174899276 11.130873335334188 0.23620648055065693
0.6079037501853978 13.143584609249737 38590.190789499924 11.590152995336016 0.23905170732911896
0.6255138021534403 13.128322115232558 33852.78755240686 12.06828407884251 0.24195628102430072
0.6433863233179625 13.115304979812194 29734.506089248993 12.56508060578521 0.24491025675439454
0.6615245930036323 13.104449367105596 26152.293483088713 13.075250914828242 0.2478419483421845
0.67992775946535 13.09524673527684 23027.302706640912 13.606386977968736 0.25083227619489307
0.6985776984428301 13.087783381270981 20301.881563711628 14.159395414301043 0.25388304169160025
0.7174987893738771 13.081948359286859 17918.65679337691 14.728413576018248 0.256931509408214
0.736670877633814 13.077440017268366 15832.216423028949 15.318752642358893 0.26002689091488074
0.7560781414773426 13.074170699216186 14004.885115753112 15.933357553511648 0.263188154007513
0.7757265861700272 13.072050350127457 12402.113543458952 16.569476096654483 0.26637608333009777
0.7956241435650887 13.07099174793052 10993.894311171514 17.225915461840355 0.2695760652365164
0.8157450721418055 13.070749276084875 9755.356895470868 17.909415572108717 0.27284802632626465
0.8360921068877929 13.071355596521956 8664.872461264744 18.620870342924125 0.2761923388633737
0.8566511534334926 13.072563528518426 7704.540732780575 19.351350135386486 0.2795245855172856
0.8774412255735085 13.074501000374822 6856.933297091424 20.11187811095146 0.28292760359089986
0.8984170321870842 13.076841370837128 6108.574499195812 20.90370606694146 0.2864032871774293
0.9196072830343811 13.079753935088345 5446.84693495521 21.72173104667318 0.28990348991140463
0.9409773100636079 13.082861477980076 4861.0319930444575 22.568654887623094 0.29344874953945727
0.962532800569364 13.086309824818093 4342.271575148839 23.45041013037766 0.2970774458858673
0.984264729762748 13.08995473742783 3882.3048957937485 24.367786051062023 0.3007862298406858
1.0061720080235268 13.093841798883712 3474.0490883982634 25.31168508039064 0.30448735390616727
1.028208252124241 13.097581610754593 3111.3294973933116 26.294449028298747 0.30827509409458564
1.0504213322268874 13.101592560709099 2789.1496323400847 27.317579562518542 0.3121512901080877
1.0727514324731642 13.105357351059432 2502.152666288215 28.377791680787325 0.31608576867841487
1.0952133525076915 13.10913366764132 2246.664770054379 29.474343502698904 0.3200664070070262
1.1177682313729154 13.112508477075552 2018.7931458260414 30.615935875715476 0.3241360477486373
1.14046204155705 13.115911689305795 1815.530419610752 31.804422408986916 0.3282957620230277
1.163216014321896 13.118892384879777 1634.1474600632187 33.03465427569387 0.33250955154551276
1.1860596897602387 13.121535842572351 1471.9418628864607 34.31020040433408 0.33679423650711143
1.2089634351127965 13.12387411685478 1326.9227058011652 35.63827030738696 0.34118467824794735
1.2319308344310984 13.125807645948397 1197.1317751619872 37.02088543002691 0.3456796290505042
1.2549297466116112 13.127255153650033 1080.9105235604795 38.45488767084741 0.350239201038878
1.2779491899030693 13.128149673328343 976.681424809397 39.941379617310645 0.354874467073023
1.300962151687179 13.128478942987396 883.2757264298408 41.48936512381216 0.35962700907854217
1.3240024983380119 13.128421062820587 799.2787625367306 43.101306675321744 0.3644989741227615
1.3469974418289996 13.127382844969647 723.9523884666146 44.77979613675021 0.36949206844859617
1.3699759181628488 13.125993056541931 656.2043949154026 46.51773081480549 0.37454280413474295
1.392885290869405 13.12361960244109 595.2026365712857 48.326790518124554 0.37971864585078213
1.4157092564899112 13.120529404862701 540.3144250094563 50.21136309775639 0.38502997813177087
1.4384780527883694 13.116838714632644 490.8842249059671 52.17464650502237 0.3904795935794242
1.461128120253232 13.112192252065405 446.290761526237 54.22002985260802 0.39606892042815756
1.483669552750246 13.106728316908274 406.0400200302056 56.346742322977704 0.40177128382475935
1.5060598630199957 13.100338974530546 369.73674997214783 58.55808928809538 0.4076040209224552
1.5283005397058227 13.093049911812834 336.9243367297887 60.86341246469472 0.4135976694967562
1.5503496106081547 13.084709380487377 307.2539231735625 63.266972419487686 0.419755278410674
1.5722276874668644 13.075524308613245 280.4237314051369 65.77329378342364 0.42607758966631704
1.5938729393349909 13.065182691794146 256.12116161628893 68.38725183215502 0.432570531024464
1.6152978337466257 13.053941078632505 234.13268129859676 71.11391496811294 0.43924884397398045
1.636458735582901 13.041457094954541 214.17686012353573 73.95873442863095 0.4461195899873414
1.6573677838099514 13.028006699071872 196.08551877386296 76.92557445651893 0.4531775219058874
1.677981252720081 13.013396452306836 179.66460029015732 80.0200050567932 0.46042297542504024
1.6982551932021768 12.997434118382849 164.7401528383382 83.25196964027224 0.4678903452953318
1.718226826433994 12.980488941121799 151.18476740862548 86.6285542080869 0.47558994093791207
1.7378157057432517 12.962199735644244 138.86182966543055 90.15729943455192 0.48352644011869717
1.7571122099316459 12.943009494486967 127.63928229516897 93.84627927302452 0.4917075995548333
1.7759485748151473 12.922222078691133 117.42902625446088 97.70417581948243 0.500152831159798
1.7944006697449768 12.900302818521874 108.1170699118592 101.74025466671716 0.5088779484461823
1.8123828975469878 12.876801297849601 99.62500127126312 105.96442349324573 0.5178900304036504
1.8299507828577601 12.852219709275987 91.87947179386084 110.38732339210709 0.527202020308813
1.8470413403123154 12.82632464768565 84.8154556953399 115.02039739834892 0.5368378079507202
1.863616193103368 12.798978078805614 78.36478710951096 119.8759259141515 0.546816974157412
1.8796991683863553 12.77022705935667 72.46444022369178 124.96352349958343 0.5571346056873699
1.8952364812449645 12.74011434887336 67.06954529938079 130.2968797023825 0.5678133692363706
1.9102595261804294 12.708685589487178 62.13240438991465 135.8939177392162 0.5788922546322551
1.9246580357142185 12.675492267477429 57.604874380660405 141.77100327679747 0.5903894975848717
1.9385176934471275 12.641280092473572 53.463678087955735 147.9457776799511 0.6023239390789329
1.9517147687587746 12.605222035679368 49.664227586660395 154.43724092435838 0.6147310461003508
1.9643193549219535 12.567916175794013 46.18279254109591 161.26433711270093 0.6276371481822424
1.9762596004529231 12.529079680304374 42.987066946709945 168.43658669191464 0.6410157277981786
1.9875553090397815 12.488691425029673 40.048279797752315 175.990375623006 0.6549552142761144
1.9981906616409557 12.447032354561829 37.35009013213732 183.9515275107707 0.6694951180852989
2.0080871183802076 12.403603068601385 34.87097610294133 192.34069492629072 0.6846348229549954
2.017284714990687 12.358825221711365 32.59293889245306 201.18053428137623 0.7004027923812417
2.0257781295476525 12.312560263856478 30.49157405223421 210.51661194223033 0.7168912010281837
2.033489299032169 12.26463684233585 28.560165214280126 220.3719631287527 0.7340903056123341
2.0404710859595987 12.21535024062075 26.781531264134536 230.7826858314311 0.7520603164396139
2.0466598511354235 12.164348438831597 25.138924810255112 241.7997263019942 0.770889253454097
2.05209064945184 12.112119858046862 23.627985616031946 253.4446649998454 0.7905431156656071
2.0566852418201504 12.058151493028463 22.233542655504877 265.7893172386219 0.8111813369360428
2.0604998881610994 12.002858861887736 20.946421477262778 278.85479368790027 0.8327592574449321
2.061286120958512 11.956613288337305 20.087802215126413 294.7549876469882 2.4654956873532035
