M[M_sun], R[km], Lambda[1], P_c[MeV/fm^3], rho_c[fm^-3]
0.23841724892012095 16.20908015294055 2780876.1263280716 3.453507347168396 0.169602847481901
0.24841763475603176 15.866156559619151 2281934.6208258565 3.635602209838633 0.17197914850504067
0.25870062939266225 15.562774969224943 1881397.0059194707 3.824876575171636 0.1743762614300464
0.26926803039223013 15.293419977393404 1557934.8430772307 4.02044335773521 0.17676864995556418
0.28012378773985613 15.053669418006244 1295304.2952750467 4.222619672090384 0.1791479940582301
0.29125755056914626 14.839683201056193 1081062.7996616878 4.432777695626704 0.18155114425788413
0.30268018083574544 14.648278710847173 905379.22841394 4.651265155443047 0.18398194983893482
0.3143860764971439 14.476769151944733 760825.2561938339 4.878449389346381 0.18644206048540043
0.32637414108107143 14.323000187367978 641391.1922284698 5.111665710019646 0.1888722001211617
0.3386478707372767 14.184674571026234 542285.3616084706 5.3540684004065255 0.19132371578311527
0.3512015294060876 14.060422350746597 459842.97649273265 5.606172202364763 0.19380521727629138
0.3640393276833532 13.948649080878814 391005.7694644306 5.868389845767824 0.19632228583721467
0.3771693012693549 13.848007830084475 333263.8276151142 6.137660024323422 0.1988157744924169
0.3905763941112964 13.757319853034247 284740.1976547312 6.417320633683833 0.201338633843277
0.40426558914501665 13.675831424605157 243887.00254330735 6.708223739635936 0.20389606520990367
0.41824481258073853 13.602375305295778 206729.53848630656 7.010530605934786 0.20648064371812933
0.4325050028048651 13.536273763178903 180036.44982959834 7.320741027663814 0.20904081082378373
0.44704819200920215 13.476970854703994 155171.48216455372 7.643499744598625 0.21164543100989777
0.4618775272684048 13.423727850281214 133996.26508978812 7.979340832238884 0.21429451810038969
0.47699005912522424 13.376013585361951 115918.26602162007 8.326428202110582 0.21695190731893316
0.492383105039997 13.333395831730847 100467.95433791868 8.684528981648599 0.21960528580961847
0.5080567476046348 13.295337060779392 87218.56252466136 9.057237326322419 0.22230683976436486
0.5240113192531447 13.261476744837474 75846.93806249254 9.445158766319748 0.2250593641310989
0.5402505890681023 13.231442266773264 66052.24915290774 9.843012602380155 0.22778757720624307
0.5567652763107556 13.20500285844617 57623.31544171349 10.256704777328098 0.23056072525134338
0.5735519838850623 13.18170161831385 50338.60527710637 10.687329986750212 0.23338446714478628
0.5906183846728967 13.16129815592544 44035.78828903248 11.1320660298535 0.2362140689857746
0.6079529324038275 13.143503711151727 38577.225134528206 11.591421885382264 0.23905951038527545
0.6255640267716716 13.12835980522812 33841.527631421995 12.069632785401193 0.24196430049751622
0.6434377401239103 13.11530768819192 29722.831247568556 12.56656672970569 0.2449190933177659
0.6615782165962895 13.104412380902032 26143.44129214625 13.076826251606741 0.24785098400251895
0.6799864676158687 13.095192348416758 23017.331090497824 13.60805558978631 0.250841510786681
0.6986386424848776 13.087712247143664 20292.63925764675 14.161161725787288 0.25389250455923007
0.7175628776291845 13.081856567585735 17909.74258723272 14.73034964305392 0.2569418817271531
0.7367350538777444 13.077416040512665 15824.930940228338 15.320798056222074 0.26003750355950617
0.7561486620375936 13.074200446641818 13998.866525450461 15.935517566162305 0.2631989789830469
0.775798556084837 13.072008981548167 12396.658965695784 16.5718369561804 0.26638791485645447
0.7956877691232824 13.070941024553225 10988.902247518334 17.22840431090785 0.2695881289228514
0.815821801285065 13.070760851210027 9750.727391682212 17.91203874301759 0.2728603569813075
0.8361711531872389 13.071337933973453 8661.193832257168 18.62373059380619 0.27620578395261414
0.856733033494819 13.07258700074693 7701.3708793167925 19.354360886541652 0.2795383173649285
0.8775268322415037 13.074596218475065 6854.124473435095 20.115046854486323 0.2829415860050861
0.8985040365497851 13.076860235394843 6105.557049021442 20.90704064407307 0.28641755531872315
0.9196989959332753 13.07976198009675 5444.1769546342075 21.72535605570008 0.28991900076598853
0.9410756976495473 13.082900873800806 4858.568438994187 22.572465824645672 0.2934645955539986
0.9626292099573607 13.086318536392538 4340.285962197037 23.454416872609713 0.2970936444157897
0.9843773603464685 13.09013013015911 3880.4479219753807 24.372134961090826 0.30080381169276205
1.006274821965605 13.093806140529423 3471.9888325966976 25.31625358320747 0.30450525743715556
1.0283212116070228 13.09770881230697 3109.796530986141 26.29924852756636 0.30829338231054987
1.05053041528063 13.101590221444683 2787.5528697192594 27.322622577917162 0.3121700048875868
1.0728602310128 13.105321959248407 2500.797101774848 28.38325402077363 0.3161060395838777
1.0953186600261298 13.10900737367101 2245.304299332166 29.480079948872824 0.32008715141914906
1.1178959287286903 13.112610574381776 2017.7138196042904 30.621961209228115 0.3241572145841756
1.1405704365414986 13.115822388974607 1814.5347413589493 31.810752304377054 0.32831744317728423
1.1633392718272781 13.118919031183685 1633.1942910206535 33.04149929806004 0.3325329971124082
1.1861853409364278 13.1215996021488 1471.1427147375998 34.31738890187679 0.33681827129205216
1.209093639175951 13.123873420949025 1326.122461491246 35.64582194067601 0.3412093389813533
1.232053431786947 13.125788515748432 1196.4433680546074 37.0288205273849 0.3457048595882318
1.255063394944862 13.127277274106186 1080.2782249768936 38.46345782062632 0.35026645079745977
1.2780843195791767 13.128198436902586 976.143731498989 39.950382669811766 0.3549024540981492
1.3011020669121114 13.128517409537036 882.7131971367693 41.49882648083312 0.35965578547272187
1.3241396047383762 13.128389103705214 798.9031056473586 43.11125340116365 0.3645285849039134
1.3471538447551334 13.127491008367226 723.5262683515655 44.790256416618746 0.36952246781255743
1.3701123786069107 13.125922352588152 655.784627428557 46.529013356194916 0.37457559313144434
1.3930221428503302 13.123588884038144 594.8416559105968 48.33865485209352 0.37975243806795134
1.4158654756013793 13.12057791285202 539.9773928164437 50.22384449490732 0.3850648375115353
1.4386264907890378 13.116807854550691 490.5700719166001 52.18778249282647 0.3905155716113185
1.461286303570843 13.112149545978271 445.9861460948087 54.23385984296047 0.396106002841441
1.4838245476583927 13.10668522773652 405.79892589335213 56.36164771901174 0.40181124972797405
1.5062063582721554 13.100264778707412 369.5048541450492 58.57378387195415 0.4076453515507597
1.5284523845110918 13.092997824019907 336.7161922091077 60.87994558639935 0.4136404520061933
1.550508981821831 13.084675614449669 307.0513043126516 63.28439664223929 0.41979957556081765
1.5723930364957648 13.07552464768992 280.2452600782005 65.79166469766692 0.4261234284743478
1.5940361478297025 13.06521053386152 255.9601914214982 68.406629162055 0.4326181104701532
1.6154499253052208 13.053810548529949 233.980528360088 71.13436331469477 0.43929827484537254
1.6366181603851198 13.041360471301282 214.03968050756066 73.98032271250132 0.44617094720119965
1.6575411447902877 13.028036944366916 195.9660762595313 76.9488248545359 0.45323283318817437
1.6781380748527663 13.0131964974864 179.5269043013063 80.04455986683267 0.4604804378951746
1.6984226905291608 12.997362627609379 164.62427999533483 83.2779142051253 0.4679501966825455
1.7183900345484504 12.980378707385265 151.08156874421854 86.65598076605671 0.4756523357066219
1.7379705242505694 12.962065677450504 138.76692397661822 90.1863066462734 0.48359148075546987
1.7572521379178008 12.942758078393409 127.55198773295062 93.87697262514068 0.49177543308298494
1.7761150726132446 12.922086254558808 117.34599377990247 97.73666914118677 0.5002237297786436
1.7945489655223812 12.90007487986677 108.04458417089991 101.77467095928172 0.508952113218989
1.8125405253308702 12.876664042411681 99.55676055065847 106.00089467562788 0.517967595248046
1.830089301866283 12.852001755971582 91.82271706930952 110.42599111169808 0.5272832135126534
1.847180094181622 12.82602434958255 84.75501604536143 115.06141482162363 0.5369229521286533
1.8637535723283356 12.7985975208142 78.30434761268363 119.91945868986453 0.5469063342305741
1.879825041593566 12.769923303772346 72.41390214329806 125.00909705424343 0.5572259962383508
1.8953705190258647 12.739781922378425 67.01954407745374 130.34231001385945 0.5678988077299847
1.9103762053416522 12.708249997063444 62.084261212800904 135.94263790642293 0.5789821964363526
1.917019216398204 12.68146894286802 59.41448958047695 143.46759241736302 1.872488028235161
