M[M_sun], R[km], Lambda[1], P_c[MeV/fm^3], rho_c[fm^-3]
0.23841724892012095 16.20908015294055 2780876.1263280716 3.453507347168396 0.169602847481901
0.24840522984648422 15.86651682691116 2282713.5837493115 3.6353936702561787 0.17197649580268162
0.258677699007639 15.563408181928628 1882182.0191569477 3.824447620082249 0.17437101397840682
0.26923104168007983 15.294307841507631 1558987.2994274588 4.019752293860686 0.17676019610025126
0.2800732296630199 15.054746012390956 1296395.2663358946 4.221673356346787 0.17913692836378423
0.2911926220775949 14.840721884668792 1082050.4943366267 4.431563093928681 0.1815374775355007
0.30260063017982336 14.649530184350828 906443.955410985 4.649768546709521 0.1839657407827023
0.3142915505611891 14.478043362403955 761827.7887493374 4.876622188522482 0.1864226845077542
0.3262642177918333 14.324208979141334 642403.7884952289 5.109471966573433 0.18884934107388773
0.3385206179880283 14.186066724477653 543234.2412200099 5.351536968118192 0.19129845686818492
0.3510574830855148 14.061733092834531 460717.5329735655 5.603287235066055 0.1937774897278153
0.36387989416478334 13.949974696809646 391783.32754083804 5.865134339936283 0.196292139287376
0.37698682212848433 13.84921648659926 333970.12993138575 6.133864702148393 0.19878062914941222
0.3903783056759034 13.758642117384126 285405.28624639206 6.413105874292111 0.20130106801813058
0.4040472730534576 13.676963991779195 244467.7260077272 6.703570676546676 0.20385628375536657
0.4180017207142933 13.603545221788258 207264.6117756172 7.005207038117149 0.20643512977020945
0.43224214710714876 13.537419717554616 180533.42656022342 7.314924043704062 0.2089928595852633
0.4467636595992463 13.47809258005723 155616.56207791905 7.637166588519241 0.2115950791873403
0.4615733639174099 13.424747085337447 134387.4831422343 7.972467859599443 0.21424189687306544
0.4766513338318085 13.376961044666858 116288.25042192548 8.318692953207696 0.21689268428513367
0.4920314901217721 13.33433748134379 100789.24807769246 8.676188642773107 0.21954392432240194
0.5076811037806249 13.296272321966393 87515.38062508099 9.048264860228688 0.22224312044547778
0.5236125230877483 13.262238808970261 76103.76548827946 9.435524642863918 0.22499329981501737
0.5398210411239684 13.232255334505952 66296.09072244656 9.832287719071322 0.22771403319530106
0.5563067341564932 13.205634544074014 57835.008803116085 10.245238948216725 0.23048495667366878
0.5730698973845828 13.182268187197026 50530.42526470047 10.675090253868168 0.2333065927039054
0.590109010926877 13.161842084545151 44209.82055335936 11.118518260410484 0.23612787225413634
0.607420560271607 13.144101427339333 38732.247441497595 11.577008949042511 0.23897087784223364
0.6249987059678372 13.128826138982117 33982.23801308767 12.054313589559532 0.24187321183190233
0.6428483689321858 13.115773408858402 29851.896161997767 12.549687446444155 0.2448187282983025
0.6609534076480346 13.104627088298153 26254.637280352264 13.058934100231797 0.2477483599765437
0.6793346942777687 13.095487376071324 23120.149013851205 13.589104474762765 0.2507366297056978
0.6979552692613583 13.087972036675767 20385.74668513012 14.141101438850967 0.25378503323190577
0.7168529167322253 13.082118106292755 17994.083285002223 14.708362424471911 0.25682408702298565
0.7359852846971308 13.077555143226483 15901.111099814305 15.297569534085591 0.2599169822043684
0.7553690640606673 13.07429779879418 14067.66020958908 15.91098814900667 0.26307604898979436
0.7749916141702349 13.07209653107615 12458.088015426947 16.54502795311663 0.26625356064229494
0.7948524405203253 13.070953063646314 11044.511671276916 17.200142517226553 0.26945114134144793
0.8149488738620575 13.070719714148767 9801.11538977632 17.882252315058032 0.27272034087832087
0.8352665148563397 13.071286355849056 8706.71759320032 18.591253657132114 0.27605312066192944
0.8557940977790977 13.072584524745235 7742.722613679044 19.32017581566828 0.2793824013955567
0.8765476452647332 13.074424745060105 6891.327434571827 20.07906865534135 0.2827828284166014
0.897500306142257 13.076744143987446 6139.155880964622 20.86918036398534 0.28625555701897004
0.9186582116686782 13.079622325728078 5474.763673101497 21.68420028579011 0.28974290157351035
0.940001151508684 13.082761398794196 4886.43037001667 22.529200087165925 0.29328469504627946
0.96152124843095 13.086129877833704 4365.071616233038 23.408929129701036 0.29690974574651274
0.9832218248556044 13.089850574849567 3903.342631029609 24.322765153132153 0.30060421854072794
1.0050978807708701 13.093647956573507 3492.947057135038 25.26439203072203 0.3043020169119219
1.027118559704695 13.097479222816796 3128.407926393334 26.244765892382613 0.3080857793622038
1.0492961804988261 13.101473538288296 2804.624414944195 27.265376868530865 0.3119575643646551
1.0715921322539042 13.1052061090168 2516.198404094758 28.321251577928702 0.3158759466822047
1.0940094953492474 13.10882784076811 2259.4470057205613 29.414967604618187 0.3198516890331087
1.116550656667345 13.112345799027588 2030.4740338826748 30.553571344364407 0.3239169628173606
1.1392074794305755 13.115708716024082 1826.1249955021763 31.738907174062554 0.3280713592759046
1.1619446900244934 13.118751125246078 1643.7177867699036 32.96381156950661 0.33226690114671
1.184753184356149 13.121508570089416 1480.8059256305921 34.235804781037146 0.336545494291391
1.207633559711174 13.12379550613577 1328.9394926850212 35.560118512986236 0.34092946450899275
1.230558094962076 13.12567710476997 1204.4776725559143 36.93876731511777 0.3454185252350293
1.2535425893871266 13.127213312479498 1087.6008220531085 38.36620295274315 0.3499572179673358
1.2765313679551589 13.128137748428335 982.8434697637242 39.848217668492666 0.35458486243037
1.2995338265362004 13.12850384680184 888.8006144190675 41.39146338839944 0.3593292442946035
1.3225342941825229 13.128337539082345 804.4065562162931 42.998385426418196 0.36419258399744797
1.3455263809288187 13.127533912233737 728.5392844288248 44.67009445837116 0.369169157302226
1.3684666246049026 13.12601774619717 660.4164952220019 46.400998209390764 0.37420355920031034
1.3913511667778857 13.123802132162243 599.0914224436113 48.20404207609356 0.3793690314500798
1.4141897822890053 13.120875723887595 543.845882114657 50.08223435420793 0.38466933357768557
1.4369145961105985 13.117063664801105 494.09075797191014 52.03874969343995 0.39010738709641274
1.4595715239355853 13.112590556397059 449.22482195157863 54.076957754500775 0.3956853005892332
1.4820743552856737 13.10712507494988 408.7720955898673 56.192555254655 0.4013578613678534
1.5044703815778293 13.100837591576594 372.20190861908793 58.39574376461163 0.4071764949333374
1.5266777076962958 13.093657763117228 339.28754112205786 60.692398680539974 0.4131551397092674
1.548723466423034 13.085330400386042 309.33825274834004 63.08674740569565 0.4192970970266661
1.5706009210110312 13.076249418378728 282.3289364860264 65.58328333110614 0.42560347865952236
1.5922408968679074 13.066069701794646 257.8872910485729 68.18683906942684 0.43207843390846035
1.61366496524943 13.05482804553758 235.7341620079087 70.90243269246554 0.43873761666631567
1.6348288286270733 13.04250349632114 215.65346461926083 73.73421531394558 0.44558303480379086
1.6557253321270813 13.029141171931798 197.4559077301787 76.68513856816992 0.4526055395560502
1.6763420353481728 13.014576789832333 180.91242591999037 79.76608980400363 0.45982877015093593
1.696637511378409 12.998895980943173 165.9042797573998 82.98369383941947 0.46727146118885965
1.7165970646512654 12.981928633327064 152.25203441269588 86.34496554113721 0.47494478344849905
1.7362299048150511 12.963878436409647 139.83803593562254 89.85737934251415 0.48285395239549334
1.7554813526278557 12.944521875282387 128.5411919146927 93.52893879775463 0.49100626449109
1.7743515781942685 12.923979287374852 118.25481033462461 97.36823996210933 0.49941983782273003
1.7928252415890313 12.902234789599863 108.88722513065083 101.38445384024122 0.50811122183231
1.8108380421954786 12.87898263822088 100.34051046228556 105.58739616082366 0.5170881900337443
1.8284138449397673 12.85440031768869 92.53756126621694 109.98760771413832 0.5263627104952845
1.8455298427960285 12.828651259430957 85.42394332418307 114.59641277295722 0.5359576984873969
1.8621209880596592 12.80142135891374 78.92950655175957 119.42596305910388 0.5458933318444956
1.8782475242248535 12.772939390817957 72.9848182572654 124.48928070551477 0.5561783988269451
1.8938283751316027 12.742979336670063 67.54804583539668 129.7958067637356 0.5668182095061246
1.9088441795363529 12.711505113628373 62.57347655591558 135.36465490862454 0.5778575417250988
1.9222623068786224 12.679355833293299 58.25906080308567 141.36555592086015 0.7478856992206065
1.9326604810411474 12.645243654541437 54.7217506568252 147.95665296344436 0.924380611534742
1.9401556511659175 12.608032098561678 51.78324205300952 155.1857010907116 1.100585794506317
1.9449280219238718 12.566814675772063 49.29958166210115 163.08810572829745 1.277026473357773
1.9472984866779741 12.521912084073962 47.18033564424223 171.71074355758302 1.4533183743055555
1.9474631003771017 12.472803556517938 45.34215142241948 181.086167775029 1.6302338714952498
