M[M_sun], R[km], Lambda[1], P_c[MeV/fm^3], rho_c[fm^-3]
0.23841724892012095 16.20908015294055 2780876.1263280716 3.453507347168396 0.169602847481901
0.24840894452607828 15.866389194118536 2282546.3078149897 3.6354536439100853 0.17197725869024152
0.2586836911490729 15.563242746820702 1882025.227370555 3.8245709792869467 0.17437252304422038
0.26924144202572103 15.294022068864171 1558604.815285337 4.019951024525966 0.1767626271928788
0.2800889437462636 15.05438412070817 1296059.1113490867 4.221945482876727 0.17914011046135717
0.2912095021983583 14.840454383143788 1081738.2577614386 4.43191236063077 0.1815414074913562
0.302624142923421 14.649140253723814 906166.2185105367 4.650198895301572 0.18397040168329165
0.3143186595666192 14.477705836324164 761569.6774862981 4.877160243400007 0.18642851192381196
0.3262948462302493 14.323933953666192 642106.977373786 5.1101027404958925 0.18885591380733
0.338556460117846 14.185623743482056 542988.9556688366 5.3522648210852095 0.19130571946661998
0.3510982171969025 14.061368050671316 460480.4803473718 5.604116718980152 0.1937854619344495
0.36392787908201996 13.949647457355892 391552.3605688886 5.866070339268149 0.19630080680387488
0.37703830954583256 13.848870553296207 333763.9930049448 6.13495587125897 0.19879073356503196
0.390433297320196 13.758209036424343 285223.82813328307 6.414317605958751 0.20131186808894905
0.4041100585488707 13.676624885040754 244299.89031596875 6.7049083900385735 0.20386772056321567
0.4180723701397277 13.603119670729352 209701.65249433534 7.006737466394917 0.20644821419691642
0.43231802088847543 13.537101953103786 180389.83128858692 7.316596284463802 0.20900664439472622
0.44684483786643214 13.477747454981069 155488.872644027 7.638987178172734 0.21160955380410856
0.46165784932093745 13.42447753437458 134275.42792593266 7.9744435897161265 0.21425702356555432
0.47675482568536814 13.3767359351558 116177.54760705368 8.320916483354692 0.21690970819770622
0.492137284093334 13.334124867420202 100698.68987900087 8.678586060816686 0.21956156259092197
0.507786432085292 13.295932774283276 87425.79515206984 9.05084393190301 0.22226143611128604
0.5237277695291847 13.262077998982841 76031.39671231303 9.438293850027096 0.2250122891686583
0.539945999393133 13.232025565791545 66225.3198403522 9.835370347910361 0.22773517178325023
0.5564380748191247 13.205428570341352 57771.89500521103 10.248534483343082 0.2305067342535346
0.5732093360396701 13.182111203729514 50474.61463468001 10.67833611413037 0.23331875802181634
0.5902492101393471 13.161619385856989 44158.74596406509 11.120603203733692 0.23608584631111276
0.6071782440929826 13.14402676426371 38797.805041098945 11.590966622295959 0.27282637015996797
0.6219084155913129 13.127442046368095 34683.634304976644 12.09702528771137 0.3411690750060675
0.6346552752482078 13.109010354610634 31429.581548580423 12.651502749216332 0.40637899888963785
0.6458233719147705 13.087563565940938 28759.121063512575 13.255930955901508 0.46713256214209686
0.6557843947263435 13.06262708336189 26490.745642341346 13.907360252730747 0.5265372562041044
0.6648247154404371 13.033884782041909 24502.87606220929 14.608797822788684 0.5845447352237051
0.6731540368046158 13.001517449834438 22738.18365543276 15.358773894036402 0.6382884036449373
0.680956568523788 12.965548880684526 21132.102038512818 16.15777180244011 0.6895134635103698
0.6883902865171267 12.926089116396764 19650.932929238203 17.008943004248298 0.739276294730996
0.6955915409844384 12.88350235153663 18269.408502979983 17.908997572225093 0.7886361797299192
0.702634957432778 12.83771613276267 16977.720417818782 18.85711847880546 0.8320081313839253
0.7096834979537552 12.789086445880322 15752.76561345007 19.85983298771917 0.8743880511493872
0.7167907216757586 12.737927161581982 14589.90962634141 20.916678545855326 0.9171909046649543
0.7240071997373578 12.684569123249219 13490.106200157468 22.017656378539264 0.9572662753037233
0.7313955032288312 12.62921842528438 12446.872072833588 23.17628016759589 0.9966643100146944
0.7390015921497208 12.571933811909044 11459.483371272614 24.39535245843103 1.0356155474984172
0.7468673875762653 12.513331205009768 10527.41692218978 25.66532559388867 1.0739985233382634
0.7550050701759046 12.45343984640264 9649.330234228923 26.990828004944692 1.1117534560597349
0.7634594554837554 12.39259149805492 8824.980241982195 28.381399897054372 1.1492712944930406
0.7722354090543676 12.330940010041232 8053.835464161289 29.839822186468453 1.1863726785812412
0.7813630217321963 12.268800034320819 7334.516659380811 31.346521392881623 1.2226225794281682
0.7908470575332729 12.206451145469387 6666.312965932745 32.9238392473902 1.2592252035900215
0.8006897505908966 12.143954077749582 6047.857739462197 34.575099102738314 1.2961938317184034
0.8109091073622468 12.081537850154742 5476.884360025093 36.298342299869184 1.3332716208952922
0.8214819989023049 12.019370701940765 4952.448023576323 38.08145153354313 1.3694145552893873
0.8324335785920692 11.957583218503638 4471.0608211723 39.94612075978947 1.4060891579902108
0.8437445869138892 11.896343409325752 4031.6730834664786 41.89529787679352 1.4433375798659103
0.8554111847274077 11.835776510382312 3631.055070487863 43.92558686184428 1.4809209721925003
0.8674183034669777 11.775920713181058 3267.1351841437763 46.028409084414335 1.5184763868034352
0.879757827296195 11.716905890156301 2937.0896957463306 48.22529649361165 1.5567449244278941
0.8924116899873688 11.65880830805746 2638.869592287312 50.51975807792233 1.595749699342748
0.9053591206295971 11.601630213991417 2369.4982817684167 52.91499492304019 1.6355087777827995
0.9186012909180138 11.545328541176012 2126.5480432536633 55.391727100206936 1.675407902378189
0.9321140158357207 11.490151750018995 1908.1726568305785 57.97813007390777 1.716308304596122
0.9458561632689775 11.435914076064943 1712.2055527287562 60.678619237882174 1.7583477538331984
0.9598261229451136 11.382624412114067 1535.9867120858912 63.49790947241797 1.801819243097267
0.9740010336212582 11.330364312673584 1378.2708147655646 66.43342368718554 1.8473160675164408
0.988329081366005 11.279051601069893 1237.1142030048723 69.48454111039084 1.8981277351798167
1.0027799472185792 11.228646207510469 1110.8487787273796 72.6726088883494 1.9496045926909151
1.0173470667260076 11.179076692038885 998.0219975581105 76.00091194253602 1.9905936911009015
1.0321149260169737 11.130101391462617 896.4100736324555 79.4716537271356 2.01811351835767
1.0470794343198073 11.08186519348949 805.2519332497702 83.08717595101567 2.046652559699118
1.0622239020024609 11.034391707695754 723.3835304167055 86.8368640955005 2.0760900585111983
1.0775152663044678 10.987724714401724 650.0575791160742 90.74325919716489 2.1066113900388714
1.0928917017775592 10.941753956439724 584.4103787959544 94.81741949022518 2.138293584279827
1.1083483786697361 10.896593092920783 525.6889326518858 99.06745834999893 2.1711808307074305
1.1238463742430331 10.852037550090564 473.1803129259819 103.5021162255663 2.205316080026341
1.139373106562281 10.808244485472322 426.22864148411696 108.13090435638323 2.240752043954147
1.1548254599543721 10.764868132040213 384.3368369561903 112.9638245846463 2.277558843802253
1.1702466017158133 10.722138485564061 346.8613803702903 118.01168047615839 2.3157992436107375
1.1855210441170219 10.679645759594237 313.3283786877832 123.28325496511951 2.355513693879564
1.2007032500084052 10.637587421858868 283.37927826703236 128.789079621124 2.396717154442034
1.2156961568388733 10.595797460859332 256.57679603736744 134.54922321114512 2.4395801663022625
1.230500963172191 10.554159061468454 232.58292331838697 140.57815757042866 2.48419043933004
1.2450837605444427 10.512689382294143 211.09573104046765 146.891316485444 2.5306085175244895
1.259419921827262 10.471361123638655 191.8319821929956 153.50548757990975 2.578931563821992
1.2734376671845378 10.429819741637901 174.5460397439639 160.43877000265184 2.6292816035599875
1.2871722578122164 10.388279606893885 159.02237296326305 167.71042569164285 2.681725849461938
1.3005333682114413 10.346471247536705 145.07775316824848 175.34154477910155 2.7364048837991963
1.3135359227318155 10.304504796833086 132.53629724131764 183.35463125856077 2.793439949886882
1.326144530706054 10.262204499901646 121.23655014772493 191.7724319994815 2.8529208667590527
1.3383232669395249 10.219507292166648 111.05923665387995 200.6131996422115 2.914948665256263
1.3500579487657376 10.176396476411709 101.88860875539181 209.9128998198138 2.979693953474451
1.3613306696615006 10.132802867136803 93.59227099233063 219.70192759858503 3.047365861992037
1.3721016861917414 10.088711770904773 86.10272706653984 230.01366586950266 3.118102749775926
1.382354325318363 10.0439863153307 79.32834807688295 240.8836929376582 3.1921034386953253
1.3920928619247293 9.998686106561424 73.1877217136788 252.3510745778075 3.269576563743357
1.4012622103596726 9.9526397108532 67.62308629916325 264.4507930213548 3.3506403248343046
1.409868712595808 9.90596865017459 62.572743113091406 277.215052616969 3.435411418806311
1.4178796917488241 9.858530689007404 57.99626884784665 290.71100048507145 3.5243049499502
1.4252845134304009 9.810356324497642 53.829192472207126 304.99239623885404 3.6176098423137613
1.4320775254318865 9.761351080157562 50.03367873400925 320.10220532327554 3.7154157273038853
1.4382301411351006 9.711564806334675 46.57932983525973 336.09674940454886 3.8179937299497606
1.4437516588470507 9.660938481591158 43.42686009920438 353.06428893357116 3.92586416298141
1.448590542662692 9.609492281413509 40.56410326835699 371.0571788059016 4.039146751733612
1.4527739941167264 9.557169176213044 37.94360363286073 390.15689182900473 4.158239441929419
1.456275740235368 9.50398674306456 35.54947844026808 410.4660256043335 4.283688655250809
1.4590842917796634 9.44992918660342 33.308401796494145 432.0434479118305 4.415547073808963
1.4612125711462443 9.395026637491428 31.3594525239537 455.0332593693219 4.554715040683039
1.4626337835097285 9.339234895295204 29.52358064028874 479.5018628686289 4.701140465379836
1.4633471148045691 9.282622747861376 27.846727343953752 505.61196133563095 4.855858425603803
1.4633660257350203 9.225172356296266 26.308074194337596 533.4681490871812 5.019046384822725
