M[M_sun], R[km], Lambda[1], P_c[MeV/fm^3], rho_c[fm^-3]
0.23841724892012095 16.20908015294055 2780876.1263280716 3.453507347168396 0.169602847481901
0.24842756504808242 15.86584708738873 2281741.325320514 3.6357659835961496 0.17198123176917596
0.25871775391678753 15.562335559725671 1880939.3155097964 3.8252134731431275 0.17438038273751336
0.2692965813252353 15.29282245102626 1557169.1491070047 4.020986154737275 0.17677529004700715
0.28016242924739326 15.052908842219805 1294426.8048987149 4.22336300794128 0.17915668621774694
0.29130883395785245 14.838754292813675 1059457.9363612572 4.433731834880963 0.18156188025168715
0.30274301848642965 14.647275785356124 904476.5556261971 4.652440903290506 0.18399468380376327
0.31445859155402295 14.4757553656185 759972.8675950445 4.879857991210972 0.1864567382712958
0.32646046263776823 14.321914982857956 640627.0753377129 5.113389373342394 0.1888901608820005
0.3387481421717757 14.183627300988716 541581.4229993019 5.356057512983792 0.1913435633712209
0.35131366622419824 14.059504895141645 459197.41527999885 5.6084392449279825 0.1938270059227683
0.3641668438615068 13.947650972992465 390403.28065414506 5.87094820984039 0.1963459767331952
0.37731054465568326 13.846887576536915 332674.0912092833 6.140642842033649 0.19884339590285635
0.3907351365501912 13.756366259704524 284235.2740296936 6.420633281543366 0.20136815921796558
0.4044403860404917 13.674813791566628 243409.07065054044 6.711881078856127 0.20392733370360852
0.4184334369437328 13.60140340681374 208885.3549038842 7.014715303870118 0.2065164208755571
0.43271189679850525 13.535427690262765 179652.72343872246 7.325313829431169 0.20907850587499413
0.44727164743621906 13.476091784326346 154819.0886447001 7.64847857580448 0.21168501525861652
0.4621197205900318 13.42293642844186 133674.79663752412 7.984744318663734 0.21433588856735092
0.47725204201670374 13.375387102232748 115641.81720483447 8.332510105480251 0.21699847191864405
0.49266537132165344 13.332833293166466 100215.9412444284 8.691086969564099 0.21965353419588315
0.5083570834058554 13.29468121470295 86990.41526643356 9.064292699818065 0.22235694456152322
0.5243297657129578 13.26092089962816 75641.97263712251 9.45273478971876 0.22511131538611118
0.5405816274960722 13.230867507125415 65241.46042504565 9.85144708028447 0.22784541516283643
0.5571181261515507 13.204470029280497 57455.8849217189 10.265722390378995 0.23062031550933956
0.5739270363689872 13.181135754019289 50186.21173638054 10.696956703973022 0.2334457164570441
0.5910177464116984 13.160884182866303 43900.28699543206 11.142722452692423 0.2362818697277
0.6083764965394066 13.143274700355683 38457.307820917915 11.602759348538857 0.23912923026521696
0.6260066596055345 13.127943703174317 33728.59309202647 12.08168367015229 0.2420359556302523
0.6439022792620176 13.114989769005513 29625.43267600188 12.57984603025541 0.24499805266914845
0.6620722032065735 13.104045949063542 26051.276771399025 13.09090302136122 0.24793172414129028
0.6804988341179448 13.095100941411777 22938.492926293915 13.622966158484891 0.25092403028810545
0.6991756383281016 13.087585421046656 20220.9666102245 14.176945664807914 0.2539770657064528
0.7181279846389561 13.08177916681106 17845.290575411334 14.747651296601092 0.2570345739043648
0.7373200874767928 13.077258352251075 15766.08564019251 15.339077271285324 0.26013234539909175
0.7567555162988963 13.074126212678435 13946.26573822913 15.954821316993327 0.2632957203749989
0.7764355462865553 13.071990204045285 12348.52472426906 16.592936600280247 0.2664936564274983
0.7963481305511981 13.070874940826332 10945.407914928113 17.250648291891377 0.26969594759813004
0.8165100807798326 13.070772633778557 9711.539186588676 17.935483702309607 0.27297056394668134
0.8368851698962576 13.071355971018537 8625.617632723426 18.648479734214057 0.2763188375945311
0.857478101668743 13.072671972771323 7669.098725818085 19.381271694091144 0.2796610558744141
0.8782900612674918 13.074571145831122 6783.083197733404 20.143370416573187 0.28306656670231584
0.8992979202060098 13.07699902850839 6079.320058366381 20.936847107129378 0.2865450925774436
0.9205106167232604 13.079858309529323 5420.515872556488 21.757760106738473 0.29005765270308914
0.9419120740282594 13.083002432157016 4837.111238847693 22.606532590585793 0.2936062464039777
0.963499296439118 13.086539937555164 4320.767273497056 23.490234722446758 0.29723844946656175
0.9852560196892429 13.090154601393616 3862.704544438577 24.410182586670683 0.3009544507911952
1.0071903965470996 13.093965249018044 3456.249907274965 25.35709606190735 0.30466531525310964
1.0292704009238074 13.097821794946265 3095.121862520975 26.3421570125514 0.30845688262513477
1.0515077392640433 13.101773233074717 2774.283565871949 27.367709094833003 0.31233732228715183
1.0738623901652353 13.105503313907064 2488.6791355456594 28.43209189742335 0.31628727839051607
1.0963527997281188 13.109232578857902 2234.3860154218473 29.53136965850723 0.32027262773010184
1.118956408901948 13.112849754392485 2007.7575410256884 30.675835028731946 0.32434647187173815
1.1416529982647328 13.116005574845847 1805.410403078579 31.86735050969422 0.32851130331943396
1.164440173075717 13.119049971961052 1624.947720736494 33.10270660988163 0.3327426443636566
1.1873117490054244 13.12173799373468 1463.5939154798848 34.38166895098662 0.3370331920243965
1.210239921936364 13.124005265312249 1319.363893493347 35.71335069844567 0.3414298619634487
1.2332254156970408 13.125867438311152 1190.2254891593434 37.09977994789137 0.3459304830753105
1.2562495412190038 13.127336505159047 1074.6159152136727 38.54010024842299 0.3505101440476898
1.2792892836110172 13.128178587538468 970.9738295478163 40.03089840668913 0.35515274653515977
1.3023449458515666 13.1285519853905 878.011926657342 41.58344292412937 0.35991314349451325
1.325388612953456 13.12828089747396 794.5535502609597 43.20021284068991 0.36479341159533657
1.348407356363134 13.127357591173698 719.607695651054 44.883811186311526 0.36979435398863936
1.3714086315397973 13.125839624167734 652.1848464261914 46.629927846253665 0.37486886791479773
1.3943322541314012 13.123436037338193 591.5465901919364 48.44477577102765 0.38005469364742145
1.4171950359611405 13.120413343624941 536.955367913228 50.33548765863439 0.38537664646973147
1.439965173859659 13.116521003095244 487.7965525402615 52.30528394023744 0.3908373952065915
1.4626364078736294 13.111899529711412 443.49143032101733 54.35757250180716 0.3964377141316752
1.4851752790913206 13.106281272240897 403.4807225849595 56.494987841100105 0.40216877517727134
1.5075801329682337 13.099823929316084 367.37992577077796 58.71418781939631 0.4080150958788949
1.529826026533273 13.09243626150509 334.76457744950926 61.0278553553559 0.4140231958823514
1.551916465551845 13.084196693798013 305.2669463242395 63.43138105007876 0.4201483534670256
1.573777412747239 13.074813943188287 278.61086420909044 65.95903621939333 0.4265332350425427
1.5769371683277498 13.062255277525994 272.7028459532121 70.0067380256051 2.7527815333019086
1.5580641537176996 13.038573497072692 288.2046859309305 78.49498331123442 5.277926237843788
1.5317696009745045 13.006145871460955 311.69390183853744 91.1551477578973 6.5721125642001805
1.4982267940895801 12.958438610498671 343.5548459633203 106.05766748679189 6.971995331726369
1.4587663425641832 12.892265211325945 383.3913895598322 121.89635373567454 7.017713037264015
1.4163654245036001 12.809114845802238 429.1068070041367 138.27858831341464 7.061792951792569
1.3724784256382592 12.710881411142644 479.8545749946089 155.22163640322088 7.107147864314142
1.327948830101856 12.598119188660997 534.7889168262024 172.74718589101812 7.15383571943407
1.2832149820250418 12.471123270842199 593.3308463263224 190.87938878016107 7.201893678087914
1.239031494507578 12.330424983100967 653.4077000878498 209.64533840305918 7.2513613988330645
1.1955242305386953 12.175759409208126 713.8147462037095 229.07413988458993 7.302308950439196
1.1533874272143225 12.00790395896335 771.46708683 249.19647643044178 7.3547880272760775
1.1129090594136968 11.827229896231168 823.7539044233554 270.0462092401184 7.40885459874507
1.074462385192579 11.63423912257529 867.0541084907068 291.6585446353904 7.4645911379798795
1.0383889181530566 11.429982300647596 898.2283259772421 314.0716026189809 7.52205364036955
1.0048893133011012 11.215402918456263 914.7113658248984 337.32668745859945 7.5813382004539935
0.9742516909860807 10.992044071097663 914.1488540697399 361.4665517791674 7.642495876804724
0.9465687340745924 10.761369593277472 895.9046876692626 386.5245621548463 7.705618103399463
0.9219420036452556 10.525394080107201 860.9304364143395 412.43054952284143 7.7704066041506845
0.900437294105395 10.286128850349948 810.7907874734948 439.35860741928644 7.837352316578104
0.8819926941515386 10.046073210921705 749.2612316037878 467.3657943791485 7.906527596600891
0.866514720503441 9.807052827397193 679.8699782053181 496.51170273386 7.978057556691302
0.8538666608841909 9.571269127125628 606.7272146355323 526.8609442542659 8.052060836900061
0.8438887945750355 9.340679818499899 533.473003131937 558.2730866627232 8.128069502577619
0.8363483860850369 9.116681294256328 463.0003898668836 591.0181095076283 8.206774554627442
0.8310426309323676 8.900614136594614 397.6909092656423 625.1739554979854 8.288314990392884
0.8277547468626164 8.693539684908988 338.62728801840166 660.6791726152876 8.372435576966522
0.8262514364631588 8.496086738423296 286.4961424267273 697.6566344802508 8.459395343447197
0.8263197637108944 8.308475250257223 241.30548195113877 736.2992933141754 8.54963028886274
0.8277611937893002 8.130949015222917 202.66015844232535 776.4591481440656 8.642633407705015
0.8303644221235513 7.963399218553082 169.98288820839497 818.4531317860705 8.739165846635652
0.8339706571138846 7.805647945362309 142.61953543878167 862.2338659691519 8.838990742303059
0.8384057288959429 7.657092983127117 119.45987726958504 907.9947227553698 8.942512288884386
0.8435328928984185 7.517525318351379 100.58079382639269 955.7626556287559 9.049652864040086
0.8492051257299277 7.386397418316883 85.16106524774094 1005.7699299426363 9.160940981982368
0.8553317898908963 7.26310345288431 71.9469547349685 1057.9688039299137 9.276050850842621
0.8617815728651176 7.147153569519178 61.330155507744344 1112.6720635367246 9.3956853857104
0.868476626834919 7.0380639678122785 52.3848461379524 1169.9361086413558 9.519821012957692
0.8753262144522534 6.9351307898762995 44.92408465932923 1229.8806045162987 9.648576979706867
0.8822558513205064 6.838115761795242 38.68922689667649 1292.7550956638015 9.78243444137743
0.889203197674302 6.746475927818985 33.49349512816194 1358.722111440176 9.921594363278611
0.8961136852583048 6.659649092921547 29.128866869950073 1427.9608612606723 10.06629086623741
0.9029302538964112 6.5774041114905035 25.393265240656575 1500.6192564643134 10.216645546116677
0.9096110238538462 6.499241043551461 22.315915583657002 1576.9852782506437 10.373159805527436
0.9161159602857585 6.424849815474338 19.66848883599949 1657.2961281300795 10.536155269032738
0.9224088840640704 6.353929192160117 17.379786547658693 1741.8104858012043 10.705983916603522
0.9284525166695193 6.286107243645775 15.469889210303474 1830.810757717888 10.883028367633056
0.9342165330101508 6.221200317173536 13.785338456494623 1924.605541591605 11.067702406782702
0.9396964032994214 6.158887510193355 12.367726904423098 2023.4681441452205 11.260284214976364
0.9448467938442795 6.099000970352425 11.122784037037686 2127.8106578237644 11.461417114936651
0.9496635816454814 6.041213345702523 10.04167010926354 2238.035687644464 11.671644285118742
0.954117298208175 5.985497372443351 9.095718386272269 2354.580614450803 11.891560403574664
