M[M_sun], R[km], Lambda[1], P_c[MeV/fm^3], rho_c[fm^-3]
0.23841724892012095 16.20908015294055 2780876.1263280716 3.453507347168396 0.169602847481901
0.24838690827959548 15.867179198269485 2283471.004883215 3.635045978020324 0.17197207302594342
0.25863645185475037 15.564501677872192 1883570.3654689128 3.8237325108822766 0.17436226597415946
0.26916954069099047 15.295737088021761 1560579.105677885 4.018600353723991 0.17674610429831542
0.2799887358562701 15.056419888923502 1298198.2854241012 4.220096096234612 0.1791184847538358
0.2910884788884364 14.842611202025765 1083917.5975624428 4.429538872498194 0.1815147009558383
0.3024676923536554 14.651638479389533 908311.7073555453 4.647274580709956 0.18393872982504628
0.31413335073750887 14.480222704596851 763617.9330086821 4.8735043037633705 0.18638891618323838
0.3260799326606586 14.326453688024696 643997.0593589852 5.105817050212874 0.18881125644461502
0.33830925816201396 14.188278353045138 544785.9912657167 5.347319824164125 0.19125637773342957
0.3508162437097522 14.064050067381626 462145.04291388876 5.598481558075644 0.19373130215342868
0.363608008792029 13.95216713552476 393090.2450512002 5.859711900769922 0.19624192655822278
0.37668388725667123 13.851413329172434 335184.60778398963 6.12754387678619 0.19872209720793726
0.3900442221661078 13.76068017984036 286499.8994570665 6.406087096961531 0.20123851019752045
0.40368091334008904 13.678987321814972 245467.78791537057 6.695822632975854 0.2037900417042378
0.41760219329429105 13.605575160485117 210778.9404073261 6.996343571588128 0.20635935138852812
0.4318074094306018 13.539294797481606 181345.5132159135 7.305239836626548 0.20891302960349475
0.4462918699609107 13.479868132843595 156349.96339513114 7.626623872785682 0.21151125921744912
0.4610606542152373 13.426489029151345 135065.58958672002 7.961027393458054 0.2141543057533123
0.4761029784736032 13.378621272208493 116892.7331358668 8.305818761005968 0.2167941161938575
0.4914455501120378 13.336014658653339 101338.92809836546 8.662308401674018 0.21944180470238664
0.5070512731172067 13.297603095249448 88003.53635771129 9.033333705670692 0.22213708460330303
0.5229414205471665 13.263646376814577 76552.20559416871 9.418859404263909 0.22487495339781324
0.5391091213568405 13.233427718068857 66691.46598884331 9.808912297164042 0.22751270533474358
0.5555617443774753 13.206873281546395 58192.549959504584 10.223183790977691 0.23030797366884406
0.5721046246362204 13.18344643910698 50915.63151686854 10.657061739138252 0.24985109015370105
0.5878954243784869 13.162684136784438 44933.22270330973 11.11107766422098 0.2822118944416535
0.6029320958733533 13.142682862552487 39936.25464895671 11.59252346872857 0.31393012798225567
0.6173756954242745 13.122688179994798 35689.983042446016 12.103079610836483 0.34533152600440253
0.6313388893767484 13.102142657874928 32027.89432872627 12.64271567668551 0.3756284153289124
0.644941160256415 13.080781731833778 28827.83093355647 13.210161138195582 0.4041738934469788
0.6582825564304736 13.058413298171953 26002.560097570422 13.808719824505463 0.4322209727475547
0.6714531893865354 13.034935821494258 23492.73849702461 14.439626649720738 0.45970954764422095
0.6845369267011981 13.010409928640492 21242.77507622761 15.096628243338246 0.4854884592528646
0.6975781882050799 12.984988833249973 19220.365848044537 15.786745973156824 0.5104880742288622
0.7106639834033869 12.958553556565697 17391.754447697753 16.5117041864445 0.5349300614389283
0.7238163418470271 12.931390491652687 15736.699915547459 17.265907666454044 0.5591195809994874
0.7370896207858052 12.903452016468433 14235.252197370131 18.052197802884763 0.5813626451204189
0.7505469348161137 12.875030556323917 12870.622468862384 18.87589512306968 0.60317443076328
0.764207109209651 12.846173216909488 11629.208717421503 19.73477814595209 0.6250440200358779
0.7780846142414825 12.816929380459975 10501.417653712391 20.62325330431744 0.6457803644677749
0.7922157918602443 12.787542615032686 9476.615124739865 21.55166196020625 0.6661197807224094
0.8066448328004278 12.758128243864634 8544.709329713789 22.521690675115092 0.6860825323163428
0.8213299176587229 12.728666526412223 7700.194580433697 23.523131125286774 0.7055116669049676
0.8363277885328239 12.699429218410776 6934.024575465077 24.56473566540764 0.7246630252398316
0.8516364308070338 12.670405007849627 6240.090486072382 25.65123865071037 0.7435732678619825
0.867271397264695 12.641693883090612 5612.463322775836 26.781295143704927 0.7618915475422349
0.8832248719960542 12.613294800268434 5044.94232688878 27.94585563106467 0.7797313208122261
0.8995112547858015 12.585437113568016 4532.6027952688555 29.159491570268248 0.7976421548350411
0.9161197841135826 12.557988067643208 4070.5819571485868 30.423763176812745 0.8156120341763143
0.9330475645011842 12.531159305072597 3654.965434383144 31.732617437590708 0.8333961547396913
0.9502932769456518 12.504867324418361 3280.480773804403 33.08634578612363 0.8508043024802548
0.9678541318544753 12.479115029397159 2943.6665382311076 34.49577538173363 0.8683284843923744
0.9857116911690952 12.454015721061738 2641.46737137918 35.962760577927774 0.8860141957969333
1.0038589076231232 12.429464617079143 2370.0651863254766 37.47989340900694 0.9036156549568843
1.0222873849801806 12.405525745207798 2126.696053536512 39.05096098946866 0.9212133230164418
1.0409734261914518 12.382141913383334 1908.5461571077587 40.68577820849739 0.9390166271631245
1.0599171327520516 12.359350147099137 1713.1460745422025 42.38655315247723 0.9570280997801772
1.0790933596496948 12.33711629003503 1538.015631085656 44.15044461574491 0.9751431742499108
1.098482085111921 12.315285329137145 1381.180865998024 45.974067606630605 0.9932719992708159
1.1180789323739388 12.293989098794492 1240.9034352915678 47.87138923743561 1.0116819033065014
1.137847450835695 12.273083887197046 1115.3129532492599 49.84514399894047 1.0303846209456127
1.1577886484643003 12.252548063031208 1002.8760736817451 51.89821594327664 1.0493950084144563
1.1778495815354475 12.232339977826731 902.2554578836437 54.02496484464521 1.0685808793624765
1.1980379946290656 12.212425043221979 812.2472892151318 56.231481739515374 1.088030551410992
1.2183296972034818 12.19266911570096 731.58151444546 58.52760973305 1.1078785513353655
1.2386813163088553 12.173123837422793 659.4458901660972 60.917000381507705 1.1281462091794967
1.2590910931793073 12.153671838210832 594.8224296067378 63.40353192233933 1.1488574522211352
1.279518491351998 12.134274653172234 536.89446805916 65.99133772589327 1.1700388006009181
1.2999657250455885 12.114915799637691 484.9937336274849 68.67468754710623 1.1915790314799568
1.3203838870654163 12.095474393187846 438.4657524495337 71.46737418620016 1.213645576972243
1.3407444785389795 12.075880010811275 396.7014409558603 74.3761860082741 1.2362950523025653
1.361023227681443 12.056101810261598 359.27638097261035 77.40645251678302 1.2595546050488873
1.3812254828926795 12.036113952845863 325.6143088294187 80.56386835986604 1.2834467472889814
1.401290099909171 12.015844809368254 295.4083806078609 83.85458784316612 1.3080110828922777
1.4212064036222467 11.995164177601021 268.2295504507424 87.28508130224853 1.3333109074803804
1.440942868715058 11.97411341261693 243.7844295927611 90.86231418338541 1.3593910736287669
1.4604794795443747 11.952542257266837 221.78990412323478 94.59373405498934 1.3862969636628926
1.479763107681782 11.930432144640609 201.97641946963412 98.48736372409545 1.4140391448831082
1.4988257048349112 11.90781250597685 184.11747499093931 102.54860146125259 1.442679702688246
1.517579248961751 11.884495957084743 168.01564225337808 106.79096768123043 1.4723288871798696
1.5360362636791425 11.860526887277038 153.47016942885713 111.22428898293526 1.5030195823491594
1.554148117625468 11.835797162825832 140.34041040555783 115.85920665643091 1.5348276188568357
1.5719054078683348 11.810300104095425 128.45963670169698 120.70718765038713 1.5678447366123975
1.589267274563457 11.783937573479758 117.71779799633195 125.78040563181081 1.6021104669931336
1.6062183993830013 11.756719190706178 107.991980552058 131.09039732152587 1.6377193084762265
1.6227315105204618 11.728580388010483 99.1786136700907 136.64955877873422 1.674737671794703
1.6387864921420578 11.699431230332179 91.180793014691 142.4753560043761 1.7132709484832067
1.6543475759601145 11.669337490539437 83.93738183659096 148.58409471799686 1.7534380904066584
1.6693926637478167 11.638087902061077 77.34639559141912 154.99359317522533 1.7953316628031601
1.6839120839524488 11.605864083196117 71.36185694571465 161.72279296280664 1.8390829109265423
1.697865643748765 11.572468107649195 65.91730561826522 168.79244384590532 1.8848166337945023
1.7112433320117675 11.537932258668992 60.95924751805404 176.2246178948176 1.9326661561618454
1.724023142568529 11.502224680724808 56.443106626230666 184.03988051614547 1.9827657283362834
1.7361689632653137 11.465262179020346 52.324957847158196 192.25437029834072 2.0351864112326097
1.7476747635654328 11.427126297009105 48.56777922626435 200.90771994031576 2.0902154953969796
1.7585125067093526 11.387632918934298 45.13602801599736 210.0302860589385 2.1480407887428417
1.7686657129595875 11.346887867610688 42.00113652820572 219.65115411485152 2.2088538953969423
1.7781350789658494 11.304868113927222 39.132491997636855 229.79005279697355 2.2727671178813758
1.7868783779965596 11.261534867932324 36.50906624559183 240.50322630930052 2.340187371808341
1.7948827157411198 11.216848072093018 34.105611142754945 251.8283119836635 2.411375001694087
1.8021407975821335 11.170816866646648 31.904224432769063 263.79047279818343 2.4865444096803975
1.808633675099866 11.12343230962644 29.885411937311364 276.46122134843046 2.5662308563803164
1.8143429138668121 11.074680834054783 28.03415703301821 289.87228437682006 2.6507979390854115
1.819278445484936 11.024588828835036 26.332216246688727 304.0912331344958 2.7408637998470136
1.8234141229163323 10.973131969068636 24.769988232047048 319.1716352163749 2.8372077814163204
1.8267350177173944 10.920326558385336 23.334314298546666 335.1836693062722 2.9408699620463215
1.8292526640336984 10.866176206110978 22.013661078956833 352.1912725842289 3.0535466162884584
1.8309480747847084 10.810716173163513 20.79972347517696 370.28588037805497 3.177716896761768
1.8318190260354918 10.753887354054708 19.68205392047765 389.52494181211875 3.319797796349553
1.831883856664264 10.695786500213979 18.649838994480717 410.02187183866243 3.4707145383041524
