M[M_sun], R[km], Lambda[1], P_c[MeV/fm^3], rho_c[fm^-3]
0.23841724892012095 16.20908015294055 2780876.1263280716 3.453507347168396 0.169602847481901
0.24842724403136954 15.865876799375684 2281791.882053213 3.635791828938827 0.1719815605317096
0.25872314599348956 15.562149275318419 1880741.3691311844 3.825266641353437 0.17438103314968764
0.2693017262457456 15.292631495319911 1557012.6588424044 4.021071820587415 0.17677633800614528
0.2801689724193884 15.052742387918817 1294339.1770963473 4.223480327528736 0.17915805808830507
0.29131585179447766 14.838466397161252 1059256.6436584052 4.433882430352675 0.18156357475492013
0.3027524042746671 14.647118954271399 904368.4341227921 4.652626482201574 0.18399669372054225
0.3144700224049799 14.475618397699293 759875.1074811042 4.880080330684362 0.18645905507299013
0.32647417030259807 14.321769644639765 640482.3759327328 5.113661454069871 0.188892995993017
0.33876229470154334 14.183504247886582 541437.1126779319 5.356371504686779 0.19134669641560495
0.35133325445859287 14.059304221704599 459081.76658132306 5.60879712011588 0.1938304454770486
0.36418829877463155 13.947418035221238 390270.99513254454 5.871352084907291 0.1963497166865121
0.37733295975039105 13.846793810581222 332598.46547742037 6.141113742180725 0.1988477565200653
0.3907593228363018 13.75613685254096 284140.54153773905 6.421156267255471 0.20137282054925143
0.4044678141922501 13.674676942952486 243326.70749707904 6.712458498996081 0.203932270368469
0.41846339487678097 13.60124465030762 208827.1792623727 7.015376010460018 0.20652206959956199
0.43274448056568515 13.535280207194926 179594.3287185546 7.326035831944464 0.20908445757005928
0.44730553447144744 13.475963395315931 154764.4814696339 7.649264707492607 0.2116912654066898
0.4621567263734288 13.422798872981378 133616.53301420834 7.9855975234694805 0.21434242092043782
0.47729184607786146 13.375282174423715 115600.72021920091 8.333470471902466 0.21700582472833338
0.49270636459423633 13.332606411791195 100167.26220846934 8.692122538738996 0.21966115307871706
0.5084026767578046 13.29459113905697 86952.12531301507 9.065406838741382 0.22236485678683537
0.5243809018492405 13.260803907670415 75607.90024614523 9.453931175660555 0.22511951939339597
0.5406354704473146 13.230821849642814 65844.25975293094 9.85277908820721 0.22785454917412815
0.5571733464907347 13.204391621171558 56898.014595126995 10.267146523687007 0.23062972647771515
0.573987281426353 13.181134232911054 50163.72734435173 10.698477067793796 0.2334553896650805
0.591082168102625 13.160802242782346 43877.5030000677 11.144405513456581 0.2362925780836127
0.6084404261789741 13.143103194926615 38434.75456972135 11.604550013411785 0.23914024198258543
0.6260795842725952 13.12792292119632 33712.448408647186 12.083587058107703 0.2420472732653812
0.6439784994604736 13.114895707728351 29608.894341781364 12.581943535538834 0.24501052453512365
0.6621493680426475 13.104037762038907 26036.98096334714 13.093126539496108 0.24794447757591362
0.6805803597177632 13.09505715281489 22927.396391543156 13.625321433128413 0.2509370650752574
0.6992609564993089 13.08752482966892 20208.503987031327 14.179438952132433 0.25399042328698085
0.718217051712569 13.081773856036895 17834.343772313034 14.750384452780903 0.2570492165624365
0.7374105547494434 13.077311387060615 15644.623499080457 15.341964916819762 0.26014732796883605
0.7568538480979887 13.074104432468825 13937.00026325159 15.957870879046514 0.2633110033570707
0.7765338671638593 13.072015418980339 12341.130759990192 16.596270029807545 0.2665103620208965
0.7964510935316601 13.070877338067858 10938.39756844208 17.254162585180353 0.2697129817093909
0.8166197152378526 13.070831437796807 9705.623289751145 17.93918781574946 0.2729879757534805
0.8369968067964458 13.07135815352377 8620.151131948161 18.652383370639352 0.27633664183602524
0.8575914585433846 13.072689959786095 7664.005576972062 19.38552367872183 0.2796804489102777
0.8783985154956371 13.074588145460064 6820.340557302624 20.147845716063532 0.2830863144320999
0.8994189709378269 13.077005936149316 6075.366999200113 20.941556814652614 0.28656524468961314
0.9206443572650054 13.079914732653233 5416.576244743369 21.762880510174025 0.29007956211973074
0.9420472218311934 13.083107956373889 4833.887653267891 22.611915846976913 0.29362863017955526
0.9636376347944751 13.086571829454256 4317.869005337864 23.495894808190297 0.29726133216351863
0.9853990464854353 13.090169574804419 3859.7587073729956 24.416222312357345 0.30097788379435914
1.0073416614378332 13.094040672528081 3453.70646907528 25.36634193199652 0.3046942376739849
1.0212678776321238 13.091540106688209 3210.1377859274803 26.709470953626372 0.9523231477660756
1.0193822951947384 13.072101558077765 3198.4680672131853 28.199538573817385 1.7328561530247308
1.008038397482783 13.041794528265758 3320.925722837088 30.569332851790282 2.6178820423104074
0.9916245562415732 13.003035952810228 3520.7421988553924 34.23160054820221 3.56818372463199
0.9710335759004486 12.95358389144916 3792.287565525417 38.880002431416315 4.11767684691021
0.9474659844860576 12.891970542354 4123.693382490127 44.0235393098575 4.394510299427054
0.9211417673930815 12.814869489871656 4515.106772290095 49.58264015123059 4.5039334117353045
0.8932108905986317 12.72205735288259 4950.845551852999 55.415388729706905 4.53142288528494
0.8648356080701108 12.614370605676731 5408.541735709321 61.29944088126709 4.557545994059914
0.8368253482668052 12.492579969756578 5864.013333321397 67.38682147719358 4.584525400988469
0.8096802240774309 12.357173064628853 6293.609704904049 73.71439931401912 4.612524449526264
0.7837922484188921 12.208405516876887 6671.534631684122 80.27835572204383 4.641521720996653
0.7594743343169875 12.046716544049122 6970.595817296288 87.03136476748945 4.6712979254090365
0.7369721543600741 11.872660728950441 7164.423738579053 93.93010710859114 4.701651006050262
0.7164875266166306 11.68702991931656 7235.275751959651 101.09135664750995 4.733103406482702
0.6981912738274408 11.490907656720607 7168.318067889796 108.51629667066723 4.765654334779831
0.6821721442852134 11.285815136034678 6963.262284713349 116.2088643079876 4.799315022452715
0.6685091365261573 11.073533327401748 6631.958246756608 124.15712184661203 4.834024320267582
0.6571953896706072 10.85601664356971 6192.303253434742 132.30017289683664 4.86949844006538
0.6482353094808275 10.63565722037273 5673.396676773399 140.74403889979007 4.906209548271384
0.6415500400368661 10.414650374979056 5106.248347565807 149.49589655220865 4.944181630888255
0.6370414372798241 10.195252458969362 4523.552432694735 158.56451822509308 4.98344531147974
0.6346075596577062 9.979569549573386 3949.296554146947 167.95979884976893 5.024035668073997
0.6340968033483532 9.769506935040184 3407.7916866568585 177.69289972617906 5.065992839331221
0.6353678073836885 9.566445847701388 2910.8090946391544 187.74966511988325 5.109241293509476
0.6382708985818967 9.371567940548456 2466.731227095649 198.14171295526083 5.153817746202148
0.6426421139898117 9.185847907825323 2078.3274381468113 208.9202617972338 5.199934142506073
0.6483329175548941 9.009638116080385 1744.2778025789207 220.10083486677806 5.247654674278684
0.6551930175160263 8.843344580315998 1460.6593319465787 231.69994071441647 5.2970416402186355
0.663091715535656 8.68684413834815 1222.157101741005 243.7355144672038 5.348160591149438
0.6719100322396991 8.53990901065271 1022.740937214863 256.22672147923055 5.401070284160804
0.6815072024686286 8.402392022535208 857.2046919589446 269.1948911297752 5.455846226850185
0.6917843290698581 8.273711341729957 719.8802720452267 282.66237794589415 5.51258103795764
0.7026552094484156 8.153389774128136 606.1609816285388 296.6531811975469 5.571356426769603
0.7140052124475668 8.04095847083288 512.03990660491 311.1934179857431 5.6322577903030355
0.7257449770552021 7.935943315741918 434.13600800029224 326.31100317227833 5.695395066061693
0.7378156398199137 7.837685865680493 369.4515727355203 342.03559252140707 5.760871131389605
0.7501388750801765 7.745686657812939 315.54089334998366 358.3995608890841 5.828794533428646
0.7626429725166529 7.659534702985464 270.738689567448 375.4370972292292 5.899298887373321
0.7752752594747447 7.578636284881471 233.09283825660964 393.1851122815538 5.972504411972114
0.7879886683394816 7.502531190780082 201.41672888882366 411.68354134727053 6.048564636848919
0.8007238571916951 7.430824470463522 174.81633222846784 430.97453441042234 6.127609370156366
0.8134343726791855 7.363137545553328 151.99794196934212 451.10422438237 6.209829982049293
0.8260924072294655 7.2990564395559305 133.1286756266594 472.06768931513034 6.295109314269681
0.8386321558488466 7.238292572205981 116.80971885876929 493.95933088365877 6.38386385086343
0.8510346980471736 7.180440631669422 102.83539734801506 516.8415470157171 6.476291171863968
0.8632696331937253 7.125323721741037 90.83566007235746 540.7748596393257 6.5726151403715445
0.8752885949519528 7.072586053212457 80.48099008786221 565.8251574620663 6.673063379637308
0.887072408557847 7.021978221277561 71.45218399142541 591.9793434816871 6.777483828108521
0.8986129970399607 6.973283710809014 63.707370879316144 619.3810462148281 6.886456259606084
0.9098378387961346 6.926315557766951 56.98412877267076 648.1204974217629 7.000300981462421
0.9207759169989141 6.880903358125372 51.171462105725766 678.2268168971035 7.119039785058467
0.9313537543280443 6.836851609597091 46.01583936645618 709.7942932253115 7.24299469003827
0.9415893191676795 6.79393775868279 41.447730100647206 742.9776545911358 7.372752084472694
0.951444638479454 6.7520640669615455 37.51553844003139 777.7756058598413 7.508161945459168
0.9609035841599356 6.7110899857109345 34.00633468618801 814.3923067264031 7.650013154676956
0.9699491583862009 6.670896287237038 30.898204614998164 852.8898945984988 7.7984291594142645
0.9785628079300308 6.631374196978837 28.14108866750903 893.4292427206566 7.953967060496122
0.9867323141137151 6.592393178982511 25.699228605333033 936.1197142391659 8.116908880001604
0.9944355305215351 6.553837349254998 23.514066700543097 981.1586529662344 8.287980939899283
1.001672948412776 6.515696615748398 21.571511784629152 1028.6335268683565 8.46729145609235
1.0084176689839377 6.477821265574841 19.8318964745415 1078.8058336296256 8.655803471099103
1.0146746088440222 6.440172621104238 18.2729795580251 1131.822178180081 8.853886366371027
1.0204018899137584 6.40262904810504 16.875807377996203 1187.8834049799336 9.062120531157321
1.0256314733821628 6.36521487571672 15.620282801683954 1247.2576018811958 9.281397715716789
1.030322225189708 6.327823490521143 14.478401488469801 1310.1882152446578 9.512419443722226
1.0344717023414736 6.290404354625491 13.470706664923625 1376.941895041486 9.755953430268535
1.0380794400927027 6.252929103733716 12.539852702267007 1447.7933269145933 10.012737780565663
1.041138934482403 6.215342346637366 11.71843312180587 1523.1044436658615 10.283907128385163
1.0436442331311209 6.177648059457821 10.966860381236183 1603.2352632997856 10.570490762326274
1.0455837681762585 6.139793675552997 10.285981543301274 1688.5835319702683 10.873620324271805
1.0469620901401955 6.101785429017227 9.6693968983298 1779.588468726252 11.19453363927424
1.047761810190627 6.0635563277879 9.110941387558414 1876.7357549368683 11.534582781447059
1.0480009997711008 6.025152603186787 8.59606588877186 1980.5326330081741 11.895079266377255
