M[M_sun], R[km], Lambda[1], P_c[MeV/fm^3], rho_c[fm^-3]
0.23841724892012095 16.20908015294055 2780876.1263280716 3.453507347168396 0.169602847481901
0.2484202021348509 15.866051328058505 2281805.6572249033 3.6356540042887096 0.17197980735003446
0.2587049731943042 15.562731914337705 1881376.1033498005 3.8249831189412054 0.17437756479091598
0.2692775143861723 15.293174486683226 1557741.4398149133 4.020615013057567 0.17677074983274255
0.28013660770797927 15.05339959714219 1294974.0865072093 4.2228547414152615 0.17915074282928276
0.2912735484867774 14.839408816005246 1080761.8687563865 4.433079422478718 0.18155453929440418
0.30270153819397466 14.647942172318517 905101.7752007013 4.651636954219962 0.1839859766143686
0.31441007602922416 14.47641232194797 760574.9373108916 4.878894813561596 0.18644670185456788
0.3264009287549568 14.322641828601624 641178.0707327762 5.1122107494843485 0.18887787949215257
0.3386789892589692 14.184372585736218 542080.1616921542 5.354697366041222 0.19132999167267162
0.35123904027942754 14.060161751693833 459671.6486449016 5.606889037835087 0.19381210681374356
0.3640776734817082 13.94831626789475 390793.21851989324 5.869198782603808 0.19632977673291696
0.37721321644787514 13.847635905498676 333087.5985562934 6.13860314809141 0.19882450798243256
0.39062751851773775 13.757053176591318 284575.256204102 6.418368027249811 0.20134796918128853
0.4043217831722848 13.67541344829899 243715.94564174037 6.709380098694846 0.20390595152445565
0.41830399737111956 13.602007268469473 209180.09759131484 7.011853670509665 0.20649195528477382
0.4325716823280331 13.536013558696167 179912.6985331373 7.322186774749132 0.20905272857425508
0.4471195864861605 13.476649510083963 155054.68190195964 7.645073838086004 0.2116579458563617
0.4619538568879768 13.423489752769953 133891.14934691053 7.981049157222463 0.2143075974711395
0.4770700842674864 13.375864486991713 115833.55735284976 8.328350962554111 0.21696662846212647
0.4924728998017703 13.33326354882901 100388.68192482654 8.686602222451294 0.21962053904343912
0.5081499488067546 13.295085125633308 87146.23847274105 9.059467777618039 0.22232267965006441
0.5241156334347964 13.261365105859632 75779.94437052032 9.447553778617738 0.22507578750891827
0.5403530554521226 13.23127034016183 65998.42937417941 9.845678930864777 0.22780586108734477
0.5568699874036749 13.204773725605971 57569.20534248478 10.259555407469799 0.23057956280676264
0.5736711248645227 13.18150332621211 50289.83561275546 10.690373123225458 0.23340382888689434
0.5907453878982731 13.161139417996079 43992.48487227836 11.135434583061455 0.23623550116899095
0.608090799675723 13.143554081287514 38540.52966260761 11.59500567002748 0.23908154891644856
0.6257037417525613 13.12818266037803 33805.05471196994 12.073442031803141 0.2419869504574315
0.6435849573731461 13.115194546962053 29692.336582245058 12.570764163216655 0.24494405145665704
0.6617409590559413 13.104304759018552 26113.34992988652 13.081275696572979 0.2478765046873277
0.6801466805587039 13.095232991626052 22993.83440168493 13.612768523395156 0.25086759355652766
0.6988067869236851 13.087677327889722 20269.805811208786 14.16615064929303 0.2539192323040915
0.7177404051798056 13.081841138005894 17889.673265675396 14.735818131555892 0.2569711787017991
0.736920437319776 13.077403834296216 15806.239409683094 15.326575445371288 0.2600674795848999
0.7563409028145932 13.07413822351934 13981.704199535086 15.941618695184554 0.2632295549948934
0.7760021871549053 13.0720322258946 12381.088162943253 16.578505509026215 0.26642133453174227
0.7958979202168428 13.070943907778073 10975.040050337544 17.235434442662925 0.2696222046349925
0.8160364656223494 13.070705570180978 9738.101168347772 17.919448345912183 0.27289518706309474
0.8363973071293339 13.071327859923015 8650.15438306088 18.631580892597047 0.27624176303523773
0.8569698635579993 13.072638511414326 7691.2577149836825 19.3628654957269 0.27957710635530847
0.8777694624682428 13.074583789231811 6844.793276218871 20.123997822817994 0.2829810830944544
0.8987553922626509 13.076875623936761 6097.160172056775 20.916460128272693 0.28645785983895794
0.9199595109738555 13.079764557853014 5436.387217728261 21.735596135786192 0.28996281648947086
0.9413350162131128 13.08290148553898 4851.876500032823 22.5832312071703 0.2935093584055016
0.9629161553362151 13.086447815773711 4333.914746296846 23.465735468429894 0.29713940343956885
0.9846566309542698 13.090120708143191 3874.745897845155 24.384420371863023 0.3008534793735055
1.0065655360265435 13.093893715249983 3467.126754860489 25.329159433602413 0.3045558342457382
1.0286163721220907 13.097682455561412 3105.101936053086 26.31280704316914 0.30834504625457243
1.0508442742069248 13.101690353138554 2783.2671519061846 27.33686913846169 0.31222287429569623
1.073176709815545 13.105400380742529 2496.8886703397507 28.39868547293734 0.31616330615987787
1.0956386006390701 13.109062748697262 2241.8421371751483 29.496285901331888 0.3201457561626543
1.1182348560292645 13.112643704145341 2014.4499830501297 30.64961116563888 0.3311189344886457
1.1345628658057176 13.110776320478303 1860.5013882991373 32.11960971118098 0.6941985494576439
1.1402378334561631 13.095932396538982 1792.4257963719447 33.69455536930042 1.083199385466108
1.1376639477499453 13.068619284599643 1780.305559987352 35.73437878369733 1.4674779732212286
1.1301570361487223 13.030513268189974 1797.1760131824 38.380006323951065 1.8442241817175862
1.119388827302688 12.983441117758039 1831.6479025992462 41.52027572237011 2.22455504975059
1.1062985565294128 12.929246895191996 1879.2341012634884 45.15828989086281 2.630940494367426
1.091317959964226 12.868048393919862 1937.8118486623364 49.25917403085226 2.984920622759677
1.0746273102277017 12.79792771902181 2004.441464525932 53.78617763143914 3.221954315730184
1.056128273444055 12.714273808861261 2074.807871122841 58.62249683843307 3.2441766317886387
1.036871997795359 12.617081187110998 2138.83397631063 63.5243383743089 3.2622804467406064
1.0178445930495437 12.508717035286825 2188.1500514444188 68.61077182502018 3.2802281797973825
0.9995190150794797 12.390206618956482 2218.2432033775285 73.88065640212851 3.298460100210298
0.9822953513114476 12.262910701969307 2225.3970324949314 79.33478430817824 3.3172508572463246
0.9664404112869839 12.127886347065221 2207.0272273566356 84.97572836781232 3.3366357519604124
0.9521561627022689 11.986226135450199 2162.3595169010086 90.74837228435266 3.3564115832819463
0.9395890188967876 11.8390916344009 2092.49270568652 96.70939857190484 3.3767766028526567
0.9288087377941519 11.68762760306429 2000.0030861354603 102.88036606869387 3.3978026624912334
0.9198961045503214 11.533083409736642 1887.7936851065563 109.26615314326328 3.4195013099832314
0.9128805519420096 11.37681837671515 1760.9302153234978 115.8726337212252 3.4418872937581058
0.9077224892347264 11.219708817854746 1624.0930568631693 122.7065520821748 3.4649776183515604
0.9044201670663878 11.063299748846594 1482.14929216839 129.77550891615246 3.4887901878147836
0.9028783646920197 10.908253095209972 1339.8290765270692 137.0676664481611 3.513268883944725
0.9030465019316527 10.755707090170588 1200.5995327285689 144.59980816755402 3.5384733770123282
0.9048436386427864 10.60662703635157 1067.7825129509524 152.40022954841356 3.5644967423205656
0.9081461426993953 10.461509673723898 943.6316965446407 160.4791287082327 3.5913664177979867
0.9128652001266871 10.320994825707569 829.4586235588439 168.84741908901722 3.619101463312815
0.9188839408640307 10.18536405499822 725.8137774823498 177.5173514248967 3.647739142543736
0.9261210866839719 10.055273208156107 633.1252401981984 186.50184493949854 3.6773195917886414
0.9344389525378687 9.930481441549476 550.7596529430276 195.81471889550932 3.7078740917612003
0.9437281816917226 9.811360893264295 478.47571167571556 205.47099748160645 3.739440247397209
0.953902734731608 9.697774433756576 415.2331522984315 215.4867798612118 3.7720681315488442
0.9648565752982112 9.589857297082924 360.32872795220607 225.87912068811693 3.805796511473565
0.9764864455435398 9.487075814116563 312.73861045637443 236.66659970345404 3.840676115634105
0.9887132181856471 9.389539249529793 271.61965477312054 247.86880518593796 3.8767634852584734
1.001435844266609 9.297014818325811 236.2299317804479 259.5068029673797 3.9141070664178663
1.0145867829389112 9.209096651255347 205.72742650531544 271.6033783674328 3.9527785362568046
1.0280909285212314 9.1255791928593 179.441644822028 284.1822097340789 3.9928227668916074
1.0418613792926172 9.046256512970533 156.88095808655524 297.2330229794846 4.0341989050560345
1.0558584772655517 8.970886743761788 137.4191937106264 310.81567143685766 4.077074502713559
1.0700038014517832 8.89912378058636 120.6235480951731 324.9594055102656 4.121543392303586
1.0842379265755293 8.830741244338599 106.14833863479826 339.69617931590767 4.167681201099711
1.0984977298116276 8.765491965270344 93.6234637946005 355.059751470179 4.215578119620012
1.112763607332977 8.703135321675344 82.771588643238 371.05993468281616 4.265235286888745
1.126970220451783 8.643308336182475 73.34630452159304 387.724541487145 4.3167104845019635
1.1410586469858406 8.586007772874202 65.16527158107063 405.12832153662293 4.370235961038157
1.1550034985245075 8.530892440735657 57.92786221954286 423.3160271556338 4.42592387813213
1.1687681520413487 8.477768050374713 51.819194036582125 442.26614245756707 4.48364756006276
1.1823072139641242 8.42641909424035 46.36283680667503 462.0858648623488 4.5437435381154705
1.1955989782223155 8.376732202609542 41.5167495423503 482.8281838396213 4.606343374334578
1.2085852105462893 8.328517540200513 37.38724914552551 504.4826422680582 4.671347601783828
1.2212608119648667 8.281626987269982 33.686918329091164 527.18826187675 4.739189189951937
1.2335909164527 8.235822594899723 30.43218909086091 550.9316452918729 4.809747763523735
1.2455453801924385 8.191121989006183 27.54536908550883 575.8445874545401 4.8834214473271595
1.257103294849721 8.147213946746193 24.989144858525208 601.9363432348963 4.960145371539923
1.2682311175519787 8.104137939481326 22.719549749667788 629.3517758923483 5.040369231237522
1.2789088703425684 8.061756391944337 20.702533143495742 658.0908049442122 5.123966994059595
1.2891318001124021 8.01985515687647 18.901195740755682 688.3125309768463 5.211410519302893
1.2988674801897087 7.978400426219476 17.294133265894164 720.0955961699082 5.302866640665052
1.308094397987051 7.937365995087202 15.83713057864847 753.5080429676219 5.398435332609348
1.3167828252791585 7.896629915351548 14.56640130350826 788.7041888840529 5.498537512945604
1.3249400999476337 7.8560387992440965 13.415014264250566 825.8003427545813 5.603427508973757
1.3325588278612461 7.8156108358509995 12.363289941599943 864.9243146646523 5.713389474492991
1.3395960534819313 7.775236187461576 11.426950595420507 906.2054904739784 5.828693781172916
1.3460472113319824 7.734892226167357 10.598997516749618 949.8095898060598 5.9497279923529724
1.351899352251394 7.694459329137909 9.838311173363255 995.9136434790813 6.076899414183043
1.3571599719957725 7.653932865822742 9.147386610917694 1044.7034320821433 6.210620255237388
1.361802224422148 7.61327053100625 8.52463969380853 1096.3828636752032 6.351340226718425
1.3657907251531893 7.572424195640097 7.962863739063611 1151.1737358165099 6.499539473882851
1.3691647280193868 7.531369939723247 7.448759211776542 1209.3048309195344 6.65568874473169
1.371889911177612 7.490013585577698 6.9799807908547855 1271.0609151058904 6.820442465188406
1.3739537308060685 7.448399662349156 6.565803970577611 1336.7403073885034 6.994445879541296
1.3753724187471184 7.406560240354824 6.1830773292066254 1406.6714101117352 7.178410863609207
