M[M_sun], R[km], Lambda[1], P_c[MeV/fm^3], rho_c[fm^-3]
0.23841724892012095 16.20908015294055 2780876.1263280716 3.453507347168396 0.169602847481901
0.24838324730963085 15.867293450769967 2283502.243036181 3.634988094184625 0.1719713367216615
0.2586304622568867 15.564688825318882 1883826.0103151468 3.823613468621339 0.17436080971796203
0.2691597994669921 15.295971592062385 1560951.8055767037 4.018408609136772 0.1767437586670979
0.27997396831587473 15.056683828167095 1298445.897353841 4.219833575203996 0.17911541497767489
0.29106951006708487 14.843070207861707 1084352.5031021286 4.429201983090356 0.18151091026954308
0.30244584978387223 14.651916028195634 908578.9191035737 4.646859541308269 0.1839342347310047
0.3141041411751851 14.480646350665907 763955.893362793 4.872985476979821 0.18638329701750647
0.3260491688603539 14.326811756914674 644321.7025432021 5.105208901002145 0.18880491946314998
0.33827605899695556 14.188770389718995 545066.5058994222 5.346618171251032 0.19124937656206736
0.3507763977205672 14.064418066975731 462381.9260304657 5.59768203599294 0.19372361791128292
0.36356172280800586 13.952479562157464 393321.98816249793 5.858780116827832 0.19623304312958775
0.3766333177202249 13.851725385705995 335370.05654410314 6.126492435268947 0.1987123606767368
0.3899890535021859 13.761046946932511 286700.99540425255 6.404919625677196 0.2012281046160733
0.403619847961704 13.679375448415513 245645.78586592228 6.694533935829829 0.20377902396260328
0.4175349166989303 13.605912227752599 210931.27109026597 6.994869480599219 0.20634674861858196
0.43173393910690494 13.539663434166904 181492.46007359208 7.303629341143896 0.20889975377987913
0.4462164628769227 13.480242220442245 156480.46945235954 7.624870706026878 0.21149732064709867
0.46097532117108925 13.426790971416533 135178.27019628984 7.959125044233819 0.2141397408836074
0.4760208484050116 13.379037892393756 116990.02090231123 8.303678200184198 0.21677772751555002
0.49134574979385665 13.336177758529681 101425.58133329204 8.660000692986138 0.21942482644295802
0.5069451243276871 13.297852157848613 88088.29706982296 9.030851405937653 0.22211945617800605
0.522832369744053 13.263807053434055 76621.71226042771 9.416088952210032 0.22485527861542473
0.5389900248487812 13.233689262450948 66759.10969502252 9.811477770057245 0.22757133261069573
0.5554268818007507 13.206973604057916 58253.03224472618 10.222993040757945 0.23033795110164598
0.5721366176764524 13.183548302753028 50908.272703538554 10.651344639355518 0.23315551289919348
0.5891214290899209 13.162962890946075 44548.250702375844 11.092238724496507 0.23596067055246261
0.6063792254103308 13.145143208910062 39041.08774597928 11.549053286481051 0.23879896412480414
0.6238995099256118 13.12969036977942 34256.90662075915 12.024602327903702 0.2416965472598251
0.6416924988037495 13.116436610788687 30098.452588645934 12.516955175569219 0.24462410066201357
0.6597503836176474 13.10536262678791 26478.04715956652 13.02424020988663 0.24754936620383566
0.678061961131005 13.096062989626782 23322.311714299794 13.55235984156981 0.2505332740274267
0.6966326029570044 13.088496526137964 20567.25566134829 14.102132099649145 0.25357587646270713
0.715459803823711 13.082435131771492 18157.428366194894 14.66574039638085 0.25659574303435073
0.7345367909676618 13.077872242011512 16050.156972357254 15.252544433487662 0.25968336914420925
0.7538554931362471 13.07458311520931 14201.98999336016 15.863444790379608 0.2628377838602911
0.7734149655321042 13.072186933827854 12578.964176539062 16.493074140084858 0.26599319237325225
0.7932177727875681 13.070999853436847 11153.072874954969 17.14537711181793 0.2691856882525143
0.8132482068676288 13.070694324015811 9899.750597343498 17.824536485985732 0.2724490379386626
0.8334968931372292 13.071154348947394 8795.764682840021 18.528334321600564 0.27575735776697613
0.8539700765567463 13.072445124524824 7822.965289181334 19.253951796185895 0.27908035778618295
0.8746507931885139 13.074206847849934 6964.439397326543 20.009375760215953 0.2824753011854567
0.8955465011512641 13.076538244283295 6205.431354937065 20.795846765981338 0.2859417738624825
0.9166355494049195 13.079299086918748 5534.199782751234 21.604496156841645 0.289401859897563
0.9379126343516828 13.082452395744808 4912.302021465455 22.44541548483762 0.2929363156269996
0.9593759270833232 13.08585557947595 4414.484066176536 23.32084770639786 0.29655364857620475
0.9810062399482946 13.089448769307051 3947.638536282764 24.227182184294424 0.30021779398653337
1.0027980481179 13.093174729811855 3533.429539532374 25.16399189821128 0.3039085582766305
1.0247670345423947 13.097012514482136 3165.0813682508096 26.139298930247527 0.3076839035678613
1.0468649676151582 13.1008718352678 2837.955493209916 27.154569012622737 0.3115463531296747
1.0691101731935155 13.104749839627452 2546.5683253882353 28.201256451616402 0.31543064121466263
1.0914700574208163 13.108371643471752 2286.8558541902394 29.288962836166476 0.31939602453858396
1.1139567864122886 13.112001627234669 2055.4719214096267 30.421233533216014 0.3234520636249408
1.1365489790174221 13.115393485800634 1848.9113822033896 31.599028277025358 0.3275896250707718
1.1592127594303752 13.118316439228932 1664.4365189728142 32.81351886975238 0.33175211867304055
1.1819640468291244 13.121082962806103 1499.5822660893716 34.077985985594175 0.3360178261958618
1.2047893137036958 13.12347814289267 1352.1924381540925 35.39434376938884 0.34038810787780904
1.2276792891415094 13.125546880333225 1220.1181439954303 36.76396820998698 0.3448607751675245
1.2505828165434465 13.1270135341516 1101.915837950516 38.1781324319366 0.34935922651788187
1.2735248329969173 13.127977250293842 995.8159017842222 39.65066748408853 0.3539707549402812
1.2964935163368245 13.128576749124747 900.7118419685522 41.18387858551313 0.3586978822077129
1.3194509398385625 13.128520186985027 815.2763730042271 42.78017483366255 0.36354298470117635
1.3423633319185686 13.127656744364193 738.504527791602 44.4346894250306 0.36846837123100135
1.365274747327347 13.126290007262641 669.4937951326671 46.153569620576896 0.37348448936467443
1.388117190879123 13.124119502759106 607.3684917216509 47.93464039342962 0.37858524768554663
1.410916350323281 13.121376812370633 551.4537404978327 49.79734495533396 0.3838604386555811
1.4335758992576653 13.117646700729253 501.0860067788295 51.7510133020999 0.39536923627462817
1.4560201603866674 13.113151687257526 455.91098366389906 53.7745938098347 0.41436352876212756
1.4781243819804313 13.107495501838146 415.3895130887499 55.88495936091686 0.4332452065021052
1.4999249482706831 13.100624228273691 378.92492783171724 58.0900996127623 0.4521821745263356
1.5214135353975315 13.092596623189891 346.0565035608329 60.39416811278234 0.47119607642721034
1.5425861615311056 13.083174424217024 316.3426326978774 62.80154832235754 0.4903120078374716
1.5634429023855718 13.072569006031776 289.4814699842262 65.31687600356845 0.5095536082988296
1.5839764376953642 13.060582467864021 265.1493944283195 67.94508394069781 0.5289328504083843
1.6041984254071968 13.047389086031997 243.0765611307915 70.68768136203825 0.5483646642027246
1.6240729427004963 13.032760026613131 223.02697656841804 73.55172119789931 0.5680034850965846
1.643609355082518 13.01674159012564 204.79313775828277 76.54599188038927 0.5879425992725696
1.6627777383754268 12.999302045673215 188.19380346874544 79.67695986358407 0.6082198753805749
1.6815995656299803 12.980555503162494 173.0787545386835 82.95143829794773 0.6288188454826512
1.7000396036331902 12.960483730461988 159.31026565867018 86.37687140032295 0.6498093399949832
1.7181045467823568 12.93906979765786 146.75542295289958 89.96115520899205 0.6712713494179849
1.7357418080805345 12.916022196254755 135.27135591259207 93.71274676031486 0.6932298999952954
1.7529995632290392 12.891870328610823 124.79926875565319 97.64078694949414 0.7157248414037185
1.7697927421680948 12.866177031369741 115.21914488495854 101.75508877761045 0.7388407623398535
1.7861137195217847 12.838817488215835 106.45293967633667 106.06613242439774 0.7626202408242252
1.8019909589904506 12.810219898017401 98.43395979850611 110.58533082019297 0.7871248723221819
1.8173954097111216 12.780309918740558 91.0987838872884 115.32485694239428 0.8124406704592098
1.8322720410032733 12.748720735593022 84.3759715220106 120.29786793624635 0.8386210565148117
1.8466373661768731 12.715814152302148 78.2125485392269 125.51864797543078 0.8657662588966398
1.8604536951024915 12.68146516389578 72.5686522119135 131.0024214871566 0.8939283915192993
1.8737062811832743 12.645518492793855 67.38343065591172 136.76178208246097 0.9232018047525478
1.8863791983872575 12.608125647250555 62.626108103222364 142.81263435028066 0.9536296238971708
1.8984451820920856 12.569209465727404 58.25537338079006 149.17881584859583 0.9853879526460797
1.9098923788854223 12.528882742284884 54.24813712547478 155.88133240189023 1.0185679590812153
1.9206983479284283 12.486967315212391 50.562243243471315 162.94270410922033 1.0532958477056364
1.9308569649673033 12.443585938703956 47.17237864673433 170.38598387121908 1.0896889089272923
1.9403216460653132 12.398563430312922 44.05217492964687 178.2237391342282 1.1277924389716962
1.9491070008467948 12.352223256238773 41.18516588724974 186.49865179797146 1.1678515460166463
1.957163749051282 12.304301801267952 38.5490392276496 195.2419591319326 1.2100251015499892
1.9644781412769936 12.254721789679708 36.11671148823885 204.47419523008492 1.2544084221191905
1.9710516139636098 12.20372313336058 33.87935761798439 214.23607949779893 1.301215837842273
1.9768585711193323 12.151158188198218 31.817411708599995 224.57570771805973 1.350694800777897
1.9818865645258643 12.09708015340668 29.916102026497246 235.51323565916167 1.4029415655034057
1.9861124107732806 12.04151381707552 28.16450345095968 247.11565421484076 1.458299357223411
1.9895222876553365 11.98443419253894 26.550185689862456 259.41905749794006 1.5169489045313886
1.9921070107524652 11.925779669163767 25.05815149509112 272.48609427704383 1.5792033490355823
1.9938649755894582 11.865771285787105 23.685532750429932 286.3685558055226 1.6453215522009217
1.9947697602614645 11.80433199330916 22.420968885354977 301.1420987461283 1.715677033879282
1.99480749931801 11.741348134516615 21.252477325449043 316.8613235908997 1.790542142101984
