M[M_sun], R[km], Lambda[1], P_c[MeV/fm^3], rho_c[fm^-3]
0.23841724892012095 16.20908015294055 2780876.1263280716 3.453507347168396 0.169602847481901
0.2484244035178158 15.86596402760197 2281640.853536978 3.6357481378917713 0.17198100476506697
0.25871852809569323 15.562289618576676 1880884.7355252185 3.8251767618373296 0.1743799336443412
0.2692961648554763 15.292874428667965 1557315.7597150472 4.020927005154608 0.17677456646409084
0.28015813008983076 15.053012296572646 1294559.183870861 4.223282003097327 0.1791557389917731
0.2913019764883118 14.838892611768475 1080283.5941032306 4.433627855078495 0.18156071026888856
0.30273594779116886 14.647338424968513 904597.171567031 4.652312769873936 0.18399329605176912
0.31445317517490345 14.47583928438102 760092.8289697642 4.879704477504446 0.1864551386416396
0.32645218096033946 14.321985193968775 640669.0827347436 5.113201517614453 0.18888820340471524
0.33873550722768314 14.183872464426424 541683.0116481965 5.355840721743495 0.19134140020394141
0.3513029723485394 14.05953526212895 459261.0279023025 5.608192156659216 0.19382463114647425
0.36415296538666697 13.947637865621713 390422.141222526 5.870669363701557 0.19634339456948344
0.3772948027180772 13.847096689686566 332757.536423185 6.140317722993266 0.19884038524403355
0.390717458329754 13.756473171142206 284295.1360144287 6.420272203952755 0.20136494096126986
0.4044212047798387 13.674843759160979 240320.95186234667 6.711482421443916 0.2039239253742101
0.4184120046684293 13.60147606572494 206351.1441486299 7.014259148866726 0.20651252096937034
0.43268852107885186 13.535577727097264 179703.30879365792 7.324815358552023 0.20907439682188572
0.44724563386488836 13.476189927492792 154862.75660681588 7.647935833443573 0.211680700179893
0.46209390423593066 13.42299819500228 133705.5382107049 7.984155272815987 0.21433137868246055
0.4772236712602553 13.375493659103407 115674.12204279842 8.331847082512331 0.21699339564609846
0.4926297160351283 13.332736906308593 100237.11683266192 8.690372031905836 0.21964827426116912
0.5083237238020937 13.294777752842636 87017.29464830794 9.063523523492833 0.22235148214004
0.52429389755782 13.26095939411617 75663.61826320757 9.45190883658254 0.22510565155698234
0.5405464186865597 13.230903950677213 65888.69671012268 9.850527506410197 0.22783910934587565
0.5570792879321603 13.204514220846324 57475.006413324554 10.26473922165959 0.2306138185264559
0.5738854042294567 13.181198509860964 50203.36127884103 10.695907107000558 0.23343903847001865
0.5909768659059327 13.160973750533703 43915.28127690973 11.14156054814867 0.23627447719163946
0.6083257931079075 13.143168326681483 38469.365583834035 11.601523165882005 0.23912162834358502
0.6259598330588683 13.127977444420505 33741.3805912879 12.080369676239313 0.24202814256007582
0.6438623357360773 13.115223561024976 29636.80358041961 12.578398043431804 0.2449894428707653
0.6620198517847733 13.104099239951926 26060.88233377442 13.08936805111367 0.24792292001129748
0.6804435361880223 13.095093182959008 22947.19462417384 13.62134024058906 0.2509150319771199
0.6991166307808943 13.087613751486831 20228.362222726686 14.175224481308657 0.25396784460827904
0.7180697441204532 13.081818251069965 17851.8737998654 14.745764545092777 0.25702446578928284
0.7372564009592477 13.077315410675032 15772.305268257658 15.337083882788141 0.26012200268845415
0.7566902423121273 13.07413528363218 13951.625754113602 15.952716165441013 0.26328517033769144
0.7763707511389996 13.072028873777207 12353.462502166114 16.59063551628151 0.26648212446819225
0.7962782473573994 13.070966351675253 10950.920989464395 17.248222368711087 0.2696841889195095
0.8164354313628194 13.070808271086904 9716.227685374379 17.93292675856074 0.2729585446035175
0.8368068912132366 13.071324667263807 8629.34913984595 18.64578507336865 0.2763065474150139
0.8573983759746104 13.072684465193584 7672.55417324177 19.378336602703236 0.2796476691062358
0.878201462218044 13.07458430568614 6827.840335399794 20.140281188967688 0.2830529351605326
0.8992127459166955 13.076959176755821 6082.024745504718 20.93359608739448 0.2865311819653642
0.9204257254324648 13.079847663731623 5422.786083318381 21.754225631697086 0.2900425292294672
0.9418201301784564 13.083031919702982 4839.58262502347 22.60281669362569 0.29359079556946766
0.9633999830118317 13.086427828789324 4322.699483151623 23.486327758041224 0.29722265432024
0.9851666489073927 13.090152187522989 3864.595265784584 24.406074643522977 0.3009383521500447
1.0070951415061744 13.093974617098 3457.99695255997 25.35264077033453 0.30464785538629247
1.0291599073812319 13.097778203397128 3096.6474206707267 26.337476273018044 0.30843904693630864
1.0514054397748658 13.101847131835372 2775.807817244969 27.362790678350837 0.3123190698979218
1.073752295987796 13.105543140967368 2490.034746508963 28.42676403832169 0.316267506547599
1.0962352042285275 13.109165342651373 2235.4916822855903 29.52577422648469 0.3202523932601248
1.1188365825516298 13.11276036473609 2008.8488529587814 30.66995758275605 0.3243258245611625
1.1415310048554328 13.11598164354312 1806.5209579927744 31.861175735093727 0.32849015348482197
1.164325032287624 13.119070702012687 1625.8747648204978 33.09602871437254 0.33271977123958135
1.187191474481126 13.121706116060539 1457.6625673401475 34.37465568627952 0.3370097431314998
1.2101122575728374 13.1239702858037 1314.1425329157312 35.70598285077427 0.3414058014032698
1.2331028708840766 13.125901426196439 1190.8964799200548 37.092037649731495 0.34590586556439556
1.256117626634168 13.127303185198777 1075.2231268244104 38.53173752879409 0.3504835538366838
1.2791581142137718 13.128211177682626 971.5441860457162 40.02211289254486 0.35512543575305877
1.302210970032735 13.128540903694889 878.515264476827 41.574209783230145 0.35988506121187197
1.3252448780261155 13.128236853154398 795.0154613389511 43.19050561365973 0.36476451378717833
1.3482735993291919 13.127341368484075 720.0216441562816 44.873602316081964 0.369764685264127
1.3712606461455379 13.125807967848028 652.5899391866101 46.61891538306713 0.3748368638115878
1.3941898871701877 13.123498832923445 591.9179226845374 48.433194911706 0.38002170882802694
1.4170434966274383 13.120411328966076 537.3153852654048 50.323303909085126 0.3853426183919965
1.4398224162716453 13.11660329085803 488.09838396629544 52.29246059627971 0.3908022734719505
1.462490480925285 13.111874594890798 443.74830271121505 54.344071013261065 0.396401512531714
1.4850256810816198 13.106380160211852 403.75712097532823 56.48043497847206 0.40212975452341143
1.5074445063871933 13.099910558876338 367.6126610678666 58.69886366015524 0.40797474073884327
1.5296765619174375 13.092534511850145 334.9774746259901 61.01171161394632 0.4139814209664254
1.5517365637252336 13.084166897783533 305.48121922811185 63.423268272524446 0.42015262530915565
1.5736335767819174 13.074902246205834 278.7737431989213 65.9380854651634 0.42648877520473405
1.5952794513451611 13.064500851904677 254.62062500820164 68.56107560412711 0.4329973410525078
1.6167016270664776 13.05307794540163 232.73594765269462 71.29735090597916 0.43969227338364253
1.6378827142075378 13.0406064560681 212.89783206593776 74.15240142100586 0.4465803119791587
1.6587812831723512 13.027009352609532 194.90764033389726 77.13210126881522 0.45366478487496503
1.679366350964183 13.012235096757506 178.58990194634887 80.2403014599489 0.46093850682058746
1.699675977972251 12.996339491889362 163.75169376853745 83.4847408266334 0.46842732398377734
1.7196294342753025 12.979309038295217 150.2795000676237 86.87462861587561 0.4761497543777275
1.7392331079429948 12.960938314782624 138.01764715848594 90.41756322488007 0.4841100095708169
1.758480532146615 12.941433938321733 126.86429057163697 94.12167996136611 0.49231624602247576
1.7772913251517546 12.920513485500152 116.71101507041563 97.99573590628417 0.5007889990361651
1.7957201159605776 12.8984547498989 107.46030681071923 102.04907909826191 0.5095434441197719
1.813742462405633 12.875224722882962 99.02895074334796 106.29169738403394 0.5185860579726981
1.8312514973911507 12.850323201781265 91.33246653472024 110.73431931743558 0.5279306309223937
1.8483290085292545 12.824257061789531 84.30458256940943 115.38849149420561 0.5376018995657348
1.8648922093145832 12.796757143955261 77.88405362319517 120.26369193452695 0.5476080838026881
1.880940933929995 12.767879671641452 72.02403790741785 125.37252493759473 0.5579547933389741
1.8964692940489472 12.737644211344191 66.65828736723931 130.73157432418668 0.5686760990386934
1.9114180550104323 12.705893406024483 61.747651586767105 136.3561646809036 0.5798004360558267
1.9258139526283151 12.672841503327488 57.25600738840649 142.262807799209 0.591345150328874
1.9395976366728418 12.638172009769008 53.139542739034056 148.4693079181942 0.6033309909322719
1.9527904643954261 12.602196782567086 49.36499533770865 154.99485088793116 0.6157936046572269
1.9653538744291275 12.564699136579067 45.90195477478109 161.85168985477023 0.6287348658059416
1.9772599109199454 12.525664834071373 42.72363528466047 169.0630257225317 0.6421758691123466
1.9885022873140794 12.485268770131707 39.80786076738547 176.65888460632675 0.6561826386849109
1.999067612808531 12.443290129560658 37.127468824410606 184.66534985700522 0.6707947113241671
2.0089261724734273 12.399779532104448 34.66518878299766 193.0956710758962 0.6859851015827694
2.0180710472640455 12.354821637769492 32.400477661622084 201.98779540604318 0.7018351292825805
2.026491426976647 12.308263911672062 30.313337071317065 211.38030993993146 0.7184117345255655
2.034154743120612 12.260264845528951 28.393951721225694 221.2883185540974 0.7356771059543797
2.04107031507027 12.210746913397218 26.623795208734723 231.76448618783897 0.7537478764387784
2.0471996301614843 12.15964423228653 24.994389491797403 242.84373223588253 0.7726557789979439
2.052549908687949 12.107157857739239 23.493444132312984 254.56483624187172 0.7924251609764709
2.0570822033267557 12.053050027747057 22.108840182169814 266.98305643746664 0.8131590487241684
2.060823463652946 11.997564182635605 20.830933395530273 280.1402992921157 0.8348781088115165
2.0637443494115506 11.940576953917247 19.651460892212118 294.0981130390813 0.8576700195583875
2.065825875960515 11.88208675244729 18.56236606078969 308.91902745121644 0.8816214644765547
2.0670690795016027 11.82225518638956 17.559723670581786 324.65688621777053 0.9067529023715213
2.06747451443737 11.760961214486185 16.630098099641426 341.3992726730217 0.9332177074848768
