M[M_sun], R[km], Lambda[1], P_c[MeV/fm^3], rho_c[fm^-3]
0.23841724892012095 16.20908015294055 2780876.1263280716 3.453507347168396 0.169602847481901
0.24841855480625094 15.8661698060947 2282083.494762944 3.6356194868466427 0.17197936827511678
0.2587027901810654 15.562751498123541 1881469.6292666038 3.824912114606294 0.1743766961875986
0.269271334397914 15.293308665279461 1557839.6493286102 4.0205006158046475 0.17676935039940503
0.28012836560877186 15.053558803787721 1295088.3462538386 4.222698082302296 0.17914891094400773
0.29126187132404596 14.839655783114404 1081008.343096691 4.43287833964151 0.1815522767063338
0.30268807654331775 14.648113951496336 905250.8680303378 4.651389171908222 0.18398329300218966
0.3143921248586495 14.476681462182116 760703.5028980038 4.8785979633025995 0.18644360864231674
0.3263827408166238 14.322889186795452 641323.9225021008 5.111847509950817 0.18887409449638057
0.3386585162264191 14.184590530162643 542226.9643702675 5.354278193037971 0.1913258091174917
0.35121449305501706 14.060373247146652 459796.1252402384 5.606411302826198 0.19380751528141543
0.3640526358390233 13.948493631378348 390916.3386600441 5.868659665193144 0.19632478441199036
0.37718340798818745 13.84787216954768 333206.1407569201 6.137974599261713 0.19881868751102166
0.39059593093554645 13.757206343056982 284682.27673004667 6.417669985550181 0.20134174758949736
0.4042856994219259 13.675698521921575 243838.2073719036 6.708609434330121 0.203899362714289
0.4182639134478472 13.602203224115408 206671.73964047272 7.010971900675363 0.20648441657620648
0.43253035638910364 13.536314616552106 180007.35357647928 7.321223239521626 0.20904478584863703
0.44707267037258813 13.476880691039103 155132.97144261474 7.644024762337357 0.21164960516883036
0.4619030591034612 13.423670889856735 132468.56877564403 7.979910618384635 0.21429888052810106
0.47701650650793526 13.375961539585866 115884.83704143659 8.327069505085559 0.2169568172976862
0.49241320513212883 13.333296869811733 100435.1462970973 8.685220471501497 0.21961037323429058
0.5080899890939983 13.295370570011643 87199.95614605791 9.057981247352766 0.22231212283156895
0.5240445500468377 13.261409386031866 75823.1445236454 9.445957569710941 0.22506484178560113
0.5402866471720325 13.231472313306824 66038.38763227717 9.843901890349324 0.22779367534290823
0.5568002143851724 13.204935528683293 57603.25270247181 10.257655530397855 0.23056700802488864
0.5735908411474835 13.18158437301626 50320.62835417657 10.688344940902935 0.233390924719304
0.5906639440650302 13.161233590111134 44019.50230100596 11.13318950880718 0.23622121704171686
0.607997783063457 13.143520718806458 38565.63965583888 11.59261714321983 0.2390668606391888
0.6256094886821522 13.128293995141519 33829.135856717825 12.070903233562893 0.24197185464258864
0.6434890922259775 13.1153248147058 29712.895904745015 12.567966633410212 0.24492741721164069
0.6616395868072481 13.104376604703791 26131.226279494218 13.078310198613154 0.24785949547846953
0.6800397166455997 13.095176273829754 23009.017555715673 13.609627407260305 0.2508502096899157
0.6986952246142052 13.087713064270547 20284.9068752866 14.162825582376138 0.253901418533225
0.7176206980630419 13.081882944278254 17903.38215522326 14.732173424218738 0.2569516524838304
0.7367969591914244 13.077418069508886 15706.222526270334 15.322724850353966 0.2600475007447977
0.756211509227208 13.074174208923933 13992.734279468265 15.937552321450724 0.2632091762271269
0.7758649896303789 13.072011202241724 12391.188781460836 16.57406093099483 0.2663990603805082
0.7957624747883818 13.070957378850709 10911.212333126683 17.23074886378579 0.26959949319193643
0.8158925635462914 13.070708726163575 9746.653588869833 17.91450984009396 0.2728719727877817
0.8362469420031167 13.07132279361338 8657.532465805418 18.62637654016849 0.27621802630943554
0.8568086092730914 13.072642163260213 7698.435228285174 19.357197131552653 0.2795512533009663
0.8776053565168457 13.074551912942844 6850.973395149113 20.11803194645439 0.28295475803741454
0.8985899223361178 13.076841172334982 6102.600797464685 20.91018197096147 0.28643099657202903
0.9197842362963343 13.079761782125033 5442.072060116664 21.728771014523257 0.2899336128481443
0.9411539629185788 13.08287390142777 4856.395877632194 22.576055952327447 0.29347952343528183
0.9627284288814059 13.086364763994398 4338.037638645826 23.458191475603233 0.29710890444900245
0.9844655078909137 13.090047875600842 3878.413203956585 24.376231946506465 0.30082037505945836
1.0063714910172317 13.093844618835774 3470.4694411892 25.320557458255315 0.3045221239169145
1.02841895175721 13.09770405553654 3108.3652283690876 26.30377003716435 0.3083106112628638
1.0506335399722595 13.101594081464308 2786.191629602549 27.32737351859996 0.31218763576916536
1.0729640302374548 13.105371272855097 2499.4424438322353 28.388400050306515 0.31612513665187997
1.0954266424162618 13.109033950968263 2244.16600994798 29.485484234338664 0.32010669465576874
1.1180070337009227 13.112602564267224 2016.6234109963045 30.62763767833117 0.32417715586837026
1.1406927633000892 13.115888128619257 1813.496572295475 31.816715726710203 0.32833786908822477
1.163456733430763 13.118929046168931 1632.3356024389568 33.047948088525146 0.33255508550601104
1.1863080294023998 13.1216092579528 1470.3280873911826 34.324161314435926 0.3368409148943378
1.2092120195497187 13.12387991214883 1325.444606511739 35.65293650130517 0.341232572403351
1.2321807924751926 13.125858800362016 1195.8345209301272 37.03629639140064 0.34572862994171155
1.2551905685630758 13.1273116150338 1079.7025047366753 38.471532067955586 0.3502921237782277
1.2782035952774782 13.128151777829252 975.5956402396632 39.95886480914663 0.35492882180473084
1.3012325720889248 13.128539502192051 882.2906126077891 41.507740448864006 0.359682897001987
1.3242671668729036 13.128288859985828 798.4179181981581 43.12062470139534 0.36455648267898827
1.3472683974146447 13.127367559581085 723.0976394914691 44.80011160901084 0.3695511086887291
1.3702377119306937 13.12587029630115 655.4188831221038 46.53964336003048 0.3746064857423083
1.393174156129189 13.123660137455746 594.5184854998843 48.34983305547475 0.3797842760351906
1.416010171756894 13.120603289057168 539.683336308446 50.235604135621905 0.38509768109279513
1.4387600289380766 13.116720321841406 488.4260325622652 52.200158935760435 0.3905494693330016
1.461422188348078 13.112112561166184 445.72661773228316 54.24689022913519 0.39614094127256483
1.4839717582679657 13.106688051957544 405.5549394550031 56.37569149286011 0.4018489053598749
1.5063483446092245 13.100198503890146 369.2737532558643 58.58609116589302 0.4076778050598277
1.5242896508871477 13.091787752144652 341.94947519396857 61.23727826408957 0.9138347214682516
1.5243920614754098 13.072253504712927 336.92651146408355 64.8548266411389 1.7048863586060499
1.514197316373628 13.040234298204634 342.5725050846008 69.88051166504627 2.4298797522152698
1.498192927169456 12.998203079858794 353.9166744065362 76.24853041284642 3.093352054214386
1.478608868604037 12.948590370404457 369.03200913783 83.94445752122665 3.83111588956015
1.456251404512309 12.892266312704043 387.54917376793054 93.0407077234107 4.487903480265079
1.430300888471044 12.824338562228105 409.96516165730395 103.03160812715183 4.615040370579768
1.4010153538847339 12.740340357965152 435.2391415412468 113.50503725100488 4.669191048607762
1.370222492477334 12.64250352131021 461.3104565016726 124.40250091185823 4.724427953860606
1.339002773272199 12.532933952520546 486.70768766117016 135.74213275714578 4.781687916359902
1.3078330679635408 12.41225692924656 510.46799836857093 147.54419029505473 4.841110659910932
1.2774226972986362 12.28211486805905 531.152425825845 159.83095276674715 4.902778819891853
1.2479259829369063 12.14277675251061 548.0549793871384 172.62757832138328 4.966795223514678
1.2197405262341057 11.995503697027102 559.9474999069338 185.96132722653707 5.033288400750225
1.1930293182515894 11.841001917951276 566.4257270086106 199.86103935745479 5.102364979235073
1.1679460821534091 11.680180677522094 566.7948372475022 214.35903971440814 5.1741656541213255
1.144641875482802 11.514068775033998 560.9547592503025 229.48922370254292 5.248839407866635
1.1232143855486674 11.343619383152813 548.9352640383934 245.28841279630646 5.326524906429971
1.1037111539336188 11.170094509345308 531.2152292545153 261.79704617335744 5.407414566150926
1.0861413755777964 10.994167954227269 508.38317661289824 279.03828930257464 5.491544091643444
1.0704864468857038 10.817268285113311 481.4836745577976 297.02424570923307 5.578966620991945
1.0567239008921374 10.640133546499602 451.31455764594045 315.85108581323493 5.670090601497949
1.0447417986273342 10.463987285682622 419.3387302883407 335.5715804103793 5.765162612704215
1.0345566593068682 10.2895962499821 385.94328465926793 356.244413580426 5.864408405699515
1.025950188791904 10.117547544274716 352.61118550768697 377.9315380401371 5.9680795669800055
1.0188400110395228 9.9487251229755 320.000591470573 400.6365106183457 6.076111680637464
1.0131478612781297 9.783943872184551 288.72215033926756 424.43941278101687 6.188827951035369
1.0086793430282999 9.62321057127626 259.2752277817998 449.4675957599021 6.3068140269294855
1.0053361536409582 9.466999824957345 231.89474590576796 475.80589978020504 6.4303964121787995
1.0030044099632245 9.315696812073256 206.17224141675143 503.40659663603327 6.559186404638952
1.0015196446048644 9.16937069901201 184.0586373212372 532.4950497498562 6.6942598818358645
1.0007647797119976 9.027714683874594 163.54302869854683 563.153589177948 6.835894871431505
1.0006752306182742 8.891583593469687 145.23381313891522 595.3914355397999 6.983963228494912
1.0010831331889711 8.760181391818948 128.9757960839491 629.4618378479879 7.1396374277637005
1.0019169058378194 8.63367560425526 114.59987457621314 665.3455488812651 7.302590360462054
1.0030442725455826 8.511659831854047 101.92201144342629 703.3126753134295 7.474058645845254
1.004411480167339 8.394348050525233 90.78230654299088 743.383327531732 7.6538397638286
1.0059328132170104 8.281206539104689 80.99282974334484 785.8472581647012 7.843277868108018
1.0075069971630182 8.172279485065388 72.4255841853346 830.7373883284 8.042144939155577
1.0090975916715337 8.06709009408465 64.73681870678145 878.3551100778186 8.251744086475167
1.0106215640494174 7.965573997002539 58.28957229546148 928.8878762284355 8.472704742597566
1.0120205276418084 7.867661548762654 52.52749975504495 982.4874710693584 8.705342264399865
1.0132512518972292 7.773032002133406 47.45281890783431 1039.4808740703706 8.95097288836214
1.0142537391884094 7.681337794403453 43.01055793761383 1100.1290435605104 9.210432965204758
1.0150000182431185 7.5924055038121105 39.01739198530114 1164.721427298522 9.484658855335823
1.0154558348633715 7.50604658864339 35.57483770737486 1233.5628106419833 9.774584848226294
1.0155667899006693 7.422553039617348 32.55339760721966 1307.0221404421452 10.081426719330516
