M[M_sun], R[km], Lambda[1], P_c[MeV/fm^3], rho_c[fm^-3]
0.23841724892012095 16.20908015294055 2780876.1263280716 3.453507347168396 0.169602847481901
0.24842364707454628 15.865970671862497 2281753.9857645202 3.635717383452293 0.1719806135569654
0.2587134889267158 15.562413605346903 1880974.0242267863 3.825113495901117 0.17437915970564943
0.26928741032816655 15.292996265916546 1557485.8831273983 4.020825071516271 0.17677331949942984
0.2801508288072471 15.053129019594166 1294666.4002909577 4.223142407106562 0.17915410663323936
0.29129341366158146 14.839016612768326 1080426.3744617654 4.433448667799128 0.18155869405006905
0.30272354123254375 14.647573119185186 904772.8946787404 4.652091960791202 0.1839909045737839
0.31443636644991385 14.476049604526308 760259.4937360116 4.879439933376393 0.18645238206281556
0.3264337308873924 14.322273996442597 630264.8286129868 5.112877796485611 0.18888483019505367
0.3387178927401099 14.183983326200924 541814.0001148582 5.355467140656047 0.19133767257000434
0.35128208298479185 14.059661725779307 459366.84884125675 5.607766370128479 0.19382053889327028
0.36412934495096977 13.947874273759652 390541.76809685235 5.87018885511628 0.1963389449764667
0.3772691436924834 13.847160985784253 332858.91989473754 6.1397574825510794 0.19883519732016366
0.39068868372072135 13.756664021939187 284382.8944480521 6.419650004823595 0.20135939534845548
0.40438821256731805 13.675035169722142 243542.8933432019 6.710795470702744 0.203918052275317
0.41837688042475035 13.601685798236783 209021.81601434917 7.013473128818969 0.20650580087548912
0.43265209230492774 13.535694437804102 179767.77713397882 7.323956428210598 0.20906731638742707
0.4472081077055069 13.476408179614385 154924.87924511434 7.647000623948876 0.21167326478718504
0.4620496364367338 13.423179151292016 133770.1731734558 7.983140283705851 0.21432360766757397
0.4771748633583396 13.375623813677999 115728.56507094775 8.330704635186672 0.21698464877868268
0.49257857242325953 13.332840947830226 100280.83008507385 8.68914013900438 0.21963921098668432
0.5082673536542839 13.294892821473812 87057.63114708709 9.062198181648318 0.2223420700253836
0.5242346404720966 13.261011172050695 75698.01976793178 9.450485673477521 0.22509589246497605
0.5404862768791651 13.23114249288385 65927.26003708995 9.848943046981637 0.22782824419254988
0.5570083135811491 13.204635641818449 57508.868542101474 10.263045196431387 0.23060262405627505
0.5738153664242824 13.181307590493054 50231.144176637914 10.69409863512426 0.23342753219471243
0.5909000487607247 13.160959485512638 43940.14192243884 11.139558591084386 0.2362617398804129
0.6082513242083021 13.143318113038616 38491.77425842654 11.599393240581353 0.23910853033971988
0.6258765780626844 13.128065253119262 33762.00749611649 12.078105696549798 0.24201468082938013
0.643766915992375 13.115038652020804 29653.363335269136 12.575903225890851 0.24497460856724804
0.6619251313858358 13.104133401245534 26077.349847434052 13.086723380272483 0.24790775097078277
0.6803488388509975 13.095107311869102 22961.48078753563 13.618538887869784 0.2508995284618361
0.6990173610001998 13.087612635564355 20090.360815754262 14.17225900881984 0.2539519573348054
0.7179594433346481 13.081865785416497 17864.98856770385 14.742513849305372 0.2570070504555885
0.7371504267121893 13.077357176197326 15783.39435469706 15.333649480740382 0.26010418326858525
0.7565757887686085 13.074135296942444 13961.455408956772 15.949089227415671 0.2632669938166533
0.776249192571072 13.071960726491309 12362.182476042448 16.58667105650269 0.26646225644561483
0.7961550546548344 13.070955620820069 10958.756175708219 17.24404285077595 0.26966393040160286
0.8163082294470964 13.070785355124107 9723.287296595143 17.92852153517222 0.2729378371117536
0.8366710268852645 13.071406686953326 8636.693064850979 18.641142609968472 0.27628537342991405
0.8572561841321925 13.07263628860919 7678.654910881524 19.373279978752066 0.2796246061607759
0.8780581134276555 13.074598126324565 6833.745833163241 20.13495904574472 0.28302945064369384
0.8990641975381118 13.076947827648409 6087.114791744009 20.927995238168265 0.28650721679527785
0.9202739161123211 13.07980666419796 5427.0830987796835 21.748136523187863 0.2900164748732073
0.9416641769443564 13.082991978744626 4843.551563734919 22.596415070898264 0.2935641773896798
0.9632425023805931 13.086434960618272 4326.477159057471 23.47959700784461 0.29719544312167867
0.9849949253153446 13.090114339293812 3867.9149832789612 24.39899769497043 0.3009106182571715
1.0069230209368352 13.09397622768032 3461.0934617078155 25.344965527607425 0.3046177768350653
1.0289825257970515 13.097711043142024 3099.3880192557385 26.32941269031326 0.308408321118108
1.0512106659938765 13.101666964428333 2778.13600000322 27.354317693478386 0.3122876264001227
1.0735672323458347 13.105491520441726 2492.187629258226 28.41758582639698 0.3162334459313228
1.096037258644136 13.109122598474697 2237.6869379352324 29.5161351261904 0.3202175358827633
1.1186340522748697 13.112665807689181 2010.6426652261207 30.659832722848698 0.3242902561990032
1.1413284862117885 13.115986966894527 1808.1754741739708 31.85053873990101 0.3284537196546581
1.1641160899197722 13.118988203553219 1627.3029541074247 33.08452517404981 0.33268036931950823
1.1869744194442267 13.121664300152256 1465.7956416464979 34.362574500619 0.33696934961429337
1.2098961420020011 13.123956639762227 1321.3575859340149 35.69329093006107 0.3413643544657482
1.2328878936377203 13.125903208478876 1192.0545845202807 37.07870077865814 0.34586345947741215
1.2558940090259236 13.127267409860803 1076.3106203763361 38.5173321246324 0.35043775022813484
1.278926187834753 13.12813976833648 972.4776031505351 40.00697928790405 0.3550783912008606
1.3019728404505972 13.128469411421365 879.400638942347 41.558305214299345 0.35983668800876834
1.3250085809158427 13.128256441293322 795.8719846778918 43.17378451501027 0.36471473612158284
1.3480387437873758 13.127371172139659 720.7299725000394 44.856017232430254 0.3697135800006985
1.3710111198406674 13.125789747758418 653.2763906102637 46.59994636596205 0.37478173660063246
1.3939476033892677 13.123515890290257 592.5233552927077 48.41324696513727 0.37996489271476735
1.4167942214718736 13.120434642602516 537.8705742252046 50.30231763414085 0.3852840056806729
1.439562429092164 13.116602037275893 488.59949907764496 52.27037278901107 0.39074177738697863
1.4622288465526603 13.111925473165869 444.21702685685386 54.320815291686415 0.3963391568643088
1.4847688912033032 13.106402745256414 404.18453290304507 56.45536869733366 0.4020625441947732
1.5071951523152165 13.100075011046181 367.9977551871738 58.67246907259885 0.4079052323723035
1.5294281593643013 13.09260862042792 335.332566151075 60.98390557774573 0.4139094677063325
1.551473768665637 13.084258230608661 305.80514635527305 63.393962225496566 0.42007812130494165
1.5733769074960273 13.075042395247513 279.0873050225188 65.90718573782097 0.4264116747049388
1.595018115102785 13.064626484518131 254.91418821584494 68.52848155395803 0.4329173090332455
1.6164436887204041 13.053354685448062 233.02292802547186 71.26295366340864 0.4396091231070693
1.6376128769278946 13.040773322017968 213.1364799298977 74.11608482754323 0.44649391701287694
1.6585102201110888 13.02717163873715 195.1275123203554 77.09374175446864 0.4535750170272819
1.6791229831232883 13.01246103993501 178.77616563684995 80.19898839923091 0.4608418271674421
1.6994209461997394 12.996617828714548 163.92626577183887 83.44108721778072 0.46832661969131717
1.7193603993131803 12.979459598407532 150.43990784671286 86.82847894234853 0.4760447649653147
1.7389973979549418 12.961341494809227 138.18087933637256 90.36875112727186 0.48400056196374824
1.7582177122126397 12.941705078286184 127.00635829189999 94.0700275546888 0.4922020921506801
1.7770472761951785 12.92087992896926 116.84576058344443 97.94105121951911 0.5006696800942937
1.795469459469697 12.898793158609712 107.58510899251671 101.99115467199603 0.5094186209155899
1.8134660384037944 12.87531869608477 99.13458262378097 106.23031069677913 0.5184555042441408
1.8310168279258843 12.850706085126113 91.43431179145482 110.66923141479089 0.5277939614884868
1.848070126521521 12.824513915708774 84.39605836392366 115.3194439635989 0.5374585703470163
1.8646393813044873 12.797132785580851 77.97886673102124 120.19146746339307 0.5474615985426156
1.8807048961463664 12.76829133652839 72.09982879280543 125.2958004958245 0.5578009346141194
1.896229194130142 12.738048002941563 66.73103677344967 130.65002737997156 0.5685142544343808
1.9111937065053237 12.706366586631159 61.81727930791219 136.26944605946596 0.5796300590690587
1.925591216719857 12.67323384840297 57.31721570288617 142.17054086174807 0.591165861306616
1.939387282913838 12.638761248430937 53.200202627932015 148.371085412467 0.6031420521676952
1.952589410614382 12.602767864629424 49.41959705084582 154.89023062373602 0.6155942445951669
1.9651617628130877 12.565252435300907 45.95231268407459 161.74148689810247 0.6285289048576846
1.9770712862673692 12.526330431331 42.7740836374228 168.94548455870444 0.6419581873370953
1.9883262581183472 12.48589695233476 39.85446533019807 176.5334446811427 0.6559523231172072
1.9989060393675497 12.443972295328413 37.17002843040776 184.53140178075478 0.6705508439036909
2.008766971964611 12.400396214183289 34.70085589788238 192.95399685396012 0.6857317165267159
2.017924805582374 12.355433679505452 32.432127386268235 201.8363031596464 0.7015663340586431
2.026355366364566 12.309061500920475 30.34694101155435 211.21821945641415 0.7181263755106658
2.0340315118601744 12.261035034167202 28.423737440442526 221.11634062709334 0.7353793016026549
2.040952120876312 12.211531984793002 26.653089307696114 231.58021721945252 0.7534311471382575
2.0470999049763074 12.160592196684101 25.023204419258175 242.64778166592606 0.7723242179637357
2.052455594398868 12.1080246608231 23.517843988233466 254.35457979445286 0.7920719005586907
2.0570216234023877 12.054057117770666 22.13262267001389 266.75898302927055 0.8127878180389201
2.0607641252913482 11.99853481404389 20.851494646674066 279.89951199122254 0.8344822612718832
2.063697668774001 11.941579221469587 19.671144178958897 293.8323695893717 0.8572257803708039
2.065792528952574 11.883158300947624 18.58230777414783 308.6332872956984 0.8811554319234268
