M[M_sun], R[km], Lambda[1], P_c[MeV/fm^3], rho_c[fm^-3]
0.23841724892012095 16.20908015294055 2780876.1263280716 3.453507347168396 0.169602847481901
0.24841354012124855 15.866248124681015 2282165.4695972805 3.6355289670301203 0.17197821682881576
0.25869242690467087 15.562972468563562 1881674.4069652057 3.824725914641418 0.17437441838431533
0.26925496617700906 15.29372241723235 1558292.0978845432 4.020200630934191 0.17676568065369205
0.2801057698325281 15.054084364899603 1295689.257979873 4.222287283259104 0.17914410728653782
0.29123340731746894 14.840024472035292 1081383.9022923377 4.432351062346907 0.18154634377176262
0.30265309252068956 14.648642039521475 905781.0346899581 4.650739453831056 0.1839762562152111
0.3143514531655081 14.477248999237952 761139.615108035 4.877819598969204 0.18643549800060785
0.32633589658087164 14.323425164247448 641726.4480606533 5.110895092425996 0.18886417020133048
0.33860266986858745 14.185159150792193 542636.128928617 5.353179139896674 0.19131484264213783
0.35115091794949266 14.060947773472842 460155.7114497369 5.605158727610879 0.19379547672554748
0.3639833118510287 13.949108214759027 391284.1791655034 5.867246178653802 0.19631169528095835
0.37710445982525925 13.84840667529041 333516.54739899014 6.136326680275223 0.19880342749478241
0.3905065119691398 13.75774439176537 284980.9789190239 6.415839905859735 0.2013254362304693
0.404191831555336 13.676156605772482 244088.34873263334 6.7065889945390476 0.20388208892449683
0.41815888703722154 13.60273140541774 209512.7138235686 7.008660239863078 0.20646465298655703
0.43241469527023796 13.536829732571368 180224.99247346903 7.318697266636902 0.20902396345525764
0.4469517480894985 13.477370878112335 155323.57476487706 7.641274587464377 0.21162773987521205
0.4617719599993635 13.424153478378937 134134.96835718138 7.976925965406786 0.21427602926547124
0.47687323885264493 13.376394887383192 116047.67177673141 8.323710287184673 0.21693109827069926
0.4922601340938883 13.333725287055879 100577.59359661247 8.681598404615853 0.21958372498723266
0.5079228575400092 13.295612742724192 87318.30850747901 9.054084580233694 0.2222844500633285
0.5238723269679612 13.261693504465057 75933.62761846629 9.44177346777917 0.22503615003862432
0.5401047740058994 13.231843552832743 66139.33337791976 9.839243910690636 0.22776173406232533
0.5566026439201186 13.205211369567932 57696.00932785641 10.252675650437746 0.230534099944897
0.5733790242017441 13.181833700796796 50405.140348992805 10.683028835289884 0.2333571013706844
0.5904407176929005 13.161523953580224 44096.341742444485 11.127305073870515 0.23618377773768884
0.6077642321626335 13.143775899352928 38631.770498778176 11.586356808777182 0.23902836262956298
0.6253647531171844 13.128494140191087 33891.38592720454 12.064249137911087 0.24193228907400038
0.6432321669259115 13.115473237422439 29527.791317212028 12.560634628748439 0.2448838207639016
0.6613606410465092 13.104511992982818 26183.12831663631 13.070538084360027 0.24781491695695576
0.6797558105878835 13.095307319419902 23054.55685890655 13.601395145710917 0.25080464991735546
0.6983986154533623 13.08781759657567 20325.8597448761 14.154111347972282 0.2538547327434868
0.7173116634028028 13.081954980296157 17939.464918195674 14.722621774458553 0.25690048031061463
0.7364734872631679 13.077467679356321 15851.388236715244 15.31263377822007 0.25999514314403327
0.7558748455499822 13.07419137423307 14022.501430764749 15.92689592079797 0.2631557713193777
0.7755163599328773 13.072056074126005 12417.999162520693 16.562413762638197 0.2663406902073236
0.7953962583385478 13.07099611196758 11009.104616689356 17.218470318525878 0.2695399779241769
0.8155144972211235 13.070724567326016 9768.153703582413 17.90156868334174 0.2728111407088548
0.8358533770932913 13.071307053332875 8677.41672025734 18.612314417686957 0.2761521203010546
0.8564104703844296 13.072615531866042 7715.340673138761 19.34234409007197 0.27948350950809375
0.8771831301890335 13.074477944134724 6867.146729157448 20.10239954195163 0.2828857784080819
0.8981516414129438 13.07680333952855 6117.122007537331 20.893731526896307 0.2863606076588312
0.9193336305011826 13.079716713130326 5454.917801005116 21.710887959480253 0.2898570940135069
0.9407020673454536 13.08288866108378 4868.473371397312 22.557255748716365 0.29340135150590146
0.9622426294335306 13.086245818179979 4348.7719956082165 23.43842540540003 0.2970289938230894
0.983974632660046 13.09002616613161 3888.3391354786063 24.354778108055097 0.30073364109356315
1.0058591233169007 13.093771375001696 3479.4813220619358 25.298020431495384 0.30443380343793963
1.0278996783016254 13.097614345150493 3116.338008905828 26.280093576298622 0.3082203934702488
1.0500950622345908 13.101479813609872 2793.279885082513 27.302495873718378 0.312095314092229
1.072417727421923 13.10529867424549 2506.1243339592147 28.361454116961927 0.3160251394952026
1.0948663996062669 13.10896998826564 2250.1752173927043 29.457186249224005 0.32000436212310523
1.1174221782008789 13.11243133317209 2022.067116040017 30.59791473922838 0.3240727399779659
1.1400990172882672 13.115822682041564 1818.6115263934926 31.785490525585846 0.3282309165462723
1.1628532076919718 13.118866000294135 1636.8638574076658 33.014182137806074 0.33243943038992496
1.1856823811722363 13.121546154653002 1474.4840608948625 34.28870119026191 0.3367223537550413
1.2085775780085102 13.123874028091862 1329.2900210253351 35.61568523887543 0.3411109240901117
1.2315435800336976 13.12580666692217 1199.2083128007391 36.99715373327884 0.34560417144196715
1.2545291155819183 13.127242161379924 1082.8526741269088 38.42925725297945 0.35015770623222126
1.277534207009013 13.128140711337648 978.4808131130227 39.914454786593836 0.3547907681371681
1.300549825694751 13.128484088319981 884.8569848107488 41.46106994298807 0.3595409502526279
1.3235852686310072 13.128348413012244 800.7719496747453 43.071560238472735 0.36441042083944153
1.3465697978788895 13.127445197832607 725.2925858087972 44.748514188387134 0.3694011577515921
1.369536294770236 13.125932584024744 657.4108547748503 46.48399060337837 0.3744447493044522
1.3924426719402605 13.123669298275345 596.3137060672465 48.291310830146095 0.37961759194211775
1.4152674576346422 13.12066281083708 541.3645584861013 50.1740385034954 0.38492573401629543
1.4380183160533768 13.116890181247639 491.8116878385024 52.135364830572605 0.3903720053753781
1.4606737106651855 13.11228998507552 447.13045567635254 54.17867329329127 0.39595803090578774
1.4832165181553059 13.106832698194369 406.81901832311684 56.30217095374521 0.40165177441858013
1.5055893211599187 13.10045404097564 370.4517315086701 58.51115855178742 0.40748043199293293
1.527843531304372 13.093261547252975 337.5974912013882 60.81397486084837 0.4134697405556348
1.5498909586181215 13.084948176378028 307.84591627351125 63.21487084693453 0.41962282193241324
1.5717576210819784 13.07572677507032 280.9738258418255 65.71836209630678 0.4259405250092613
1.5934063722556921 13.065439408013942 256.63359512583327 68.32931153356161 0.4324282633692006
1.6148228049001765 13.054192262101472 234.58880860133516 71.05277298987855 0.43910104223115176
1.6360066773353548 13.041770125556168 214.59451252680014 73.89418479730082 0.4459660303417209
1.6568971834058257 13.028354845151188 196.47775215608033 76.85605678773913 0.4530121436014383
1.6775038896353873 13.013669895151084 180.01696318247724 79.94658824533009 0.46025116748479233
1.697790161012799 12.997860420650591 165.07584999223994 83.17439865313426 0.46771139717213006
1.7177662286580297 12.980965626222437 151.50030281497843 86.54655341261389 0.47540339107360946
1.7373808801093218 12.962793608537206 139.14663957443457 90.07057401322848 0.48333198238586095
1.7566358057734242 12.943349651884017 127.89608284395675 93.75451401816264 0.4915047946941762
1.7754694863207152 12.922639928801889 117.66664483117145 97.60703060301977 0.49994086570617846
1.79392437775538 12.900760986811775 108.33917369688588 101.63736196310465 0.5086562216587142
1.8119524631836046 12.877584906133128 99.8408364087122 105.85538914084782 0.5176581423203713
1.829503110647077 12.85289660372984 92.07559534958268 110.27172417226761 0.5269592888749585
1.846608617490572 12.827085030103976 84.99835676390735 114.8977756873157 0.5365832691730711
1.8631838643891494 12.79967898310547 78.52734348120693 119.745786807485 0.5465498365834237
1.8792618359851876 12.770911383209373 72.61050804391326 124.82728459103726 0.5568614001187027
1.8948218969251798 12.74088644432824 67.20599074417923 130.15209031472617 0.5675260086077234
1.909863374432196 12.709559035130004 62.25502384275892 135.73995981647565 0.5785897718836744
1.9242746950794438 12.676411855661044 57.71778725458191 141.60721024171474 0.5900712222207947
1.9381285999913835 12.642164506135096 53.57387832264807 147.7714288761961 0.6019885653543163
1.951356881588055 12.606234480118692 49.76459658437165 154.25155398409007 0.6143772087226647
1.9639671771610112 12.568936700197554 46.27514802193033 161.06805690779768 0.6272691625474452
1.9759351332769635 12.530190630938755 43.07369175131032 168.22799975373067 0.6406294327035951
1.9872531529864172 12.490018523093912 40.1318787618226 175.76779516871068 0.6545465426062648
1.9978920460464789 12.448241494726474 37.42578487864519 183.713875952289 0.6690624469028423
2.007809702583328 12.404894630258047 34.94002949224061 192.08935281682386 0.6841852963323994
2.0170402271560857 12.360289217073888 32.65863466586837 200.91180484961802 0.6999259812605008
2.0255294875324346 12.313932786440969 30.553582186741234 210.2291161466785 0.7163850669527817
2.0332619866128563 12.26604275681849 28.61570478152971 220.06695463333972 0.733562139824844
2.0402622698394755 12.216808165359996 26.832060733747284 230.45591907498286 0.7514986559109335
2.0464778235712497 12.165992711298783 25.188233354857523 241.4522751546869 0.7703013436472328
2.0519310053187785 12.113752936487856 23.673410349552434 253.07189570163933 0.7899168107906009
2.056563747852393 12.059929591739428 22.276311345453948 265.39118011936586 0.8105202915179915
2.060399542641393 12.004670100310753 20.986175334102587 278.43078565201284 0.8320677165445893
2.0634143338234137 11.947924901654167 19.796992188674345 292.27247507638003 0.8547083157262417
2.065600863663933 11.889724408445794 18.69883241583281 306.9543804472283 0.8784558380883222
2.066966778579888 11.830078885561349 17.683249797280833 322.55436174435715 0.9034109106555874
2.067466716806832 11.769056552659046 16.748331153718258 339.14634134495066 0.9296824763658385
