M[M_sun], R[km], Lambda[1], P_c[MeV/fm^3], rho_c[fm^-3]
0.23841724892012095 16.20908015294055 2780876.1263280716 3.453507347168396 0.169602847481901
0.24841232298685442 15.866347886949109 2282442.3126044166 3.6355212465319084 0.1719781186211586
0.2586912128331049 15.563076156841953 1881857.4174941683 3.824710033813476 0.174374224112517
0.269253364169798 15.2937673843748 1558304.7243215162 4.02017504600172 0.17676536767058693
0.2801049135344881 15.05405441751724 1295660.0811663487 4.222252247906514 0.1791436976024454
0.2912314633323301 14.840019475706837 1081384.5367545683 4.432306093834331 0.1815458377851677
0.3026497064536428 14.648713495743083 905770.3933761796 4.650684043977227 0.18397565609748065
0.31434889806287436 14.477287451515071 761228.9190702956 4.877753218886621 0.18643480631286816
0.32633147417539626 14.323486446390014 641786.9968737061 5.110813870474769 0.18886332385969193
0.33859898435637154 14.185189688847338 542640.0949788523 5.353085414399125 0.19131390743862467
0.35114571312082227 14.060932792353075 460169.19775803597 5.605051911665869 0.19379445011276936
0.3639787483391542 13.949100313094153 391341.2325972352 5.867125642500043 0.19631057909522417
0.3770985439502304 13.848479099579688 333538.1761758885 6.136186155633564 0.1988021262121761
0.3904982992090532 13.757810067635127 284981.456322561 6.415683849961917 0.20132404531629708
0.40418257802571167 13.676235839034675 240962.25983001868 6.706416708608292 0.20388061596253815
0.4181518363034944 13.602808815487606 209520.77147801575 7.008463125273576 0.20646296775149134
0.4324057632879206 13.536826809370046 180226.78624136868 7.318481880758662 0.20902218796134314
0.446941994151001 13.477408929724216 155336.40753974867 7.641040087457279 0.21162587548049333
0.46175938648992376 13.424186446349085 134148.96106334007 7.976671475521628 0.21427408082615668
0.4768622549662421 13.376428729739127 116055.78333539555 8.323423865814206 0.21692890535580836
0.49224694782717493 13.333714747162583 100587.47002275373 8.681289575680609 0.21958145287298828
0.5079097291113778 13.295629106063101 87329.0280800757 9.05375234230311 0.2222820906256417
0.523859696316012 13.261855426640032 75947.78204048832 9.441416727093403 0.22503370375178447
0.5400852996352871 13.231745053315459 66148.76054286672 9.838846775534014 0.2277590107774687
0.556586141584342 13.205205374844894 57704.108030289826 10.252251075639847 0.23053129426654256
0.5733617280808617 13.18187415114817 50411.26044861395 10.682575600099744 0.2333542176936173
0.5904211189406144 13.161474452349168 44101.67291367725 11.12680339602226 0.23618058584761153
0.607750322546936 13.143849624486679 38638.48806765689 11.585823090006562 0.23902508051890947
0.6253421503329138 13.128531760257472 33897.12587289183 12.063681856145335 0.24192891598969468
0.6432125153019765 13.115497574511835 29772.615288702338 12.560009567712164 0.24488010412131084
0.6613340812644807 13.104409823666547 26185.749847169292 13.069875511270105 0.24781111663599012
0.6797334021362432 13.09529564723957 23056.968118455352 13.60069335314402 0.2508007659895259
0.6983728639413406 13.0878526365658 20329.46539543468 14.153368476163987 0.2538507528692446
0.7172870373660907 13.081940077479784 17941.911346971607 14.72180753392074 0.25689611808430957
0.7364441242124456 13.077485728362838 15854.33252860334 15.311773563794135 0.2599906799152616
0.7558438566903096 13.074223676174135 14025.566578518125 15.925987525104853 0.2631512188640251
0.7754857876039937 13.072070384353102 12420.03317082217 16.561420933931775 0.2663357146131051
0.7953650609609871 13.070983321724368 11010.852162165489 17.217423681602913 0.26953490477622666
0.8154833606066323 13.070720618610752 9769.928901929545 17.900465576916584 0.2728059553719947
0.8358206498478884 13.071335931480856 8679.194936595903 18.61111165482198 0.2761464665123761
0.8563647267741484 13.072560407975113 7717.068499763407 19.341078059796832 0.27947773522322145
0.8771470930984893 13.074461410820637 6868.087460897503 20.101067095766098 0.2828798988491204
0.8981150174822493 13.076794359447156 6118.673636718904 20.89232936963901 0.2863546080441653
0.9192922920496898 13.079731607554665 5456.140560336946 21.709363732166754 0.28985057207989595
0.9406628517727599 13.08295696985958 4869.602839883672 22.555653367772386 0.2933946887477429
0.9621989455751324 13.086271589176786 4349.926889285182 23.436740720373802 0.29702218294801264
0.9839282372739335 13.089999430970144 3889.2033963994368 24.352949620409923 0.30072624885065913
1.005817113146147 13.093740852541892 3480.234857436469 25.29609964636439 0.30442627606245287
1.0278542013505194 13.09761395316588 3117.3916726311572 26.27807570218768 0.30821270447698684
1.0500620491593855 13.101604452689042 2794.0758897281858 27.300375650329315 0.3120874458804393
1.0723801017681087 13.105414071961187 2506.7198574348067 28.359157683237278 0.31601661736163883
1.0948140483309274 13.109000041192482 2250.814804698471 29.45477461631382 0.31999564106036693
1.117375439821946 13.112491718557907 2022.6291828417181 30.595381697197876 0.3240638414690354
1.1400478209388245 13.115831518420231 1819.0643042309916 31.78282948930955 0.3282218019662622
1.1627966958394298 13.118864074898738 1637.301431518534 33.011304656507015 0.33242957444254034
1.1856297006983771 13.121498052859254 1474.8142502472094 34.285679370296656 0.3367122502817406
1.208525157623294 13.123862267570113 1329.5466991869266 35.612510821337416 0.3411005576618666
1.231481635221441 13.1258045938668 1199.5304489801856 36.9938181789654 0.3455935656705253
1.2544724300909582 13.127215177187594 1083.0984455929183 38.425654893908025 0.35014625212493566
1.2774975010665144 13.128272711168862 978.7094712839954 39.910670527968186 0.3547790043335885
1.3004907978616045 13.128470484112167 885.0539124653121 41.457093115530434 0.3595288548677637
1.3235273824630442 13.128358344448396 800.967779765445 43.067379474959225 0.3643979749677634
1.3465092140696784 13.127439291630274 725.4539982425705 44.744117651132164 0.3693883806616994
1.3694751224545674 13.125931204589364 657.5806225757359 46.47924865816355 0.37443096839989887
1.3923776653361373 13.123672104285925 596.4765901739905 48.28632445749474 0.379603389662583
1.4152114833158729 13.120700559517726 541.5074475642219 50.16879289157514 0.3849110835107619
1.4379533492121714 13.116879335194085 491.940193220423 52.12984422029888 0.39035688502847565
1.4606085814383434 13.112283794310315 447.2596557368571 54.17286113476331 0.3959424467398477
1.4831511288602262 13.10686336881444 406.92814715323385 56.29590711715236 0.40163497916628016
1.5055263287649205 13.100471226409912 370.5527422463371 58.504563205115765 0.4074630635921981
1.5277704900288271 13.093275908929813 337.6748328867335 60.80702728354706 0.4134517624147387
1.5498264022123465 13.084976910662284 307.94301321841635 63.207548970132315 0.41960420771468515
1.571684680011053 13.075746250461693 281.0486406686787 65.71064258095406 0.4259212633994329
1.5933392587220916 13.065483008266574 256.70843394520995 68.32116930604738 0.4324082707967563
1.614750665080295 13.054155380922683 234.6541174369619 71.04418093025592 0.4390802721902832
1.635934070383615 13.04183507628473 214.6596531347474 73.88511397335753 0.4459444514034448
1.6568301981261264 13.02842599387518 196.54181071937523 76.84628803977542 0.45298890434438055
1.67741688501486 13.013668823105846 180.0674457996122 79.93627170199646 0.4602270250026373
1.6977338043411514 12.997947131353571 165.11925099166464 83.16349849333696 0.4676862516478781
1.7176839596158768 12.98095319402886 151.53854484127675 86.53503092267245 0.4753771776823538
1.73731406000475 12.962787327413723 139.17867174288756 90.05838778568894 0.48330465814640494
1.7565625580816107 12.943433016476533 127.9410529587543 93.74161978262448 0.491476297921127
1.7754029943796066 12.922663062231404 117.69489908237199 97.59338059004673 0.49991108213785573
1.7938587262535952 12.900715974736398 108.35665502297516 101.62290455651429 0.5086250669295074
1.8118800248069604 12.877574758738582 99.86474833014239 105.84006898479637 0.5176255602804528
1.829434199531555 12.852899875992007 92.09627790894015 110.25548183143846 0.5269251837427258
1.8465316275613313 12.82706425561438 85.01613038988636 114.88054689610259 0.5365475055597696
1.8631231936068295 12.799785593623668 78.55067043333709 119.72750206643043 0.5465123033507817
1.8792100653205686 12.770997108910997 72.62752163338676 124.80814293957924 0.5568230145662374
1.8947738827252236 12.741058845350564 67.22672952859318 130.1317476345018 0.5674856348933769
1.9097852997684843 12.709504604230776 62.26487786066074 135.71832931930408 0.5785472742185906
1.9242169098377258 12.676612489023073 57.742745051733415 141.58419832827266 0.5900265064908176
1.9380626940312684 12.642191176955196 53.58674746895943 147.74693435600489 0.6019414482058628
1.9513015338791317 12.606423638454572 49.782552536797084 154.22546700431286 0.6143274984495416
1.9639292108020567 12.569140966840205 46.28985505378784 161.04025829576247 0.6272166761557063
1.975892713885943 12.530382488076308 43.08630129597392 168.19869639411064 0.640575163993509
1.9872074258162495 12.490138793528553 40.14199261489799 175.73652651436237 0.654489131396341
1.9978370490804567 12.448383516375745 37.43942274014191 183.68049071338714 0.6690016653498638
2.0077657226662633 12.40511180707049 34.95233086447817 192.05404476148752 0.684122147698454
2.0169910875590897 12.3603283618595 32.66495913701084 200.8740550212985 0.6998590011093835
2.025505118952248 12.314175715683476 30.562811875024757 210.18873094777354 0.7163139691293563
2.0332305645413253 12.26630162147097 28.625347358899884 220.02410999304576 0.733487948208804
2.0402329081201285 12.217023661349016 26.840054082485064 230.41001904891144 0.7514197610037833
2.0464672270597704 12.16630392414922 25.195911125366038 241.40347041537692 0.7702187628726861
2.0519020812411863 12.113979341523848 23.678557824084216 253.0195358533741 0.789828838877729
2.0565369513752474 12.060123371494463 22.28191680587132 265.33496823287777 0.8104265035288483
2.060382830254829 12.00493182886163 20.992731365741932 278.37083926148404 0.8319691663672639
2.063405618413531 11.948190678930379 19.802003738969493 292.2084609975079 0.8546044666901348
2.0655921876977965 11.88999311344204 18.70272010874978 306.88549854748004 0.8783448490103494
2.066956897156225 11.830372725840704 17.68768344126915 322.4806512226921 0.9032937467624215
2.0674683259579845 11.769409049608294 16.75307183972812 339.0673639642408 0.9295585474690689
