M[M_sun], R[km], Lambda[1], P_c[MeV/fm^3], rho_c[fm^-3]
0.23841724892012095 16.20908015294055 2780876.1263280716 3.453507347168396 0.169602847481901
0.24841475065024057 15.86622159548995 2282198.394682791 3.635557762307903 0.17197858311563963
0.2586978189829248 15.562872799319713 1881675.4297504013 3.8247851460557434 0.17437514296828674
0.26925965098931365 15.293532297568248 1558020.999420824 4.020296056873217 0.1767668480089994
0.28011337014265614 15.053892290663157 1295541.4874311655 4.222417957979386 0.1791456353246543
0.29124185251429774 14.839891668291688 1081229.8617966906 4.432518786821603 0.18154823101087675
0.3026627479547317 14.648540945292112 905625.8835717688 4.6509461239417 0.18397849456072518
0.3143660965859074 14.477039568459377 761046.47275791 4.878067187845901 0.18643807790385347
0.3263514434960853 14.323232155926169 641590.1100588571 5.111198041785068 0.18886732696687322
0.33862024210599984 14.184983274182892 542497.62807615 5.353528728259748 0.1913183308739836
0.3511714963411105 14.060722553884753 460031.28463268955 5.605557144576636 0.19379930592865027
0.36400809044703913 13.948964374907744 391163.0885387613 5.867695773709625 0.19631585860931927
0.3771303777256242 13.848219545690563 333396.93306747254 6.136850835642862 0.19880828126459005
0.3905336080223461 13.757580545309592 284880.429788869 6.416421995852057 0.20133062435364282
0.4042195509867421 13.67599119051849 243994.95822902158 6.707231626165915 0.2038875831162492
0.41819170577299936 13.602558535487344 209432.22361796457 7.009395488937552 0.2064709390130021
0.43244947109449455 13.536499402390191 180136.46998080352 7.319500672905151 0.2090305861872205
0.44698865748307914 13.47723250457122 155263.04611476153 7.642149295421172 0.21163469424982054
0.4618131393396586 13.423985375138228 134080.15108658362 7.977875242330546 0.21428329717113875
0.4769189784066188 13.376249311448602 115999.70859479666 8.324778680899884 0.21693927816483086
0.49230802024732956 13.333594002764437 100535.97336322548 8.68275038747676 0.21959220034808413
0.5079766045379237 13.295559439555575 87281.08335206976 9.05532388845974 0.22229325119728988
0.5239280044706631 13.261651654269693 75899.83088307797 9.443104182047366 0.2250452751789063
0.5401604174119329 13.231584610315261 66103.70497789915 9.840725316652359 0.22777189254453176
0.5566641457722976 13.20508503190174 57666.797287770474 10.254259419938258 0.2305445658223536
0.5734501364564305 13.181881077141009 50379.24750296827 10.684719522865846 0.2333678582516516
0.5905123424421471 13.161425181003278 44072.81382562989 11.129176481214008 0.23619568443548522
0.6078386431222212 13.143640720008838 38610.133525610385 11.58834774716478 0.23904060593156423
0.6254409371104342 13.128433413885572 33870.77877377227 12.066365286134888 0.24194487179178398
0.6433133331996906 13.115369375753286 29750.689648566084 12.562966332853275 0.24489768518718538
0.6614468801835186 13.104425526575852 25960.176111399513 13.073009732754773 0.2478290935924955
0.6798466331989133 13.0952763519798 23039.89524624902 13.604013108828589 0.25081913850029186
0.6984934059385214 13.0877402971938 20311.404173746974 14.156882564637513 0.25386957930745974
0.7174103535241264 13.081938923596525 17928.229963962276 14.725659252562942 0.2569167533482154
0.7365758870446326 13.077448408856807 15840.979736756663 15.315842772814445 0.26001179303569966
0.7559820698823313 13.0741758568535 14013.250059195614 15.930284667795606 0.2631727541381259
0.7756250643841133 13.072028596096995 12409.881950645411 16.566117518287662 0.2663592517024504
0.7955143025566526 13.070964971036453 11000.95352158044 17.222374822327723 0.26955890342262284
0.8156372045866198 13.07077898041515 9761.798195722298 17.905683864928434 0.27283048481045824
0.8359777916016085 13.071356082975832 8671.253665020702 18.616801413007654 0.27617321217550755
0.8565369873440504 13.07262931112715 7710.117163474941 19.34706712856364 0.27950505099114453
0.8773181059364636 13.074503981254056 6861.449770124451 20.107370371332884 0.28290771271563736
0.8982914575221475 13.076850325668097 6113.10455694458 20.898962442159615 0.28638298993854083
0.919476229776476 13.079732091540064 5450.6386186832815 21.716574325551125 0.28988142509698334
0.9408409974094174 13.082858953851849 4864.471607410286 22.563233703601206 0.29342620805941355
0.9623922708037566 13.086279494216228 4345.4592109763325 23.444710435682705 0.2970544030571257
0.9841247199053393 13.089955281380984 3885.044069319979 24.361599687001753 0.30076121949623696
1.0060186497774868 13.093804583048795 3476.759406899525 25.30518637649029 0.3044618860994637
1.0280650691518156 13.09763680867389 3113.806369159686 26.287621766227037 0.3082490792050628
1.0502654729383707 13.10152830415903 2791.1401921187785 27.310405936866808 0.3121246685708387
1.0725906778967595 13.105322450328368 2503.993950639606 28.370021665683478 0.3160569339222463
1.0950463686207634 13.108983931378313 2248.2645415227785 29.466183622225394 0.3200368988554139
1.1176061774281547 13.112489917211969 2020.413947567636 30.607365108821636 0.3241059388736847
1.1402786328537373 13.115828431403013 1817.0164083365926 31.795418464248208 0.328264921716393
1.163047960849288 13.118886378137045 1635.4179028282317 33.02491771175052 0.33247620187197574
1.185881070620018 13.121541326980234 1473.1559423500676 34.29997532637434 0.3367600488972104
1.2087812007342944 13.123872614113422 1328.0488339193466 35.6275287561848 0.34114960046802567
1.2317444922242278 13.125808287092227 1198.1448212891232 37.00959849698049 0.34564374097286515
1.2547404808070366 13.127262919622632 1081.856149211567 38.44269759287579 0.3502004413100064
1.2777540717446798 13.12819746596148 977.5469995719766 39.92857385666187 0.35483465889185417
1.3007664673622916 13.128497674084473 884.0240976591172 41.47590755820183 0.3595860783524482
1.323784355951412 13.128278519575565 800.0652410831879 43.08715881870064 0.36445685683785445
1.3468137932294746 13.127547417610192 724.6009270283881 44.764917909480346 0.36944882977319177
1.3697612689577587 13.125931847856414 656.759510170058 46.50168325596422 0.3744961671816177
1.3926670738150253 13.123645372550042 595.7499526525871 48.30991555967105 0.3796705822795548
1.4155042132852251 13.120604557792698 540.8178498052041 50.193610586425734 0.3849803970210375
1.4382631465388729 13.116866624153143 491.3172148847899 52.15596307895318 0.3904284217216974
1.4609039387771117 13.112197955135441 446.70277156811443 54.20035947097257 0.39601617814832524
1.483456009270378 13.106802625309863 406.4154327246508 56.32554269116998 0.4017144411597888
1.5058398530809278 13.100385908984162 370.06848946703667 58.535767363665656 0.40754523763963935
1.5280790509679512 13.093117939067195 337.24505897636 60.83989807838936 0.41353682167430683
1.5501600484851215 13.085061877558951 307.5706030638114 63.24219083421366 0.41969227682837495
1.572007620860584 13.075704679332956 280.68946125322896 65.74716595870582 0.4260123959407549
1.5936502698004338 13.065340122072389 256.3685693634128 68.35969285108536 0.4325028622047753
1.6150703996373619 13.054022485436526 234.3480735688479 71.08483298097725 0.43917854254593214
1.636245114902535 13.041677539630818 214.3805706254654 73.92803144538095 0.44604654945821354
1.6571502635560036 13.02824232902186 196.27878220290884 76.89250810570778 0.45309885906912295
1.677759139611317 13.013562957312834 179.83117596675842 79.9850838780934 0.46034125387293423
1.6980407983135235 12.997693744063715 164.89953797357424 83.21507230041165 0.4678052270061002
1.718008934793771 12.980788405144896 151.33515268584924 86.58954957218968 0.4755012063165974
1.7376285113213963 12.962607148615323 139.00223315881632 90.11604723909444 0.4834339434979744
1.7568822220695273 12.943175921672132 127.76301925738024 93.8026295522128 0.491611131936885
1.7757326599007 12.922486420687466 117.54326859602925 97.65796674966 0.500052005542203
1.7941614446261194 12.900369356187257 108.21215378641485 101.69131138752957 0.5087724790039244
1.8121859157027032 12.87728626336125 99.72772729412162 105.91255846965944 0.5177797268099283
1.8297317261449895 12.85251987933544 91.97402377527338 110.33233526229041 0.527086558045193
1.8468200663228858 12.826561813278877 84.89982261153395 114.9620684287379 0.536716728375976
1.8634056046946093 12.79920347848758 78.43480868955669 119.81402063085707 0.5466899006925641
1.879485187969445 12.770578501080625 72.53992674295277 124.89871644085198 0.5570046453880448
1.8950512739615066 12.740558971556592 67.12969499772429 130.2280047968768 0.5676766745761852
1.9100488036350143 12.70887718948158 62.18393232980443 135.82068090946564 0.5787483654632799
1.9244700376599038 12.675980306576756 57.66288141526075 141.6930873548563 0.5902380948197254
1.938311862436379 12.641575102031327 53.51689576284705 147.86283976229154 0.6021644014293571
1.9515431919370503 12.605707807955424 49.71325489964552 154.34890873941845 0.614562723930578
1.964156730468639 12.568416829169026 46.22836841381187 161.17129605015467 0.6274632615094315
1.9761179949771128 12.529651898199935 43.02688848323601 168.33735959169334 0.6408319629737895
1.9874094625051617 12.489340800308609 40.089803029613336 175.88449074135758 0.6547608029944406
1.9980468255540904 12.447633294264307 37.39001301431761 183.8384720789343 0.6692892880554506
2.007951414084898 12.404223290126959 34.90379392784039 192.2211259672475 0.6844209732724252
2.017173625449281 12.359528234876167 32.623240538458475 201.05269260150303 0.7001759607526443
2.0256666623020703 12.313226826074605 30.52231727691618 210.37984130276539 0.7166504173985837
2.0333862631331954 12.265336706010354 28.586313612704057 220.22686021009332 0.7338390391772891
2.0403712723772793 12.216038376422954 26.804368196578377 230.62723020495022 0.7517931127304464
2.0465760389101573 12.165139657794592 25.16183129272164 241.63442911559426 0.7706095599268638
2.052009939896543 12.112852730516101 23.647473095861592 253.2673210223654 0.7902451528285837
2.056623737092093 12.059037485696583 22.253504544591266 265.6003360001063 0.8108682447434529
2.0604591766135187 12.00368536697065 20.96497163284866 278.6545320204797 0.8324355492713609
2.0634680580711833 11.947042743068257 19.778391397081087 292.5114064690087 0.855095930376915
2.065636168566993 11.888770216912787 18.680547080141597 307.21148472027227 0.8788701089825964
2.0669808258856537 11.829092054697448 17.667837697310805 322.8294923012029 0.9038482344791174
2.0674622517545944 11.768032810378365 16.734325973315908 339.44113455219093 0.930145056874588
