M[M_sun], R[km], Lambda[1], P_c[MeV/fm^3], rho_c[fm^-3]
0.23841724892012095 16.20908015294055 2780876.1263280716 3.453507347168396 0.169602847481901
0.24842684208173343 15.865907011511672 2281618.0428076885 3.6357915077742193 0.17198155644637433
0.25872217171706996 15.562229627978356 1880781.7311338203 3.825265980660697 0.17438102506736552
0.26930200180451436 15.292585017552192 1557044.6447188633 4.021070756058486 0.17677632498365362
0.2801690942390033 15.052750566504471 1294272.1588123075 4.223478869646958 0.1791580410406395
0.29131381119242217 14.838564440713586 1080063.797145914 4.433880558956788 0.1815635536979365
0.3027524248169614 14.647152386154412 904390.9713989133 4.652624176068833 0.18399666874391712
0.3144711096001812 14.475601385913187 759877.7124463443 4.880077567727377 0.18645902628267536
0.32647397212744766 14.32176979088616 640490.4496945451 5.11365807297293 0.18889296076161613
0.3387630579543652 14.18349795455883 541506.5273152277 5.356367602753587 0.19134665748167848
0.35133380187739394 14.059222580484011 459076.4437634768 5.6087926728303925 0.19383040273399083
0.36418782712468756 13.947361568472461 390263.07405217236 5.871347065965223 0.19634967021023622
0.3773326728817806 13.846738618251166 332579.7002266285 6.141107890288581 0.19884770233052695
0.39075873297354047 13.75614075928824 284142.66252048383 6.421149768069207 0.2013727626225059
0.40446741029400957 13.67467203013315 243330.8253825542 6.7124513233217336 0.20393220901989983
0.41846291760740534 13.601239529966056 208827.9770743092 7.015367799728824 0.2065219994017539
0.43274273389010354 13.53528348790353 179596.53197765542 7.326026859443889 0.20908438360689932
0.4473067930182549 13.475936480738461 154762.7955259889 7.649254938008155 0.21169118773430315
0.46215754131345 13.422781822707742 133627.61718828243 7.985586920410895 0.2143423397407234
0.47729137792079496 13.375292465872588 115600.4118329921 8.333458537043564 0.21700573335201687
0.49270533685490164 13.332600318420042 100171.94121060653 8.69210966926122 0.21966105839547842
0.5084023086980458 13.294590696156208 86072.94476756276 9.065392992795951 0.2223647584577692
0.524378833934237 13.260806843835176 75608.84368025637 9.453916307542345 0.22511941743787656
0.5406350203805619 13.23082225150112 65843.8279058124 9.852762534547713 0.22785443566030425
0.5571740523535117 13.204380662431017 57431.32738312233 10.267128825072902 0.23062960952160108
0.5739870087283591 13.181131611571814 50164.443639944366 10.698458173201523 0.2334552694495641
0.5910796562025288 13.160827146990012 43879.655992508975 11.144384596795598 0.23629244500282615
0.6084417341237714 13.143092613670973 38434.65713927564 11.60452775940417 0.23914010513127068
0.6260786773525814 13.127904856224086 33711.99024855229 12.083563403128188 0.24204713261175018
0.6439770766036509 13.114903373729028 29609.07835443868 12.581917467944962 0.24501036953597316
0.6621497839521193 13.104033143768788 26037.52372550321 13.093098905742606 0.24794431907697306
0.6805787422770453 13.09505468207297 22925.84084776024 13.625292161824868 0.2509369030791979
0.6992614888562603 13.087496361864767 20208.252368120033 14.179407965518093 0.25399025727875857
0.7182153657433117 13.081724052491355 17834.32532143789 14.750350484862963 0.2570490345821269
0.7374112232611373 13.07735808379021 15758.44973497817 15.341929028788087 0.2601471417635241
0.7568523026772326 13.07410242387656 13937.645785730385 15.957832978584571 0.26331081341763996
0.7765325377367635 13.072041076983426 12341.420821496353 16.596228601131877 0.2665101543997049
0.7964486900675168 13.070890044138528 10939.244364551912 17.254118908559214 0.2697127700046859
0.8166178994032812 13.070837472908298 9706.07799002045 17.939141779857458 0.272987759354045
0.8369948791845812 13.0713551500852 8619.752297074821 18.652334854872652 0.2763364205586489
0.8575895053594322 13.072687823994265 7664.243649356469 19.385470833219323 0.27968020788524717
0.8783985220664392 13.074553506446998 6820.549259450269 20.147790094947368 0.28308606899807376
0.8994165083776112 13.076997443782208 6075.5615612096 20.941498280035646 0.28656499422901427
0.9206427920785207 13.079935910880616 5416.757894343922 21.76281687079949 0.2900792898166614
0.9420440042898752 13.083110531961532 4834.056429580235 22.611848940519085 0.2936283519800738
0.9636357710513798 13.086572122664666 4317.648605957296 23.495824460921327 0.29726104776230805
0.9853985290919106 13.090161178355386 3859.9369278962727 24.41605989675997 0.30097748341425146
1.0073351071083638 13.0939913217844 3453.626210678435 25.363470403509336 0.30469029569571343
1.0293944892981248 13.097940617059379 3094.369830583053 26.34885394371751 0.30848240089623646
1.0516539146976986 13.101773430255879 2772.3059856076015 27.374746115708625 0.31236343688003093
1.074018995221134 13.105583524533248 2486.863122080816 28.439714818583127 0.3163155672767018
1.0965133595362546 13.10927419632989 2232.644980742905 29.539375454705404 0.3203015786747584
1.119110619953382 13.11279460879573 2006.2269570181174 30.684244366216326 0.3243760136494912
1.1418208335909257 13.11605538194938 1804.038122760121 31.876185305111118 0.32854156425590336
1.1646078835229186 13.119036932141482 1623.5824548233438 33.11226138174282 0.33277537136305235
1.187486941867329 13.121715494700949 1462.3745541171425 34.3917036241103 0.33706674301457845
1.2104125747042211 13.123990606888178 1318.300943563292 35.72389277029378 0.34146428832042897
1.2334138160655868 13.125962295192002 1189.2788265895456 37.110857851764635 0.3459657065210992
1.2564329459979007 13.127338194179906 1073.7662836236877 38.55206602050328 0.35054819057066133
1.2794759213509606 13.128192838623344 970.1917003341313 40.04346920301616 0.35519182430268553
1.3025315575712708 13.12851872682159 877.2807863752012 41.59665428441224 0.3599533253955141
1.325589948587009 13.128272101240487 793.8604597053954 43.21410263374358 0.36483476064113257
1.3486099937392708 13.127342349875258 718.9518298056238 44.89841885232398 0.3698368063667132
1.3716091769119327 13.125771063371898 651.6042801150627 46.64568556435422 0.3749146625411135
1.3945324984915186 13.123456760915237 591.0753800387785 48.46134690678068 0.38010189186516985
1.4174021418684664 13.120456267336362 536.5270982224853 50.35292158243011 0.38542533779515203
1.4401773547639094 13.116555341423176 487.37997391824723 52.32363318625245 0.39088765178175044
1.462856268921262 13.111846191979117 443.0646692823252 54.37689224692262 0.3964895162482815
1.4853897193304817 13.106249226248622 403.1264187339976 56.515812319976376 0.4022246119430551
1.5078015472907225 13.099797824080932 367.04921987055565 58.73611613495438 0.4080728426192883
1.5300470015923262 13.0924690208228 334.48733301995696 61.050956621475606 0.41408297467993316
1.5521127684479827 13.08400257142824 304.9912070322396 63.464630867829 0.4202577803637402
1.5739947778491588 13.074696481794724 278.34644034489025 65.98169791765064 0.4265975962906549
1.5956681875383458 13.064453295775445 254.2433806721893 68.6070800326181 0.43311030115682275
1.617071870386584 13.052868216906939 232.37784172648338 71.3459010502113 0.43980963621911684
1.6382461654909748 13.040389066391255 212.5720666314189 74.20366131721516 0.4467022561534978
1.6591552459628167 13.026778430633977 194.60402907208302 77.18624542326374 0.45379149148979725
1.6797534685025552 13.011960258285765 178.29426490196423 80.29861601025858 0.46107497287755084
1.7000507721137292 12.996046895606616 163.4862303364687 83.54635999198297 0.4685694729288843
1.7200064159971957 12.978946827965554 150.0358695465997 86.9397720349313 0.4762979541106075
1.7395782275135363 12.96052538499563 137.80339664657356 90.48646585535711 0.4842645046324096
1.7588332496079837 12.941001479795597 126.65818259245646 94.19459304502759 0.4924773868354589
1.777673726741744 12.920185903308552 116.52255462615605 98.07293058642486 0.5009574335303054
1.7960979927109415 12.898044397003286 107.28119951211873 102.13084840170006 0.5097196514146363
1.8140622065751624 12.874521875211762 98.86167240526503 106.378355619987 0.5187703577992534
1.831602762306031 12.84974474555363 91.17576355354969 110.82620401504015 0.5281235673836416
1.8486591061677748 12.82362922150887 84.1606578325137 115.48596767745586 0.5378042411276438
1.8652265079152777 12.79623577097461 77.7616014014405 120.36565379727064 0.5478148822706728
1.88126832300651 12.767212684320327 71.8992835568875 125.48084153415728 0.5581720051302
1.896772372399669 12.736935127117945 66.54831350420692 130.8467012842351 0.5689045892350348
1.9117363768396414 12.70531152592355 61.64953675488001 136.47859528591695 0.5800409767519833
1.9261115936027404 12.67200899588139 57.1591632598207 142.3930741446137 0.5915982781159604
1.9398860752735219 12.63746726481138 53.055487935715405 148.60798536539426 0.6035977479789858
1.953076379239867 12.601354328020868 49.2811798657389 155.14256417730806 0.6160750810113905
1.9656185852802992 12.563792256784113 45.826835781092385 162.00728713010986 0.6290256652848684
1.9775086443299388 12.52476836965415 42.6579647965207 169.2289875265649 0.6424832240759144
1.9887495221903138 12.484298284979072 39.743317212933064 176.83600297560932 0.6565078391162107
1.9993052882871096 12.442303368496086 37.0690040118401 184.8544858585692 0.6711390545212605
2.0091427184115216 12.398700723116583 34.60829847396674 193.29571935777835 0.6863428889376275
2.0182863371928277 12.353776239254504 32.34740423963681 202.20171217684558 0.7022146853831693
2.0266851862881112 12.307167934890018 30.26629069445748 211.6091977425972 0.7188146896927903
2.03432987896935 12.259067718004294 28.348706665920243 221.53117249684072 0.7360976422536735
2.0412194597085804 12.209497509018052 26.583797362912264 232.02470334561812 0.7541951487011058
2.0473520349153578 12.158489173374827 24.95785062191356 243.1204508342526 0.7731240047585559
2.0526796540823553 12.105826847825668 23.457428435881443 254.8617655144972 0.7929240439367155
2.0571950680609365 12.051740905287023 22.076034388532413 267.29950483060543 0.81368332045626
2.0609054942752145 11.996179751749624 20.799768658689917 280.4803617242341 0.8354371618702804
2.063814110165648 11.939145276884917 19.622441656659984 294.4613039591642 0.8582592184914655
2.065863395528593 11.880639425263656 18.537368807978705 309.3099145838475 0.8822512990572022
2.067091767797721 11.820702278376698 17.534560600491872 325.0752413192786 0.9074178835887381
2.0674729988261107 11.759345640072363 16.60778074487963 341.8475954997174 0.9339212019893749
