M[M_sun], R[km], Lambda[1], P_c[MeV/fm^3], rho_c[fm^-3]
0.23841724892012095 16.20908015294055 2780876.1263280716 3.453507347168396 0.169602847481901
0.2484319262920239 15.865744315544646 2281710.799880735 3.635868115757677 0.17198253092889726
0.2587314770683234 15.561819343112893 1880396.942242016 3.8254235792001494 0.17438295298647574
0.2693146948417243 15.292283014653792 1556742.32990308 4.02132468769515 0.17677943135543034
0.28018649869457357 15.05244656057818 1293931.6376206789 4.2238266361509185 0.17916210763035587
0.29133668623410186 14.83820464267647 1079711.9435999212 4.434326972158875 0.18156857674813573
0.3027802956558146 14.6466365869716 903992.7637808569 4.6531743011007425 0.18400262688606703
0.31450675548182966 14.475079904952432 759457.1590057401 4.880736676076425 0.18646589426394983
0.3265153911931437 14.32125405109791 640145.6718140455 5.114464652442334 0.18890136540813626
0.33880924741500984 14.183048161847113 541150.9086155803 5.357298442220417 0.19135594550214613
0.3513873586349241 14.058824968012296 458770.94467457384 5.609853623628709 0.19384059957910038
0.3642463862200217 13.946956134225486 389998.8460824784 5.872544406158423 0.19636075778853462
0.3773990668078426 13.846339738201502 332344.3263477977 6.142503965123738 0.19886063022615189
0.39083161967679925 13.755708193942821 283909.46188680234 6.422700284517089 0.20138658225593078
0.40454960805768364 13.674149280777586 243106.57880085954 6.714163249358393 0.20394684516527156
0.4185511420535192 13.600840022357003 208636.37872412542 7.017326695322593 0.20653874701821892
0.4328396681915877 13.534826553635142 179419.41908950277 7.328167519492762 0.2091020297447097
0.44741107061228524 13.475540389421305 154595.11388027237 7.651585767524602 0.21170971901835062
0.4622694418517399 13.422406850839057 133482.42177912616 7.98811665281977 0.21436170801572466
0.47741073821787183 13.374846188397404 115458.99051714592 8.336306065331888 0.2170275347531329
0.49283306837978624 13.332249577311272 100048.84239167253 8.695180218958726 0.21968364902384782
0.5085400570013521 13.294296033877881 86846.55152214163 9.068696552679464 0.22238821918567625
0.5245302503433374 13.260472856804942 75505.44530884897 9.457463786780119 0.2251437436561082
0.5407910255569736 13.230544723307935 65757.2434652832 9.856712245968902 0.227881520115362
0.5573390506166013 13.20417261170429 57351.544160471036 10.271351764121714 0.23065751557900235
0.5741677999829513 13.180914421838777 50092.47117825584 10.702966518890431 0.2334839534823943
0.5912686438078302 13.160606396648681 43816.033404752554 11.149375506436128 0.23632419931490867
0.608639594125705 13.142898333842751 38378.335963553 11.609837821970284 0.2391727594313974
0.6262834379078023 13.12776025368963 33662.28583196687 12.089207805829355 0.24208069449812797
0.6441943328948232 13.114799660187145 29562.932721800094 12.5881376658564 0.24504735512800185
0.6623795821237499 13.1039069066063 25995.666087571815 13.09969287752211 0.24798214012582284
0.6808230118427555 13.094919624013889 22887.701843379495 13.63227694880917 0.25097555895820245
0.6995163648420636 13.087495061811973 20175.157216206382 14.186802129698338 0.2540298709015062
0.7184843031849272 13.081812388284982 17804.777051976453 14.75845621056904 0.25709246033686933
0.737682979520277 13.077231563571097 15730.284242967413 15.350493024499128 0.2601915761172219
0.7571388927992678 13.074025585529736 13912.19067568783 15.966877281582434 0.2633561392441546
0.776830955782274 13.071966172643853 12318.665719157541 16.606115039323235 0.2665597006148654
0.7967685959714429 13.070946983694204 10918.211842958464 17.264541881249663 0.269763291137067
0.816943265483777 13.070904626956983 9687.796325469299 17.95012786289502 0.27303940128090165
0.8373298108021362 13.071386003049206 8603.819875321768 18.663912839293864 0.276389227021186
0.8579347398913025 13.072674096690783 7648.68564545758 19.398082325905115 0.2797377281143148
0.8787564042762575 13.074581025267479 6806.6821984076605 20.161064097481493 0.28314464193062566
0.8997905998876367 13.077044600532837 6063.019656497412 20.955467710735167 0.2866247672686378
0.9210222280771856 13.079929382766428 5405.552106421095 21.778004865581853 0.29014427690407074
0.9424390170811828 13.083159079712617 4823.826800929021 22.627816785741807 0.29369474686041286
0.9640504804367694 13.086633677817602 4308.429957379013 23.51261363300762 0.29732892333070304
0.9858137189976862 13.090212622920614 3830.586563578924 24.43371301586675 0.30104666432047833
1.0077683407444147 13.094107837015317 3446.271832327072 25.382616930600765 0.3047653291267615
1.0298650241504892 13.098019246220955 3086.245005289894 26.368969664364272 0.3085590506930073
1.052111103518401 13.101795437275184 2765.9331313232856 27.395883621083538 0.3124418787884894
1.0744870880097699 13.10562510939118 2481.122585429835 28.462612867174546 0.31640054261317724
1.0969897822224883 13.109361390166306 2227.535053288311 29.563423887517427 0.3203885437723182
1.1196127990933566 13.11287947934823 2001.4961722633288 30.709505293277793 0.32446475461088947
1.142326974672426 13.116144028872887 1799.8757600164874 31.902724595463706 0.32863246661882234
1.165131423172849 13.11914570119743 1619.8374788456704 33.1409642733307 0.33287368449174887
1.1880151017985972 13.12178741939624 1458.9152526231558 34.41167241246101 0.3371082391664662
1.2109670431763548 13.124078773740717 1315.0495874524427 35.75492442170393 0.3415694662976703
1.2221886540256823 13.119226227278137 1245.3138321558108 37.66555266665465 1.707839617004722
1.2091124064551153 13.096085655592589 1300.2913729348268 41.1519551027667 3.524365588473501
1.1879266937185085 13.06301923849696 1400.2643929660226 47.11256494431251 5.378133228446749
1.1605095706056494 13.017638931791954 1541.3414527916902 55.384045208220634 6.030240440967125
1.1280901089497986 12.956725518860592 1722.5380493707407 64.41647735857026 6.248310248891052
1.0916209223069424 12.877907122894873 1945.8022370963104 73.98824354112712 6.286927408524347
1.0535017887632838 12.783371788724583 2201.6045582615566 83.91715756051161 6.325832915636179
1.0148087987240535 12.673959948122986 2485.678712872553 94.19684152920514 6.366028657979149
0.9763002326202768 12.550071388780113 2791.4167140123996 104.60961536465733 6.406637345811599
0.938372037527634 12.411654378731663 3112.6916705717767 115.40533769523383 6.448647633013986
0.9015354414649484 12.258609523125763 3436.7260039206535 126.60586356832022 6.492137885621417
0.8662014665259742 12.09110648221598 3748.3930885220598 138.21244374684088 6.537103581629213
0.832609166059346 11.908803124896687 4029.8393620626493 150.23140790032676 6.583559827461903
0.8011538592922182 11.71232257921287 4259.743663241199 162.6720922421708 6.631533055090898
0.772082297410922 11.502044158290323 4417.397305221643 175.49604360385288 6.680858033920934
0.7456194301923351 11.279105650648473 4485.917034381865 188.7066899018808 6.73153588121463
0.7219393267749289 11.044808089836298 4453.569528452598 202.40141712983655 6.78393836106969
0.7011453329235832 10.801136250668357 4318.89415005069 216.59486270632854 6.8381011647463215
0.6832997494104817 10.550323266710635 4088.964546675668 231.30463573133352 6.8940857002874845
0.668376658820099 10.295232852030855 3781.354153673416 246.54989453635486 6.9519571244395095
0.6563099871751854 10.038643020642267 3420.0050592025464 262.3519656597632 7.01178345855952
0.6469805847310045 9.783410423884872 3030.059001586926 278.73392517890466 7.073627750244462
0.6402273001412498 9.532307557616134 2635.6925647316843 295.7218437575669 7.137564933470621
0.6358493619907986 9.287661181158766 2256.163637805181 313.3429247973195 7.203698388608994
0.6336556841762775 9.05176022791481 1906.4549846108318 331.62655678562305 7.272118152085691
0.6334318719004984 8.82593824694708 1594.777910092608 350.6048724402052 7.342912529742175
0.6349617195151822 8.611311505991473 1323.9688918023853 370.3121720949372 7.416201190202934
0.6380231397506406 8.408639054435822 1093.4259120813508 390.7848797269954 7.492100274413312
0.6424262936374942 8.217889551969057 900.7478246859605 412.06284733478503 7.570720876710799
0.6480023586763917 8.039322962467493 741.2752399251374 434.1880089541391 7.6522125935166505
0.6545745915211924 7.872427046974876 610.4933289333358 457.20572622915205 7.736705695586347
0.661985896152366 7.7167683609675 502.3306002106762 481.1650274520101 7.824364115914765
0.6700879361100127 7.571727101224714 417.078703612642 506.1174798640471 7.915332995006079
0.6787820492786311 7.436691119035788 346.5763275092223 532.1196387776483 8.00981476382921
0.6879215777586848 7.310974995618081 289.3573245110447 559.1938129565924 8.107805709567044
0.6974590679645517 7.193705920296579 242.60021941497794 587.3743433606768 8.209427695441
0.7072561973807361 7.084438582321853 204.46755639574752 616.7883394046295 8.315092943985956
0.7172615191261004 6.982432839629806 172.82565883812168 647.5093728553894 8.425051197689205
0.7273919563468438 6.88695309137791 147.55006093150885 679.617549402578 8.539543160470664
0.7375869438817382 6.797504100810841 126.27681941235555 713.106861554421 8.658460331031833
0.7477789287863472 6.713606162607054 108.66458067990216 748.0977976540953 8.78219591358708
0.7579455952042286 6.634563579303027 93.93515366703464 784.7411800486241 8.911268947736088
0.7680081856300076 6.560074329999152 81.58342337079695 823.0851785904129 9.04576237661157
0.7779484979217012 6.489566919419572 71.1845398226049 863.1777278104182 9.185756730381447
0.7877087445550995 6.422785454403375 62.38395706447633 905.2552055168267 9.332074750717267
0.7972810577716269 6.359278346802807 54.90414642242737 949.3076310872298 9.48454876885703
0.8066114104511206 6.298801629339503 48.51735636193356 995.5504420458743 9.643882353865102
0.8156779300357844 6.240989626313778 43.04227027137606 1044.0893357124542 9.810356578878453
0.824444249430603 6.185593042870654 38.32243140679974 1095.0727046940176 9.98438085998651
0.8329080249879005 6.132372359478153 34.24656896244958 1148.663948569245 10.166407927665603
0.841037402136612 6.081033076100399 30.66731176210212 1205.0632612815039 10.357058715750544
0.8488053426481481 6.031551904409189 27.599884005356977 1264.3859950896215 10.556531303448343
0.8562019206331745 5.983572490908934 24.916657929358404 1326.9407998196998 10.765825505002233
0.8632067550570094 5.937003066713184 22.561559340867746 1392.8631322947103 10.985196681415443
0.8698058248244916 5.891653023015142 20.51415053236004 1462.4118246390528 11.215374745226548
0.8759887290648586 5.847396296772442 18.666675173929942 1535.8887665436005 11.457244028758506
0.8817321868360029 5.804062919519309 17.06976631674013 1613.5675674873721 11.711513406030917
0.8870259618376894 5.761667928289052 15.625461178239654 1695.7363626378574 11.97890821174706
0.8918785737518525 5.719965013004156 14.36444785645755 1782.7182041344956 12.260256946263112
0.8962405699024035 5.678922800491992 13.23213762747877 1874.9203360870033 12.556698622196842
0.9001565997527854 5.638481589551886 12.209668620323866 1972.7458562315185 12.86927823499502
0.9035771546896869 5.598516385232843 11.309127166234713 2076.639437806068 13.199145118150808
0.9064986503258213 5.558945420634924 10.50895693748323 2187.09116523622 13.547556495428688
0.9089385785227897 5.519836992533039 9.776584961185078 2304.641835393368 13.91588520212819
0.9108780925711577 5.4809817079658085 9.130215166550578 2429.845603968816 14.305444638728263
0.9123065432143891 5.442385935289435 8.536165617501219 2563.386000526803 14.718026283223862
0.9132349773767944 5.40405041832093 8.00811528159735 2705.998419381711 15.155480829925803
0.913645028574756 5.365912938722775 7.534167758333652 2858.4893482519233 15.61981860374449
