M[M_sun], R[km], Lambda[1], P_c[MeV/fm^3], rho_c[fm^-3]
0.23841724892012095 16.20908015294055 2780876.1263280716 3.453507347168396 0.169602847481901
0.24841706931870142 15.866157101796837 2282110.7629877464 3.635593171416744 0.1719790335328959
0.2586984975811686 15.562851585475203 1881541.6540921777 3.8248579829017326 0.17437603398890023
0.26926674752923274 15.29345321824797 1558048.4842078788 4.020413403634107 0.1767682835239707
0.28012212336402614 15.053694228793297 1295317.6448266061 4.222578652613806 0.1791475143990918
0.2912546664491265 14.839602196740884 1060315.787609175 4.432725045017631 0.18155055183218713
0.3026771311989397 14.64831425102354 905437.4662111738 4.6512002781362085 0.18398124718373093
0.3143825539077511 14.476792158560144 760851.9147048842 4.878371665510527 0.1864412505945077
0.32636979144352907 14.323008972609468 641442.1336154968 5.111570605120443 0.18887120911768288
0.338642136487958 14.184738989514297 533831.5461308958 5.353958652173602 0.19132262070295378
0.3511957514898945 14.060461346332206 459903.88250670116 5.606047122932453 0.19380401513232798
0.364033318691082 13.948625714935028 391011.52655874874 5.868248697053486 0.19632097877558688
0.3771606546760712 13.848092279449448 333295.0814272726 6.137495463892212 0.1988142506342217
0.3905673507550239 13.75735557630496 284783.0048054451 6.417137881473538 0.20133700498693216
0.4042570042932266 13.675842858962678 243904.43300224177 6.7080219766244715 0.20389434023306285
0.4182337435732382 13.602369381428705 209343.97470453868 7.010299758973117 0.20647867008748333
0.432493581607783 13.536410034830913 180067.99099447948 7.320488777383102 0.2090387314449405
0.4470358369957745 13.477005048367616 155187.9805175713 7.643225103109717 0.21164324746991503
0.4618641309123712 13.42376055763413 134014.07878273228 7.979042773073526 0.2142922360835799
0.47697543632997197 13.376074237916622 115934.809772649 8.32609273393896 0.21694933888925286
0.492367478580562 13.33342195867536 100474.03942512865 8.684167261796002 0.2196026245666591
0.508040067889383 13.295398861882862 87232.40090586849 9.056848180953512 0.22230407618993664
0.5239928700384057 13.261581018319195 75858.2293146919 9.444740913389987 0.22505649877773762
0.5402327073365705 13.231493425497955 66065.99984729242 9.842547419860846 0.2277843872985019
0.5567419269350821 13.205012098532173 57630.71163625657 10.256207444351963 0.23055743877185148
0.5735320008670447 13.181693888077884 50344.71817797726 10.68679907233047 0.2333810892390761
0.5905986710481801 13.161273207463102 44040.487811000894 11.131478350551154 0.23621032991748542
0.6079258890949966 13.143660958182593 38589.26703281931 11.590796661359114 0.23905566556185875
0.6255407776568023 13.128373838050283 33847.76286560092 12.068968232399381 0.24196034903382382
0.6434124670755292 13.115286842744354 29728.475717861736 12.565834464944777 0.2449147392367399
0.6615466615834866 13.104383835237034 26148.66018299639 13.076050027719061 0.2478465318145879
0.6799575239039498 13.095208710914084 23022.651130690425 13.607233405104333 0.2508369605732446
0.6986080939547257 13.087720777904654 20296.70548765702 14.16029140004416 0.2538878418610785
0.7175297851358201 13.081876990371557 17913.90015795133 14.729395670448802 0.25693677089785993
0.7367005978482243 13.077389327032067 15828.279115773581 15.319790203265727 0.2600322743071514
0.7561127243357647 13.074202299584542 14002.345446149317 15.93445324490473 0.2631936451015208
0.775762943252035 13.07203111352674 12399.541077958454 16.57067366726988 0.26638208499523053
0.7956558876324317 13.070964778229577 10991.484175231968 17.227177955191813 0.2695821846609487
0.8157826977333241 13.0707497688114 9753.33131971174 17.910746200186484 0.2728542811668325
0.8361335885447986 13.071354047877085 8662.995572855745 18.622321228722605 0.2761991589955378
0.8566928451470676 13.072626673655229 7703.2582396229745 19.35287736213019 0.27953155110290856
0.8774835149668303 13.07454108656759 6855.581341903544 20.11348547891235 0.2829346962711157
0.8984625459405637 13.076839099241065 6106.881108353486 20.905397553469143 0.28641052478742335
0.9196524126119229 13.079757639299933 5445.64866470191 21.723569852406765 0.28991135787756145
0.9410225771374999 13.08287523057955 4859.881501370941 22.57058800438427 0.2934567875091551
0.9625830491232461 13.086341177089677 4341.114175898831 23.452442568222704 0.297085662662326
0.9843165932846109 13.08999137671096 3881.284733481159 24.369992049737718 0.300795148292008
1.0062207632598987 13.09386615221188 3473.2157856650424 25.31400246583225 0.3044964355208076
1.0282644945032937 13.097578933094967 3110.4918901428946 26.296883584798525 0.30828437083212895
1.0504743832819132 13.101536837505222 2788.234574517671 27.320137640438208 0.31216078321100804
1.0727976731018432 13.105315685307112 2501.469526626091 28.380562454947317 0.31609605110338235
1.0952632079035014 13.109025359638409 2245.885668150642 29.477253314252383 0.3200769296072974
1.1178327243911845 13.112499057555208 2018.133278198706 30.618992222066755 0.32414678461165575
1.1405187565671788 13.115851006691798 1814.991853565075 31.807633240679433 0.32830675976199913
1.163274630697577 13.118889720312547 1633.6659341553675 33.03812639607024 0.3325214442503424
1.1861232788800231 13.121581038842596 1471.5612595620416 34.31384674761754 0.33680642807789757
1.209028960889752 13.123919603837264 1326.5799506220978 35.64210084587655 0.34119718731517523
1.2319917060021337 13.125786835722764 1196.8012824492384 37.02491047470467 0.34569242713438597
1.254995509741855 13.127271034383586 1080.5517494028816 38.45923483175092 0.3502530233276586
1.278014324821352 13.128174745678853 976.432686435422 39.94594636042581 0.3548886633197174
1.301035182845025 13.128491725664116 882.9834304832984 41.49416433341231 0.3596416057106002
1.3240661120865516 13.12830525194156 799.0899462923117 43.10635207890603 0.36451399397388956
1.347077307086561 13.127446543989912 723.7456595538705 44.785102030334755 0.36950748828365254
1.3700426061525397 13.12589087710693 655.9810082407987 46.52345377833249 0.37455943604644903
1.3929516685470693 13.12360689132296 595.0446910985543 48.33280858290443 0.37973578661506874
1.4157913490867056 13.120584035956611 540.1398171211207 50.21769415350262 0.3850476601808155
1.4385475381921964 13.116772245407299 490.70274172176016 52.181309586120314 0.3904978430287866
1.4612056047188156 13.112147516501281 446.13240722246013 54.227044949204284 0.3960877300371722
1.4837508620422863 13.10669379567315 405.9064718641343 56.354302884561356 0.401791555991417
1.50613781564256 13.100315746604869 369.60570444887765 58.56605014351105 0.407624985298391
1.528375250902655 13.093025073567029 336.7931801580103 60.87179864460806 0.4136193702879131
1.5504306505467829 13.084702101019396 307.1508744943633 63.275810584246834 0.419777747447997
1.5723055315980052 13.075477370376861 280.3291602672532 65.78261212874567 0.42610084065082027
1.593955993917399 13.065252310413012 256.05746390617117 68.39708065032274 0.43259466488204984
1.615380101174248 13.053877499394563 234.05167859010584 71.12428702488053 0.4392739168962384
1.6365468518385118 13.041480569127156 214.11040014382328 73.96968468056167 0.4461456399704519
1.6574447033779016 13.027872958964238 196.0113072260706 76.93736774832857 0.4532055774295778
1.6780586331532876 13.013295439478949 179.60035743944692 80.0324599643106 0.46045212204641894
1.698335412739569 12.997424457920541 164.68703317394684 83.26512944899864 0.4679207035924242
1.7183105135533558 12.98040684463086 151.13247334248513 86.64246570076246 0.4756215892537108
1.7379003269578477 12.962207880030736 138.8197623142179 90.17201265114478 0.4835594304310844
1.7571691576479622 12.94279510336608 127.59887540760661 93.86184771545227 0.4917420064314007
1.7760201055255886 12.922136265871615 117.38554746272749 97.72065722076012 0.5001887926597598
1.7944680261758845 12.900092754212679 108.07634060974895 101.75771141165207 0.5089155665457964
1.8124738742274353 12.876853438433717 99.59873229530045 105.98292248938553 0.5179293730205698
1.8300208921578074 12.852130343671842 91.85040488740367 110.40693648090955 0.5272432032266039
1.847106044790654 12.826110647427836 84.78719396024381 115.04120226332854 0.5368809947963159
1.863689341916922 12.798827324520122 78.3380633943047 119.89800656935144 0.5468622992930556
1.8797571068146275 12.76997363998353 72.43423243220758 124.98663925573833 0.5571809606778265
1.8953021646570287 12.739865291592931 67.0400938144041 130.32144661939978 0.5678621267097758
1.910306867757512 12.708424954123757 62.110419407655066 135.9200407438667 0.5789435787739895
1.9247258014176545 12.675344928875303 57.582367100756066 141.7987955360846 0.5904435022709603
1.9385944000336048 12.64112693956928 53.445707220673654 147.97536154516928 0.6023808459853932
1.9517811513303422 12.605015920266602 49.642364262037724 154.4687492275296 0.6147910870238176
1.9643784400637239 12.567672024567038 46.16346638221429 161.29752526531317 0.6276991743164733
1.9763305942362752 12.528932315236721 42.97142075323239 168.47198179695613 0.6410812781896309
1.9876339511017522 12.488649129987706 40.03670358516945 176.02814601252132 0.6550245630794626
1.9982276779522619 12.446674897617504 37.33613345038972 183.99185615859164 0.6695685408890502
2.0081513026777644 12.403515333262611 34.861144797565544 192.38334734474304 0.6847111070191862
2.017337099952732 12.358590270034064 32.57935259548369 201.22613825185232 0.7004837082680155
2.025814575205131 12.312297077029804 30.482211461472136 210.56540164413587 0.7169770949127037
2.0335297292229986 12.264406706540953 28.55119990474072 220.42372559029897 0.7341799397099943
2.0404996745116426 12.215009911814398 26.771102677737566 230.83814209312618 0.7521556370089425
2.046700551103143 12.164171956220848 25.131871537265994 241.8586939033306 0.7709890304483062
2.0521208455810096 12.111851751342313 23.62015644666853 253.5079309598799 0.7906494113808986
2.0567083260634855 12.057892546212068 22.226834420306744 265.85673534968504 0.8112930310088451
2.0605282774380624 12.002617786733524 20.940958274926892 278.93002287938793 0.8328884484827637
2.0635095387108686 11.94571198929363 19.752761769031192 292.8055997698204 0.8555731955544622
2.0656700761480113 11.887502224445424 18.659060775920658 307.52806235376954 0.8793802090201547
2.0669906821583686 11.827843980317843 17.648688750009143 323.16827314319573 0.9043867313107948
2.067461653352131 11.766725930502618 16.715348418144057 339.8041348583816 0.9307146658824952
