M[M_sun], R[km], Lambda[1], P_c[MeV/fm^3], rho_c[fm^-3]
0.23841724892012095 16.20908015294055 2780876.1263280716 3.453507347168396 0.169602847481901
0.24844627760229399 15.86534564029161 2280841.2376645487 3.6361268536489164 0.17198582217272917
0.258759456103862 15.561138161491549 1879540.0216926294 3.82595589075597 0.17438946480837847
0.26935940734304475 15.29114807396702 1555446.6326629322 4.0221824361656715 0.17678992428051588
0.2802484877070228 15.051164482568597 1292580.9277563505 4.225001419281498 0.17917584489643337
0.291417751761031 14.836788076766494 1078246.7496297495 4.4358350820421135 0.1815855460304375
0.30288103561320207 14.645143036408022 902617.1306616783 4.655032886934914 0.18402275634383655
0.3146263136082764 14.473594423932532 758187.010930395 4.882963585685433 0.1864890989062771
0.3266528320351846 14.319680320825029 638925.1022222826 5.117190007306098 0.18892976390467728
0.3389687942922573 14.181350830807457 539978.185581079 5.360443832307285 0.1913873305567625
0.35156270305477444 14.05699997801691 457696.27595815586 5.613438863001295 0.19387505747349187
0.36444834442916246 13.945254517965354 389004.8216215842 5.876590752821961 0.19639822766193343
0.37762449083854693 13.844649487414541 331438.9134739096 6.147222259610956 0.19890432245318904
0.39108237486826974 13.754155044009384 283096.6700306456 6.427940808750395 0.2014332906439376
0.4048217358811826 13.672633231259866 242374.68434070097 6.7199496010027975 0.20399631569263424
0.4188460593828461 13.59936969037479 207970.84212467563 7.023804246881468 0.2065930670274635
0.43316387600879686 13.533431713625244 178812.4490849626 7.335403876780671 0.20916168132647997
0.447765775619268 13.474332776427046 154059.99332466617 7.659465351281933 0.2117723657300695
0.46264890529706215 13.421148316390871 132993.53873528945 7.9966690409747825 0.2144271872755558
0.4778197617216977 13.37365619390249 115017.90299275724 8.345933556311442 0.21710124527374378
0.49327144608811957 13.33109393111208 99650.56324518732 8.70556221279466 0.21976003136173075
0.509004111445642 13.293215156112966 86488.39860493023 9.079866882604653 0.22246754696547966
0.5250285012481637 13.259456402370553 75180.20687796606 9.469459402496074 0.2252260014922139
0.541325678098511 13.22969581986006 65465.03862832113 9.870069001946984 0.22797311173267992
0.5579037212295117 13.203255765322757 57084.12114190063 10.285633103271444 0.23075188963116666
0.5747622682473783 13.180087420278184 49853.34911362482 10.718213697972283 0.23358096258851227
0.5918980406049614 13.15987815722781 43601.42649140879 11.166256022094842 0.23643160041028974
0.6093044527106938 13.142374568215216 38188.825283499624 11.627798531132434 0.23928320905043066
0.6269855255148786 13.127182877725835 33489.95199137853 12.108300159394018 0.2421942185386591
0.6449322860771481 13.11433650559104 29408.316382193447 12.608528189802794 0.24516496646043542
0.6631473904892464 13.103451272172924 25855.166739982615 13.121999839226536 0.24811008618269498
0.6816258586081959 13.094421352393827 22760.63957453206 13.655906944820961 0.2511063343517487
0.7003651952606182 13.087185402137077 20060.421220442342 14.21181805385746 0.25416389164518544
0.7193638329352527 13.08141038009883 17700.629176763494 14.785881714418952 0.2572393902043555
0.7386087255864674 13.077045776985752 15637.61752237132 15.3794701955056 0.2603419243786067
0.7581055533741135 13.073937739257595 13828.930262854861 15.997480799825228 0.26350950979785426
0.7778338672769162 13.07189486626882 12243.394755340125 16.63957089958658 0.26672736577585704
0.7978169287589677 13.070886972486067 10849.888718031183 17.29981472655746 0.2699342619474275
0.8180198136799501 13.070809251455758 9626.054503312967 17.9873077667624 0.27321417165806794
0.8384552118753934 13.071455877283173 8548.432572505204 18.703097386506066 0.2765679452893334
0.8591082925988067 13.072829203370292 7598.762533195563 19.440768311306044 0.279932416222964
0.879963698321941 13.074757678532038 6761.608240632154 20.205994173710437 0.2833429006184438
0.9010528929916296 13.077317808059194 6021.987090477081 21.00275347127669 0.2868270957456726
0.9223097112872333 13.080099010239948 5368.328057044726 21.829419883350884 0.29036427383597563
0.9437789300145298 13.083419227900261 4790.112835775948 22.68187383330538 0.2939195180273677
0.9654131449321491 13.0867818345238 4277.92955431497 23.569453341814373 0.2975587159329132
0.987231586009713 13.09049119941616 3824.046079055106 24.493479902436558 0.30128088510323325
1.0092220914665069 13.094311216217017 3420.983965327242 25.44744574464588 0.3050193871251314
1.0313780196325188 13.098374702528915 3063.367576172158 26.43708272175207 0.308818591581345
1.0536537197665423 13.102172589700542 2745.4662862834266 27.467459283862333 0.3127074981928591
1.0760633095537342 13.105876272898094 2462.3362669832477 28.540108545185657 0.316687981690958
1.098614553849113 13.109589278159923 2210.4524292327665 29.64486721076875 0.32068306302883304
1.1212570290635404 13.113056527254592 1985.9523480863988 30.795058297441276 0.32476530002719606
1.1440157770259285 13.116314868226588 1785.705760819857 31.992610735224833 0.32894034457597193
1.16686737339359 13.119325583703038 1606.9300586017716 33.238187545358734 0.33320669359035887
1.1897870912126487 13.121993926357966 1447.207580108271 34.52396042838609 0.33750894443828794
1.2127676571878863 13.12420914138846 1304.4178033904384 35.86284330723282 0.3419180473970297
1.2358083509004116 13.126070816477007 1176.6164264410068 37.25687759536346 0.3464299927779197
1.2588691668834653 13.12739653763475 1062.1319945695348 38.70837508892618 0.35104153055373694
1.281965537924881 13.128269681417093 959.6671394059381 40.2091921712019 0.3557069932272278
1.3050628661083257 13.128503960115491 867.648143094264 41.77083016197611 0.36048307537728397
1.3281444941260743 13.128152686134603 785.1299652940975 43.39723167328732 0.36537992434612154
1.3512352841495345 13.127328292331766 710.984618887796 45.091022102985775 0.3703965443842973
1.3742449119865066 13.125575904949903 644.3332020719514 46.85347512054248 0.3755185345622547
1.3972317462628097 13.123237956693963 584.3600030533391 48.6798736591553 0.38072430383476197
1.4201029679365247 13.1199151694594 530.397002821767 50.58283796815377 0.3860674728467883
1.4429110878499787 13.11596925063883 481.808821813302 52.56563351308022 0.3915504641721762
1.4655979671613002 13.111094267161304 437.9603126745115 54.63170581033983 0.39717274896414334
1.4881995344971184 13.105541472211872 398.43634440388723 56.7847978742788 0.40293417755740607
1.510615069201102 13.098952729862729 362.76692730136034 59.025384167346395 0.40883461047721714
1.5328936654996559 13.091513351592493 330.5324298715354 61.355715077231295 0.4148715935350012
1.5549602065350423 13.082862505630391 301.39677407896534 63.78585324475792 0.42107441569164994
1.5768623512091897 13.073428566144466 275.041917049046 66.32041397572885 0.4274427551193106
1.5985359594149868 13.06295822956859 251.19792171433187 68.96439632832092 0.4339876620405453
1.6199600489155526 13.051271370490916 229.58469610809394 71.7230147558991 0.44072125315652727
1.6411310086790019 13.038663316943957 210.02038225713898 74.60184992317133 0.4476495226205678
1.6620190360787184 13.024741204800053 192.249895906412 77.60686810577555 0.45477582076348433
1.6826215327037777 13.009799381244664 176.12681024664585 80.74443633894795 0.4621057292334046
1.7028960884422641 12.993622963860064 161.49775326575642 84.02127028703349 0.46965843187308687
1.7228494737194322 12.976371108531282 148.19764885588953 87.44461178265588 0.47744398952196615
1.7424540967521212 12.957978335335866 136.1130389719839 91.02192933845262 0.48546513316035883
1.761634175967506 12.937942926575554 125.10087006741622 94.76126693201131 0.4937297586493959
1.780477373242461 12.917096237864612 115.08957496650159 98.67292835535822 0.5022665952563646
1.798841055565236 12.894505120889141 105.95191243010227 102.76612929701423 0.5110880795082072
1.816787818692266 12.870846142760103 97.64106873713725 107.04945057956255 0.5201932649302021
1.8342773022976087 12.845756827681434 90.04309429952843 111.53467466683433 0.5296021267990917
1.8512934017176843 12.819404954928475 83.12012541861851 116.23347948624492 0.5393400955537551
1.8678030110213777 12.791634849465728 76.79358724789762 121.15845210422647 0.5494228312712852
1.8837936526667287 12.76248537878895 71.01218949931867 126.32312898345059 0.559861079301603
1.8992441645120957 12.731914483372774 65.7234624150023 131.74203256490793 0.5706815354865951
1.9141577572916935 12.700010602376897 60.88639744671355 137.43081940337794 0.5819118214814217
1.9284343565241446 12.666379995754037 56.454505538959154 143.40634357783568 0.5935672183557207
1.9421597665419368 12.631586193282219 52.40046556959909 149.68679091878025 0.6056729158538647
1.9552656319921633 12.595236020252596 48.67885508776685 156.28230662514014 0.6182332163001252
1.9677217716603979 12.557328525068613 45.26756119571315 163.2179149244901 0.6312882365992534
1.9795127116917184 12.517836046759042 42.13160809440966 170.52040031922732 0.6448748715646364
1.9906527506119396 12.477056543570873 39.26099491997676 178.2143864391126 0.6590386375796529
2.001103709521213 12.434675382405695 36.616422690726395 186.3149579229729 0.6737788403195433
2.0108285313008567 12.390785809083093 34.19082624015442 194.85284689409357 0.689127819341195
2.0198495104576306 12.345295948581644 31.95537200210762 203.86699389351142 0.7051694225568309
2.028143441647325 12.298539185017615 29.903752574680055 213.37743269807788 0.7219043081755727
2.0356581456128384 12.250004607327764 28.01146223595811 223.42212422440232 0.7393720953371564
2.0424185433311672 12.200075407811635 26.271217827749023 234.04854851091977 0.757669971697228
2.048394982435382 12.148604527009091 24.66606635780215 245.27557829504275 0.7767706197692127
2.053583793787734 12.095635928448498 23.18612695050492 257.1746211125738 0.7968099667936449
2.057962900932238 12.041163959850358 21.822381280675728 269.7646582789461 0.8177674311556826
2.0615321340541484 11.985168674357583 20.56421049099413 283.1261268978824 0.8397809298306653
2.0642766241427846 11.927826742761237 19.40442656136085 297.29132630965034 0.8628503193623586
2.0661776931623512 11.868857898360801 18.331352784387683 312.3398832531243 0.8871040068053486
2.0672285074197867 11.808551857212526 17.344037595370608 328.33602072652457 0.9126009375337951
2.067438765684656 11.746910033956935 16.43274184809264 345.3424062115255 0.9394051523564331
