M[M_sun], R[km], Lambda[1], P_c[MeV/fm^3], rho_c[fm^-3]
0.23841724892012095 16.20908015294055 2780876.1263280716 3.453507347168396 0.169602847481901
0.24841357846401163 15.866280470266434 2282199.763172996 3.635549360779356 0.17197847624501902
0.2586948282873478 15.56295883252049 1881732.3426261833 3.824767864182223 0.174374931557354
0.2692573146903333 15.29372027629246 1558253.806121213 4.02026821445506 0.17676650740984012
0.28010992625443737 15.054004450472792 1295515.5479995394 4.2223798308841705 0.1791451894874286
0.2912402201597007 14.839881152938323 1081294.561399136 4.432469849503931 0.1815476803672082
0.3026600698646071 14.64855078833076 905632.7753565112 4.65088582316185 0.18397784147170496
0.31436077259914824 14.477120894921628 761106.1285573359 4.877994947822283 0.18643732515488556
0.32634652653427276 14.323292062339938 641628.8749414396 5.111109648633423 0.18886640590053996
0.33861530893833797 14.18510495594289 542558.10945917 5.353426726656743 0.19131731309056313
0.35116519131657403 14.060754166485811 460082.56716637954 5.605440895566829 0.19379818865426865
0.36399854150499295 13.948928154003932 391195.5237574174 5.867564591681912 0.19631464384094194
0.3771230375528566 13.848315444222003 333440.06892642647 6.136697897883421 0.19880686503435557
0.3905252712574951 13.757649213157244 284915.3883718443 6.416252153437204 0.20132911056130837
0.4042118372806869 13.67600558617497 244015.21252213058 6.707044118329222 0.20388598001430588
0.4181834176107727 13.602602749581768 209457.0353899983 7.00918095612195 0.20646910486046924
0.43243942700235716 13.536543060640051 180162.18250204594 7.319266252327476 0.20902865378425842
0.446977675210052 13.477311907126413 155290.22240226818 7.641894069466747 0.2116326650732444
0.4618011030741121 13.424025333794805 134086.17404891894 7.977598257553534 0.21428117650520842
0.47690580593276116 13.37628926641192 116011.69586594554 8.324466938222214 0.2169368913835691
0.4922938002704473 13.333669830265896 100543.74472845267 8.682414253709767 0.21958972734690824
0.5079607576559588 13.295525541348903 87290.10631722589 9.054962273305614 0.22229068313282696
0.5239115253874044 13.261714496343055 75913.23334786927 9.442715894691226 0.22504261256629354
0.5401432068218209 13.231637834894798 66116.6799117737 9.840293057174973 0.22776892840079058
0.5566470732554122 13.20515616015346 57674.61525473979 10.253797290606892 0.2305415119758503
0.5734281694943313 13.18183355662661 50386.83760087832 10.684226194573098 0.23336471948503482
0.5904944785953213 13.161551754638747 44079.78271401539 11.12863041785249 0.2361922101456969
0.6078152849442344 13.143669948722884 38616.61196177131 11.587766804045614 0.23903703341415344
0.6254183553162238 13.128435093356705 33876.57627374579 12.065747806062515 0.2419412002259644
0.6432888170027427 13.115402299502735 29756.429335027064 12.562285951514522 0.24489363960745025
0.6614184083264636 13.104380338733359 26171.053465802717 13.072288514517291 0.2478249569005133
0.6798212186133933 13.09525981368986 23042.78273003774 13.60324919464376 0.25081491077303764
0.6984639485837356 13.087761218691995 20316.003426574705 14.156073929585386 0.2538652471120804
0.7173802649856638 13.081940938490524 17931.499901763054 14.724772918630357 0.2569120048875134
0.7365445027942884 13.0774449905475 15844.291942576623 15.314906388291474 0.26000693459782853
0.7559507941876862 13.074185728157612 14015.836703095874 15.92929582921872 0.26316779854057487
0.7755926558774918 13.07203462248984 12411.761463822086 16.565036754531096 0.2663538354187915
0.7954805418849866 13.071017251613236 11003.619853374186 17.221235477201233 0.26955338090926007
0.8156007120875193 13.070751878481229 9763.8645368298 17.904483040669618 0.27282484013452324
0.8359431009534278 13.071351196977385 8673.056511903651 18.61549208544989 0.2761670574616083
0.8564988057616558 13.072610789815872 7711.53991519532 19.345688919265573 0.27949876506476745
0.877279877987348 13.074484104632138 6863.198934227812 20.105919851924696 0.2829013121461601
0.8982497147216155 13.076839669874825 6114.069532839168 20.89743602455084 0.28637645863299416
0.9194332864658551 13.079735064050261 5451.922733444693 21.714914995436903 0.28987432507932337
0.9407995791699282 13.08289259852803 4865.703654791183 22.56148928137703 0.29341895468845336
0.9623479302304578 13.08632472894127 4346.687958382949 23.44287640179436 0.2970469883917695
0.984087331745389 13.090019671561603 3885.91456252265 24.359609072112455 0.30075317180237976
1.0059726369859636 13.093764101582048 3477.440245774442 25.303095266787587 0.30445369123806965
1.0280194949480577 13.097635660664523 3114.4714419537604 26.28542494393336 0.3082407083400409
1.0502142425499899 13.101527330846181 2791.7300393039336 27.308097673640436 0.3121161025376437
1.072539258352396 13.105301022528954 2504.572711515112 28.367521525346454 0.316047655827411
1.094990659004151 13.108998283308292 2248.869556922499 29.463558046391917 0.32002740412200265
1.1175506854111146 13.112491748040599 2020.9168111547547 30.60460733476783 0.3240962508871647
1.1402305436230056 13.115847962682926 1817.4089608199022 31.79252132059541 0.32825499842152506
1.162994000841241 13.11891699832038 1635.8230423583484 33.021784868202346 0.332465471257954
1.1858231872595155 13.12153869534187 1473.5687415590523 34.296685312034725 0.3367490487143996
1.2087216761401296 13.123874360439853 1328.4065475471625 35.62407257651111 0.34113831391288274
1.2316876421160905 13.125827009432221 1198.470432826946 37.00596685207163 0.3456321937479538
1.2546774948245392 13.127258454115632 1082.0821521027212 38.43877539453401 0.35018797023765874
1.2776899270588709 13.128171814614397 977.8117077983884 39.92445357857987 0.3548218505331121
1.3007032625441028 13.128490789060686 884.2438559163714 41.47157758014311 0.3595729088720945
1.323743655318374 13.128348325430482 800.2574099861278 43.08260676011938 0.3644433056439659
1.34674558221472 13.127559826496473 724.8029387481649 44.760130877281014 0.36943491783814314
1.3696957183719054 13.125917803597579 656.8752068313271 46.49652004819365 0.3744811620159627
1.3926035088403188 13.12366009254468 595.8981776584324 48.30448616706333 0.37965511818232217
1.4154313947126747 13.120610334761874 540.9739274330751 50.18789887579991 0.38496444474523034
1.4381920531240198 13.116874773148885 491.4570142113616 52.149951885137845 0.39041195772020504
1.460841764756624 13.112253536670456 446.8321567840627 54.19403076718306 0.3959992089673287
1.48338643006898 13.106801312580256 406.5248326525223 56.3187220444049 0.4016961529299523
1.5057625679901314 13.100381238350096 370.17715304488746 58.5285856750949 0.4075263251470503
1.5280099672044114 13.093099807649168 337.3232741408061 60.832332777219264 0.41351724505868115
1.550052338414655 13.08484336972236 307.6344396984436 63.234217880569354 0.41967200739485677
1.5719304420825762 13.075655251867067 280.7642709711923 65.73875992871714 0.4259914213507128
1.5935789906140982 13.065371216060695 256.44170151029755 68.35082643094982 0.43248109143669355
1.6149879691593931 13.054011342433359 234.4182957573611 71.07547662723206 0.4391559249363946
1.6361702155630318 13.041653959966455 214.44167760293752 73.91815363983605 0.4460230507598054
1.6570709143161775 13.028201899937855 196.33364981593553 76.88187007942072 0.4530735518518224
1.6776830184715483 13.013629288903973 179.8842270166473 79.97384919259252 0.46031496278051587
1.6979565091547473 12.997688221801429 164.95512389095276 83.20320193061463 0.4677778433092406
1.717930502046342 12.980768947753349 151.38407694220152 86.57700134093541 0.47547265938818994
1.737568515776851 12.962715454074882 139.05020095140455 90.10277603364717 0.48340418649611844
1.7568309611513813 12.94336488001845 127.8091961408055 93.78858713983632 0.49158009764738636
1.7756759073227137 12.92262046430051 117.5732765513558 97.64310108442838 0.5000195694883353
1.7940868691677472 12.900422462438062 108.25109863491049 101.67556623130135 0.5087385492617162
1.8121120762958818 12.87727961423854 99.7543985810771 105.89587350860143 0.5177442421800457
1.8296855109850783 12.85276675024045 92.00844391430266 110.31464573644908 0.5270494141615436
1.846750922955457 12.826642168976477 84.92637692529411 114.94330431371435 0.536677777729622
1.8633391953856413 12.7993285238065 78.46435280277906 119.7941061978172 0.5466490221782889
1.8794218136525116 12.770604697667606 72.55759261489499 124.87786860254417 0.5569628383478891
1.8949889533531281 12.740647924190938 67.15517957585024 130.20584856083815 0.56763270153355
1.9100103192005855 12.709216531042038 62.210014557083724 135.79712170311765 0.5787020784430106
1.924414560500738 12.676064328568954 57.675895114969094 141.66802318130493 0.5901893912288901
1.9382593316599437 12.641718792696773 53.53235051088535 147.83616034993784 0.6021130814678837
1.9515203697453403 12.606058090892413 49.73215785362749 154.3204943741257 0.6145085786875724
1.9641002309974984 12.56858142631505 46.24240346835182 161.14136711026234 0.6274073265960051
1.9760713909980447 12.529875357881785 43.043220268539706 168.30498624069236 0.64077113283056
1.9867451476939713 12.490631640178954 40.2218728889064 176.17094888077128 0.9840027027269422
1.9881070532861262 12.457744180951899 38.98537925992834 186.3677110017716 1.935732544369442
