M[M_sun], R[km], Lambda[1], P_c[MeV/fm^3], rho_c[fm^-3]
0.23841724892012095 16.20908015294055 2780876.1263280716 3.453507347168396 0.169602847481901
0.24841389562715813 15.866260460278038 2282314.0346222594 3.6355376261840693 0.17197832697652893
0.2586941470481216 15.562935350911937 1881759.0144382354 3.824743726310902 0.17437463627629646
0.26925605721766027 15.293699667818613 1558305.4219011734 4.020229326659062 0.17676603169143995
0.28010745480121263 15.05404318012763 1295632.3877090584 4.2223265785698025 0.17914456678423116
0.291233865688201 14.840050671399139 1081392.188592023 4.4324014987407105 0.18154691128306552
0.3026551673697963 14.648686295368316 905755.0442710259 4.650801601342384 0.18397692930530024
0.31435767594231495 14.477137056022329 761122.9277640303 4.877894050858919 0.18643627379746303
0.3263396405065941 14.323396087742486 641710.1435036334 5.110986191261616 0.18886511946118748
0.33860821142133196 14.185161393435603 542590.2494641226 5.3532842630368656 0.19131589157260598
0.3511566671917887 14.060838341544216 460139.4550527558 5.605278533396093 0.19379662818425505
0.3639912181220953 13.94901989908334 391227.2105684751 5.86738137349996 0.19631294720873194
0.37711211409493495 13.848358515896964 333483.10580909956 6.136484295003435 0.19880488703456065
0.3905146526412147 13.757710657434448 284948.30394397245 6.416014941130968 0.20132699630633188
0.4041994562095586 13.676157859330916 244057.6704040634 6.706782234190941 0.20388374103070708
0.4181693018895875 13.60265764935354 209483.9091129651 7.008881328663602 0.20646654318961208
0.4324269152077156 13.53674314430224 180199.6691087644 7.318938849552839 0.20902595489963927
0.4469630417509803 13.477316346868127 155310.12457695368 7.641537609934726 0.21162983103806823
0.4617847709358415 13.424137318018511 134121.75454572545 7.9772114097864355 0.21427821470027186
0.47688773077392166 13.376355297791013 116034.58315133961 8.324031548151913 0.21693355792640787
0.4922746901875256 13.333708842298988 100563.3013560056 8.6819447995105 0.21958627348151055
0.5079396096358326 13.29555408462457 87312.3669133114 9.054457232397201 0.22228709650877532
0.5238895102717424 13.261749821395812 75177.82151073414 9.442173604120548 0.22503889390358037
0.5401190132455348 13.231679397938912 66129.49890753819 9.839689356929053 0.22776478863197322
0.5566206926551461 13.205196421558924 57687.28283160148 10.253151875310383 0.23053724693766153
0.5733984668874558 13.181848783446828 50397.62440478414 10.683537208165857 0.2333603358574054
0.5904632909948745 13.161455465211496 44088.88638211062 11.127867784757653 0.23618735794618978
0.6077914001313591 13.143743143426102 38625.860866244395 11.58695545981473 0.23903204404205255
0.6253863976005463 13.128517203347966 33886.10649915545 12.064885436479926 0.24193607253549318
0.643258004709984 13.115449250843973 29762.738551058035 12.561335738861695 0.24488798959791383
0.6613832490977856 13.104393750601647 26176.466470047893 13.07128127194106 0.24781917965851816
0.6797825310986675 13.095293597423591 23049.270464519435 13.602182326071283 0.25080900640651305
0.6984258303656076 13.0877884412825 20321.59113968668 14.154944607313533 0.25385919686145747
0.7173448331856797 13.081955061368024 17935.87062627947 14.723535089799109 0.25690537332197716
0.736507830440211 13.077542639506598 15849.249955890311 15.31359866326135 0.2600001494570498
0.7559073984368951 13.07417698713533 14019.644034418032 15.927914851697887 0.26316087772561053
0.7755501655882012 13.072050384631021 12415.76904884016 16.563527405021627 0.266346271263319
0.795433119234537 13.070956383420423 11006.29440829533 17.219644319029157 0.2695456684154219
0.8155463745325814 13.070749378672827 9766.661707341951 17.9028060273197 0.2728169570518579
0.8358922081999361 13.071307737957927 8675.225132055015 18.61366355094103 0.276158462128309
0.856447614297048 13.07263477177286 7714.175303607907 19.343764192694575 0.2794899865073029
0.877220255583528 13.074482922415262 6865.484090430124 20.103894145870758 0.2828923735051012
0.8981952466112222 13.0767741307338 6115.703223999499 20.895304328568475 0.28636733743463183
0.9193751249101689 13.079719655882268 5453.674611450717 21.712597694562835 0.2898644097062531
0.9407489658291337 13.08294728558584 4867.360275543475 22.559053152519677 0.2934088251761918
0.962287038891919 13.086251704259018 4347.810811936957 23.4403151338725 0.297036633651517
0.984020498133631 13.090012545085278 3887.3295971846214 24.35682915034045 0.30074193308438946
1.0059075935687771 13.093794480353441 3460.0380927444116 25.30017500928651 0.3044422470247769
1.0279463276091059 13.097612459054444 3115.64258749419 26.282357064712144 0.30822901836268674
1.0501472466228408 13.10150768353074 2792.6171654280524 27.30487417379288 0.3121041400342417
1.0724787235514772 13.1054056134127 2505.532038680758 28.364030087489432 0.3160346989981206
1.0949177447358744 13.109004654146885 2249.699800192696 29.459891446916384 0.3200141447889062
1.1174846803007776 13.112544593607174 2021.5778424269588 30.600756130506888 0.3240827217095607
1.1401556161982331 13.115814878833291 1818.0173440877238 31.788475497787555 0.32824114067143834
1.1629058824947287 13.118817348839464 1636.4600699972088 33.01740991842465 0.33245048618234874
1.1857444964517696 13.121544562206585 1474.0891646418183 34.292090887827456 0.33673368722931984
1.2086396679855063 13.123854386775955 1328.8914460921796 35.619246118519044 0.34112255255513646
1.2315980709931826 13.125766216197945 1198.8945566542816 37.00089537460593 0.34561606841290615
1.25459125148737 13.12725331527225 1082.5219036090423 38.43329820046204 0.350170554880866
1.2776074725282478 13.128165955876302 978.1787840943451 39.918699788869084 0.35480396421542304
1.3006139032120836 13.128492462109223 884.5972073490433 41.46553096941165 0.3595545183121067
1.3236575148991139 13.128441533608648 800.5998937534534 43.076250041438776 0.3644243820897545
1.3466494581874024 13.127491693300904 725.0547388194807 44.753446048124566 0.369415490580259
1.3696139623620083 13.125996983919958 654.5949554064679 46.489309954318514 0.3744602082488877
1.3925149427477175 13.123671379047114 596.1111111873635 48.29690438414467 0.3796335236068839
1.4153414949589445 13.120686342131378 541.210848569578 50.17992287758765 0.38494216852508295
1.4380936929187824 13.116843238666021 491.6520731709545 52.14155770456221 0.3903889669789695
1.460742177635666 13.112261668008879 447.0233160811095 54.18519323425396 0.39597551285184845
1.4832870943349088 13.106823642401228 406.7066460413716 56.309197612816234 0.4016706150301086
1.5056618952588323 13.100421577740525 370.3421157831714 58.518557111530036 0.4074999156011294
1.5279024128002185 13.093185502064523 337.4710403924341 60.821768567674226 0.4134899082131277
1.549959715976184 13.084913833513916 307.7596360898804 63.223084460044795 0.4196437031882577
1.5718250223922268 13.07569540210328 280.9070734828021 65.7270218000349 0.42596213256191434
1.5934785973853758 13.065422732573479 256.5538290152356 68.33844545839115 0.4324506909731377
1.614908958504347 13.054254883960228 234.53371026527483 71.06241156225646 0.43912434206274004
1.6360843637065503 13.041828703328791 214.5427535120525 73.90436047704473 0.4459902376647253
1.6569729172445071 13.028312609143763 196.4151596382029 76.86701546205792 0.4530382136208975
1.677578252793278 13.013627527915284 179.9588491165273 79.95816147666049 0.4602782508325606
1.6978548092464711 12.997786684123007 165.02280083526242 83.18662663078855 0.4677396058327714
1.7178438588893459 12.980883183417433 151.44621565729457 86.55947957145733 0.47543279777831626
1.7374622436470795 12.962732440237968 139.0796882253924 90.08424481064628 0.48336263536201673
1.756703185481952 12.943303950789758 127.85876033480353 93.7689791239012 0.4915367631528059
1.7755557588584967 12.922574825663338 117.6250930715798 97.62234361290379 0.49997427784117116
1.794000498165773 12.900662649674649 108.30498200000795 101.6535807892133 0.5086911721273414
1.8120138122783351 12.877373551743819 99.8029493421466 105.87257589141171 0.5176946941277458
1.8295677146322777 12.852757678929752 92.04667543404184 110.28994553298703 0.5269975494879656
1.84666331866573 12.826892265126993 84.96559693627145 114.91710376383716 0.5366233904935993
1.863253615155741 12.799547543873743 78.49990363200521 119.76629957827706 0.5465919433103371
1.879329251974411 12.770764190182753 72.58686858078948 124.84875872384387 0.5569044630933526
1.8948989459600138 12.740793194918627 67.18149915431486 130.17491191964928 0.5675713021947991
1.9099155234601042 12.709344916042475 62.237210328707214 135.76422627154955 0.5786374484429473
1.9243330355298502 12.676301403406352 57.70483613576664 141.63302656787644 0.5901213873612361
1.9381792234325583 12.641865038455588 53.55135675537151 147.7989086125967 0.6020414248024437
1.9514429296997475 12.606267054925306 49.75470525102901 154.28082039016977 0.614432977579465
1.9640223727178345 12.56877208301702 46.259927468759265 161.09924370115073 0.6273280461438974
1.9759874814387006 12.529956215126287 43.057964352918155 168.2608747854575 0.640690316014894
1.9873003116560781 12.48981266018132 40.11883834479702 175.80287520914405 0.654610951760014
1.9979225347413623 12.447972435922477 37.416519421527866 183.75133075931782 0.669130637558731
2.007854067251981 12.404705055711583 34.93008293260635 192.12896495216484 0.6842561428350067
2.0170671365160455 12.359919867391815 32.64613853960075 200.9541566362688 0.7000011267431753
2.0255708296912354 12.313734095970526 30.540328295532674 210.27442481933244 0.7164648325128219
2.0333025199694115 12.265787885820739 28.60522733635779 220.11502276318083 0.7336453766593338
2.040296217232825 12.216522312498562 26.821705233432763 230.50741538854692 0.7515871699538423
2.046513767123928 12.165777549727958 25.181130554050945 241.5070305587445 0.7703939933312927
2.051954385097558 12.113413991184112 23.664190493567556 253.13064003578904 0.790015509538148
2.056581691791593 12.059591545892745 22.26759014806052 265.4542465785219 0.8106255161734189
2.06041648619579 12.004386346803981 20.980035130293377 278.4980423210873 0.8321782846139115
2.0634313868304446 11.947626613028467 19.790810092981708 292.3442958287318 0.8548248294062887
2.065601610990379 11.889441090843162 18.694206493066797 307.0316631789994 0.8785803633870413
2.0669676004086304 11.829827164744296 17.679430004908056 322.63706243745804 0.9035423645505314
2.0674694696640588 11.768754027190665 16.744574063745535 339.2349517688092 0.9298215211400811
