M[M_sun], R[km], Lambda[1], P_c[MeV/fm^3], rho_c[fm^-3]
0.23841724892012095 16.20908015294055 2780876.1263280716 3.453507347168396 0.169602847481901
0.24841241402756184 15.86633976570369 2282322.4583025044 3.635523933011555 0.17197815279419573
0.2586890732092711 15.563171035957224 1881838.922634991 3.8247155598143947 0.17437429171265345
0.2692546138143706 15.293691461163814 1558301.3272530846 4.020183948699802 0.1767654765782064
0.28010540753951485 15.05404864883714 1295672.1879344776 4.222264439022428 0.17914384015863194
0.29123234276269533 14.840009337202689 1081413.6228574356 4.4323217413393845 0.18154601385120475
0.3026512928881156 14.648653702737638 905748.1467746707 4.650703324695245 0.18397586491775247
0.3143495378867629 14.477310715664293 761210.3724058763 4.877776316846285 0.18643504699614075
0.32633326726958944 14.323439465837145 641803.4752220673 5.110842132859019 0.18886361835683504
0.3385997395395834 14.185258883102314 542666.7714184502 5.353118027551189 0.1913142328563091
0.3511478053080043 14.060908306257895 460167.89762288984 5.605089079800002 0.1937948073373526
0.36397984713052517 13.949124053234756 391266.96703625517 5.8671675847440765 0.1963109674876939
0.37710061983418264 13.848405663519921 333528.2497087083 6.1362350531000525 0.19880257901121465
0.39050123151026367 13.75779451078587 285000.2104532211 6.415738151699628 0.20132452930349407
0.40418481498309367 13.676217407951174 244097.29995648772 6.706476657758661 0.2038811284989801
0.41815426347718787 13.602787825445482 209529.70419260286 7.008531713806783 0.20646355415050704
0.432409566485115 13.53681633539323 180230.06615576413 7.318556826965527 0.2090228057666296
0.44694524959761883 13.477401611051768 155334.01678399032 7.641121684606368 0.21162652421946657
0.46176415649235464 13.424157144924731 134143.49979260366 7.976760028332298 0.21427475880900704
0.4768653545303706 13.376408957010597 116052.15596064838 8.323523529457509 0.21692966840602043
0.49225210406972725 13.33374847144384 100584.27293005175 8.68139703622384 0.21958224348100172
0.5079148447516219 13.295631648115165 87328.31987479771 9.053867948196181 0.22228291161829733
0.5238626485232076 13.261792632554078 75945.3630216241 9.441540858912576 0.22503455496401722
0.5400902974386403 13.231774222417528 66146.92609331568 9.838984962893528 0.22775995837311033
0.5565931660672173 13.205184938735865 57701.65003719674 10.252398810817176 0.23053227053124614
0.5733698488517838 13.181834576161027 50407.23047372406 10.682733307857085 0.23335522109814777
0.5904286729124096 13.16143771561098 44097.880839611134 11.126977959688203 0.2361816964966767
0.6077539741999332 13.14371096130332 38633.29963982473 11.58600880250741 0.23902622256039474
0.6253498271352382 13.12854142418839 33892.50987970475 12.063879247088128 0.24193008968560986
0.6432191312894153 13.115500394128125 29771.404732251507 12.560227063228288 0.24488139735997333
0.6613441457430851 13.104475425846244 26184.972931056174 13.070106059298949 0.247812438990491
0.6797416888056765 13.095292301539812 23055.91896135272 13.600937547784206 0.25080211743495806
0.6983795113042159 13.08788470548508 20176.200213669494 14.153626964521152 0.2538521376992288
0.7172950440048498 13.08196818597952 17941.718741013792 14.722090855269995 0.2568976359549941
0.7364536927386616 13.077474697784039 15853.437068645522 15.312072881942814 0.25999223292964124
0.7558556780700865 13.074210712912093 14024.287827191112 15.92630360810958 0.2631528029245591
0.775495848988157 13.072063157272531 12419.533698515866 16.56176639559834 0.26633744590578406
0.7953760123450095 13.070995167640268 11010.393076874276 17.21778786600561 0.2695366700123993
0.8154910570447542 13.07070009499364 9769.68120067214 17.90084941004666 0.2728077596440324
0.8358311683745885 13.071302475273622 8678.119054128389 18.611530163531715 0.2761484337827948
0.856381386126918 13.072579125166772 7716.6819894984 19.341518582539624 0.2794797444198888
0.8771602868683614 13.07445931549244 6867.586494330571 20.101530728056154 0.2828819446753725
0.8981268188468275 13.076811018337516 6118.063246647073 20.892817258020248 0.2863566956433074
0.9193071672876816 13.07971205584678 5455.802402920989 21.709894094807296 0.2898528414198433
0.9406742383318674 13.082913299799188 4869.305094665774 22.556210924049722 0.29339700708699273
0.9622137819948797 13.086246083733013 4349.581751823316 23.43732691442426 0.297024552823916
0.9839456134389647 13.089952740783326 3888.7861850875715 24.35358585040328 0.30072882101277687
1.0058304280327186 13.093727861634987 3479.9404999538688 25.296767991274404 0.3044288952430219
1.0278684398722964 13.097611550894749 3116.7450098038744 26.27877782919449 0.3082153798915705
1.0500589049531006 13.101498804983908 2793.9528620143014 27.301113389729835 0.3120901836532037
1.0723873006041325 13.10530647538962 2506.5424103094697 28.35995673456169 0.31601958266476854
1.0948357998959892 13.10903696734694 2250.4422590811914 29.455613751062035 0.3199986755797393
1.117386832724784 13.11248414967385 2022.421335557497 30.596263076081566 0.3240669377294895
1.1400653095017919 13.115800907381956 1818.881078895397 31.783755403583942 0.3282249734073326
1.1628172269969173 13.118825730509927 1637.1211662301223 33.01230588195244 0.3324330038393929
1.1856492615042118 13.12151824291619 1474.6963916779416 34.28673081802938 0.336715765803584
1.2085445271352115 13.123848236905307 1329.382670251015 35.61361536498432 0.34110416467711335
1.2315025724344533 13.125802058606846 1199.4549557631422 36.99497878967784 0.34559725596328994
1.2544929562107172 13.12723594422859 1082.9943054038968 38.42690833786734 0.3501502375914874
1.277503023292965 13.128152249790022 978.6111587991966 39.91198726318587 0.3547830975565945
1.3005125178749228 13.128464319729176 884.994967179118 41.45847685428699 0.3595330634619233
1.3235449627504123 13.128312690453681 800.9026628790817 43.068834172375 0.36440230551105024
1.346526896643051 13.127424639158118 725.4215565328633 44.745647426016035 0.3693928264493894
1.3694988721419243 13.12595906234644 657.5005886265059 46.48089861521414 0.374435763457539
1.3924026783348133 13.123704718501383 596.4175525467325 48.28805946171072 0.3796083313339325
1.4152268950778528 13.120650903396465 541.436641148333 50.17061809656929 0.3849161811383167
1.437978708134079 13.116883671291854 491.8970612640461 52.130388241921615 0.3903510385290684
1.4606395872618496 13.112240204118926 447.17750922940377 54.172744919654455 0.3959189395498445
1.4801654665489314 13.105487423339513 411.4006283153197 56.4243666369313 0.6214205739609856
1.4922148100975727 13.091181657237595 388.0291453798281 59.07889213434014 0.8663905885295886
1.4987033828089757 13.068283608600803 371.879914266732 62.12574589379065 1.095792854454437
1.5010676081472234 13.03736604051075 360.1588364269398 65.56996453330282 1.310071718121296
1.5003179002367601 12.99878775018857 351.2432994943703 69.40825105430805 1.5100305332512396
1.4971760398967524 12.953159676835682 344.03206136808086 73.63539172509562 1.6965267445917174
1.4922133121550376 12.901000036061253 337.8215756562946 78.24598260598202 1.8715483289483454
1.485844254389844 12.842897670630883 332.1872942678017 83.23866799755143 2.043075006641627
1.478346403348096 12.779075274773584 326.79465399302796 88.62096410251257 2.224452550991002
1.4699422334062118 12.710558274509188 321.59012711470757 94.42590420201556 2.4379407463524507
1.4607582093760907 12.63820127551067 316.6071753367272 100.71628462022379 2.717835415010621
1.4506882809416133 12.56093623088088 311.76075607388157 107.4620282451717 2.862202301923538
1.4400239271741513 12.476342133668343 306.1374326764364 114.54926294616449 2.9111711445866124
1.4293187214612095 12.384417047318852 299.09705829449126 121.92188680290786 2.9407099045163387
1.4190155348678846 12.286742481824296 290.59365592717126 129.57988961704893 2.9707161871982923
1.4094170727129045 12.184517358828893 280.583456924043 137.5367541207187 3.001631320361812
1.4006619105612856 12.078632581047799 269.2539164015646 145.807121937713 3.033636696236806
1.39287068748561 11.969830919923252 256.7488323430882 154.40730655987434 3.0668159511854847
1.3861505985308034 11.859087094240234 243.37519250755057 163.35450787585714 3.101228244950235
1.3805218592834725 11.746981065831804 229.33580845508345 172.66728980066225 3.1369281628507584
1.3759635922147284 11.63397653032247 214.92768649121223 182.3573018529166 3.1739580053755065
1.3725029511327103 11.52086563502332 200.39030339145572 192.43199455419753 3.212313420842361
1.3700887489936813 11.408018632604522 185.9610733000534 202.93269769312894 3.2521629216956707
1.3686927880049438 11.295815235808902 171.82099682338335 213.88451379909844 3.293575516101412
1.3682588820804447 11.184756142891109 158.1798739902113 225.31368418116517 3.3366441536398175
1.3687113716176655 11.075016387076383 145.1216478618248 237.2491013618526 3.3814617217123284
1.3700058182446495 10.966838978150525 132.74918230524997 249.7212795146925 3.428123621248402
1.3720483728408552 10.860592224232906 121.14509644038257 262.70783392098923 3.4765089332423535
1.3747648945120672 10.756288979358612 110.33665222073626 276.2939341041399 3.526936880199999
1.378088406883828 10.654075624782232 100.32600951970053 290.5192526525278 3.5795406441188824
1.381930547728852 10.554020737918295 91.12612889324058 305.40781528708726 3.6343726735317774
1.386227366133031 10.456142948621324 82.69553967577349 320.9640975874987 3.6914128784958167
1.390886472163942 10.360493795952037 75.00876601093609 337.2875638088602 3.751028177102399
1.3958377116189045 10.267142419403525 68.03677016830096 354.39777666137394 3.8132462770545885
1.401017848726749 10.175832165579605 61.71238717972438 372.327656918713 3.8781494803294083
1.4063479364148805 10.086751130613091 56.00475859581118 391.1839115728015 3.9461199383289602
1.4117598621249297 9.999599165478095 50.85315767069044 410.94143914058446 4.016981308729381
1.4172104252258997 9.91455481953789 46.21720744676382 431.7556599565035 4.091315459786386
1.42261105479508 9.831223525715966 42.03842714876836 453.6031652247456 4.168924129951775
1.4279169437337318 9.749670027585697 38.28873943309205 476.63870057993626 4.250388282784604
1.4330820490101288 9.669820511712091 34.919498219127405 500.87778173475186 4.335650742432056
1.4380418992144814 9.591572164613154 31.833295640840714 526.4431187779688 4.425119624949313
1.4427544215602488 9.514745369785658 29.173124302808823 553.4355263369223 4.519106479497342
1.4471740947578013 9.439323902620268 26.736888587644756 581.904657557306 4.617663640847897
1.4512640274075095 9.365125829773561 24.4952370813059 612.0057052493835 4.721306410574183
1.454979667602034 9.292120786260824 22.567501587875853 643.8551144623013 4.830352503407218
1.4582789282467998 9.220206958680071 20.80060025674917 677.5793525037319 4.945147121220369
1.4611407944196135 9.149240381646653 19.195522929669522 713.3149964422716 5.066057684069661
1.4635287285960898 9.079128909795992 17.768668848996718 751.2118587722858 5.193478753062199
1.46540799892199 9.009897768550086 16.476520728440654 791.4548610208763 5.3279406810272905
1.4667593451578196 8.941428456548396 15.311460446499067 834.2314948020779 5.469947631446938
1.467558809665526 8.87363853676518 14.261565318983646 879.7485893830428 5.62005097074283
1.4677854538802535 8.806428112519441 13.314061359288237 928.2297039971356 5.778827337875363
