M[M_sun], R[km], Lambda[1], P_c[MeV/fm^3], rho_c[fm^-3]
0.23841724892012095 16.20908015294055 2780876.1263280716 3.453507347168396 0.169602847481901
0.24841617710847747 15.866218767723312 2282138.1957046255 3.635577734496351 0.17197883716943022
0.25869785808622237 15.562881543039932 1881672.0332817673 3.8248262289010917 0.1743756455389509
0.2692645941240995 15.293437808308514 1558068.4315034016 4.020362244854363 0.17676765769336678
0.28011642895325595 15.05385811349545 1295380.867243043 4.222508595531967 0.1791466951902108
0.29124802182983733 14.839791929450378 1081159.127211821 4.43263512354083 0.18154954003394766
0.3026700468647989 14.648402027817673 905464.3179348481 4.651089475268297 0.1839800471306533
0.3143737056646772 14.47696700295346 760934.3370320947 4.878238922818189 0.18643986740109705
0.3263612790182294 14.323126844947037 641515.662642475 5.111408178544869 0.1888695166149538
0.3386314053247771 14.184903174242567 542430.7661252097 5.353771217473125 0.19132075045851699
0.3511850062139443 14.060571099182019 459925.7186509897 5.605833505510204 0.19380196204582215
0.36402168772046245 13.94872640561429 391075.0957781155 5.868007636557517 0.19631874651349554
0.3771475457467339 13.848186393892687 333349.9288996158 6.1372144212059805 0.19881164813009924
0.39055280854554336 13.757445776697816 284828.48813427 6.416825771315251 0.20133422317318128
0.40424160635684403 13.67587002938357 243943.47823703694 6.707677400444969 0.20389139427222877
0.41821579129645353 13.602399446601229 209379.22356202386 7.00990551454831 0.20647529948700769
0.4324767119573708 13.536458783774705 180096.83045157822 7.320057981512615 0.20903518025833207
0.4470167767134598 13.4771407480862 155223.8459601215 7.642756068893601 0.2116395184085549
0.46184149631940585 13.423838589021152 134033.8183874983 7.978533747736759 0.21428833885608242
0.4769521416580905 13.376124399869086 115961.42570784631 8.325519824617075 0.21694495254971033
0.4923427570507336 13.333487818531369 100502.22940078909 8.683549522133895 0.21959807973641357
0.5080132114817191 13.295433369055031 87252.48551110347 9.056183606551368 0.2222993566147594
0.5239638584771947 13.261595361768745 75873.49898487607 9.444027315069409 0.22505160540210026
0.5402016031376857 13.231592642356423 66085.70004717473 9.84175299769626 0.22777893968749463
0.5567105249823454 13.205045942448393 57646.07198070252 10.255358119416396 0.23055182625646106
0.5734929391019112 13.181784691497977 50361.01579531601 10.685892401142441 0.23337532060731667
0.5905646340588797 13.161437741170081 44057.343644749264 11.130474744589453 0.23620394454503607
0.607887507441976 13.143591243002557 38595.356077908546 11.589728941811474 0.23904909960634962
0.6254989411235505 13.128343661362129 33856.921572736675 12.067833352572443 0.24195360098450477
0.6433703684583966 13.11536602327587 29738.534984474296 12.56458395867528 0.2449073036671051
0.661507501187218 13.104465013295371 26156.52040398663 13.074724455245557 0.24783892872756375
0.679907920467944 13.095261284463998 23029.677914480373 13.605829348535577 0.2508291901085248
0.6985591619807355 13.087793061003993 20304.147423901864 14.158805136528002 0.2538798793272751
0.7174775152353854 13.08196428347872 17920.65370946932 14.727766572027704 0.2569280431378726
0.7366488347110745 13.077455821158903 15834.352397081535 15.318069098260498 0.2600233443413815
0.7560557451317121 13.074166774142842 14006.759896601974 15.932635714382272 0.26318453648660983
0.7757052752466974 13.07199314764114 12403.117026668551 16.568687142725384 0.2663721294611344
0.7955975538256174 13.070984163406095 10995.625385830412 17.225083738571296 0.26957203379533085
0.8157203247819931 13.070733667912405 9756.74840495495 17.90853896360742 0.27284390568090355
0.8360645954622584 13.071330129331796 8666.54250407862 18.619914513212333 0.2761878458254188
0.8566222764321048 13.072585571141436 7706.2211538686415 19.3503440147404 0.2795199966639695
0.8774081034320619 13.074549983886719 6858.210607084481 20.110819195969018 0.28292293101714633
0.8983845741886 13.076856107277305 6109.5699801569535 20.902591737576504 0.2863985191339265
0.9195765934134705 13.079751673371966 5447.7750447279 21.720519670180565 0.289898306618209
0.9409405838767798 13.082816344817179 4861.935190788302 22.567381382714 0.29344345425979546
0.9624990578208662 13.086299007195164 4342.982989690207 23.44907119674694 0.2970720328207822
0.9842395246853675 13.090011210566386 3882.950122600131 24.366332784638455 0.30078035454891905
1.0061336036609043 13.09383523360323 3474.7813650865724 25.310158437347464 0.3044813711362911
1.0281794020976436 13.097680960174202 3111.901616773323 26.29284519834777 0.30826898279278564
1.0503848609361779 13.101576864365082 2789.5416645511646 27.315894362494703 0.31214503628089
1.0727128736506513 13.10532812984033 2502.542110971175 28.375966369319563 0.3160789948934992
1.0951775222122155 13.109124773330413 2247.1107937935494 29.472426600602958 0.32005947501361565
1.1177301146037875 13.112515909475928 2019.1946920590235 30.613922444286075 0.3241289746178563
1.1404179900974147 13.115891867380778 1815.9229022613395 31.802307211039217 0.32828851704816464
1.1631711854999272 13.118875957693012 1634.4609403341497 33.03236695868384 0.3325017170285308
1.1860170068663114 13.121546126497428 1472.1457918228366 34.307798319601815 0.33678620512230445
1.208919126018115 13.123883438933795 1327.2598771967032 35.63574688604942 0.3411764377232166
1.2318856933641402 13.125831897018998 1197.4193657555688 37.01823388012546 0.34567119814829755
1.2548843749337377 13.12728143472656 1081.13920742848 38.45202393560944 0.35023009546944345
1.2778990437172197 13.128149367356446 976.9029984516445 39.93837123607142 0.35486511517361763
1.3009190053226936 13.12846087513855 883.4346521573357 41.48620360965765 0.3596173934412384
1.3239423124096683 13.128309705161172 799.5218626827311 43.097982985932724 0.364489079707184
1.3469525060721348 13.127514885980357 724.1567348227782 44.77630085535474 0.36948191056251445
1.369917322758303 13.125907893288407 656.3301723609336 46.51396080431517 0.3745318478388815
1.39284621132703 13.123716902828072 595.3292426099405 48.322826117793774 0.37970735437186104
1.4156624730137222 13.120598877875418 540.459340273235 50.20719252380094 0.3850183301071475
1.4384248014705723 13.116824319566291 490.9750675831002 52.17025721972035 0.39046757180771247
1.4610762503838788 13.11220452078923 446.37902888111466 54.214409578615296 0.3960525030584934
1.4836183714716051 13.106726460575553 406.1373086972834 56.33075831735674 0.40171386481009536
1.5042193533208332 13.099961310659724 372.3311177611008 58.67740365033454 0.6564634881559039
1.5114472500877434 13.084275530025879 357.701037647475 61.75883161728832 1.198743868918474
1.5086997093602172 13.056775702699928 354.3747701970817 65.6622740695233 1.7087346742761174
1.4997522543438604 13.018950248999477 357.1416499598027 70.45899452056597 2.175247130829349
1.4866031361940437 12.972003567034056 363.6694740747903 76.11983519266101 2.6153169121473354
1.4705045903046787 12.917602886961317 372.7938163641209 82.65272678544612 3.0871796740410984
1.4522349312960172 12.857273314652623 384.0459514427107 90.14717277770444 3.6310197403174844
1.4314874312195853 12.788216105965091 397.49684407696003 98.46375637440326 3.870445230537174
1.4083720622661078 12.706824181511204 412.1273346699739 107.27793144440055 3.9408954284068876
1.3837873952008113 12.612552539550391 426.4368439585213 116.46789421382567 3.9856902257871547
1.3587750586336864 12.507411199320952 439.1417038772276 126.02639583287625 4.031831698173122
1.3339583795420629 12.392858559008014 449.42738756666876 135.96992191957392 4.079695416892243
1.3098030403086363 12.269824952642143 456.43080833114885 146.3167255263484 4.129350126522952
1.2865752825414272 12.13943971991258 459.8062632804894 157.08730780571244 4.180877730934492
1.2645506740839683 12.002710577406317 459.1375182746327 168.30390718679547 4.234379219435503
1.2438919022595096 11.860502500276862 454.24612056966237 179.99005883473427 4.28993657651407
1.2247362613274422 11.713835243465423 445.2378217620219 192.17204729648864 4.3476623282670035
1.2071651959955856 11.563522562437152 432.28834201388673 204.8774978562978 4.407671917559656
1.1912170532350403 11.41060913620381 415.8763203834826 218.13635829666785 4.470073917260409
1.1769175316884695 11.25572439906512 396.3657876340202 231.98149362539078 4.535020253000131
1.1642696656503375 11.10004140176809 374.57187910883624 246.41189170813732 4.6024366440229185
1.153219745475264 10.94418354063666 351.06400623523206 261.4795656990991 4.6725801843958985
1.1437352175526732 10.788985989691138 326.5539141090829 277.24022281983395 4.745659148241812
1.1357407733534741 10.63515766127999 301.6119516972187 293.73672932671514 4.821862174285009
1.1291258518992966 10.483243712727038 276.87966199495503 311.0166198766697 4.901369679671476
1.1238264082757892 10.333718519611429 252.77125368742034 329.1301170990846 4.984375524883409
1.1197323751644628 10.187136976212111 229.64382420097334 348.0659070425679 5.070759630747923
1.1167270806447314 10.043804077530547 207.82094325401462 367.91922051640955 5.1609314440675575
1.1147117268221993 9.904019620698048 187.45529888380912 388.7767933460926 5.255263800710244
1.1135656503467881 9.767885704888904 168.64830332222365 410.69784978588956 5.353960934006963
1.1131850962361025 9.635740647523122 151.46721868503144 433.66067722584233 5.4568154650358345
1.1134730034433304 9.507578880251879 135.84049991187428 457.84306846476534 5.5646386778464585
1.114315046586442 9.383108052592549 121.73607593678256 483.29730064118763 5.677576036499685
1.1156048250669026 9.262702622720612 109.09634613301526 510.05329348172546 5.795650629206489
1.1172668521151767 9.146099370345977 97.52263810617139 538.3030973308664 5.919708976116199
1.119206992652202 9.033199459206825 87.69857038038019 568.0224446207037 6.049456240788896
1.1213322216094805 8.923915098926905 78.73622541610274 599.4468093473133 6.185948251958529
1.1235878326308646 8.818090230589501 70.61627728142533 632.5748003512648 6.328941459892858
1.1258890530304093 8.715524873282702 63.735351848963916 667.6479252834184 6.479522858468647
1.1281672742870525 8.61613215872238 57.494408226936486 704.6990252137977 6.637562822796144
1.1303680221356898 8.51973584789157 51.96723545161269 743.955488747879 6.803990355905477
1.1324250514915255 8.426083082257977 47.08504490971361 785.5803176706959 6.979370709888433
1.1342942486728145 8.335146140706858 42.75463498101363 829.6823103833428 7.16388457064628
1.1359293354999072 8.24657497280801 38.92153026705083 876.5291915687978 7.358587048915417
1.1372822217489913 8.16040980977559 35.52085284367135 926.3290216232166 7.564129520489931
1.1383293393719462 8.07642370027693 32.50185505039664 979.3123910234327 7.781240934500717
1.1390029556516872 7.994489771004024 29.833813296321537 1035.7253372625153 8.010671025286078
1.1393113959319412 7.9144069057256825 27.39390370645993 1095.853962703245 8.253317573340508
