M[M_sun], R[km], Lambda[1], P_c[MeV/fm^3], rho_c[fm^-3]
0.23841724892012095 16.20908015294055 2780876.1263280716 3.453507347168396 0.169602847481901
0.2484146970548898 15.866258498301866 2282218.627433362 3.6355561732553348 0.17197856290228997
0.25869541676731983 15.562978249740498 1881673.4172427102 3.8247818773837503 0.17437510298228673
0.2692583468825011 15.293631163373707 1558223.8787597893 4.020290790785736 0.1767667835884107
0.2801128994556195 15.053923848955263 1295521.96649952 4.222410746649214 0.17914555099933607
0.29124131320128216 14.83991050254404 1081298.9043541749 4.432509530842818 0.18154812686241997
0.30266362792312573 14.648536852451425 905601.3293148378 4.650934718670113 0.18397837103566192
0.3143661779440012 14.477016004017683 761062.5876312612 4.878053524373606 0.18643793552897384
0.3263506339337877 14.323239245801476 641632.6497296358 5.111181323087871 0.18886715275621507
0.3386190011384142 14.185040145315247 542519.6125202284 5.353509435636031 0.19131813837002307
0.3511702762236056 14.060688105506689 460031.313601339 5.605535157168909 0.19379909460670083
0.36400629362580095 13.948986772560916 391181.890475063 5.867670961835658 0.19631562884705378
0.3771284817243788 13.848296668036959 333419.52659130556 6.136821908830672 0.1988080133972814
0.3905320191035606 13.75758898144515 284890.2595100673 6.416389871642123 0.20133033803303915
0.40421868783239295 13.675978760477275 243996.1904893863 6.707196160660086 0.2038872799032085
0.41819100098163225 13.602556577410727 209437.6205164005 7.009354911827918 0.20647059209820398
0.43244801791838816 13.536610227530204 180152.4426684423 7.319456334146304 0.20903022068880828
0.4469866683833869 13.477271140251451 153472.0686993588 7.642101021447205 0.21163431044709394
0.4618105221386296 13.424027184606693 134082.51820820489 7.977822852798004 0.21428289606354733
0.47691712685842863 13.376238996931693 115994.92717632635 8.324719717089872 0.21693882672289833
0.4923067675764769 13.333563083911995 100532.53553805668 8.6826868102154 0.21959173259786816
0.507973434930135 13.295531477487335 87284.67214956718 9.055255491517746 0.22229276546610827
0.5239254141296094 13.261650955364663 75899.22813976718 9.443030740182797 0.22504477156416888
0.5401569535918425 13.231586153545635 66107.03155764214 9.84064355763972 0.22777133189640653
0.5566608316730431 13.205089961109024 57668.078839017486 10.254172011165407 0.23054398820704722
0.5734453287251353 13.181864181927951 50382.65409652336 10.684626212932125 0.23336726457375134
0.5905091440927791 13.161542278220242 44076.643668871635 11.12907319661219 0.2361950272944597
0.6078341400313847 13.143649091775677 38611.7505013652 11.588237865174944 0.23903993021081144
0.6254359671413651 13.128441317444596 33871.8840974691 12.066248493298104 0.2419441773360328
0.6433100384835815 13.115414295118212 29752.34962844453 12.562837642393124 0.2448969199876009
0.6614396239112517 13.104346879451704 26166.195567586583 13.072873318104932 0.24782831115888673
0.6798422785112673 13.095267812068869 23040.050963556376 13.603868618348425 0.2508183388471985
0.6984881725717633 13.08773350370967 20311.096840183323 14.156729615311699 0.25386875989410285
0.7174081250326565 13.081973504760416 17929.399054820104 14.725491606601759 0.25691585519885063
0.7365705177970402 13.077454777034886 15841.85792942838 15.315665659876583 0.26001087408394036
0.7559750279795079 13.07418171009506 14013.66873124173 15.930097633262589 0.2631718168083175
0.7756194679515827 13.072019153703806 12410.06176046484 16.565913096160767 0.2663582272341346
0.795510355977549 13.070929324999545 11001.031887522855 17.22215931960344 0.2695578588605785
0.8156315115563123 13.07079968431386 9762.396225742628 17.905456733489235 0.27282941714101405
0.8359721955322498 13.071355734604142 8671.509635568007 18.616553758146036 0.27617204803227235
0.8565328239467377 13.072669432469956 7710.626991053422 19.34680644475449 0.2795038620286014
0.8773106991874794 13.074495286038223 6862.097857998501 20.107096010091055 0.2829065020677961
0.8982814482967486 13.07685598682441 6113.157696260029 20.89867372478783 0.28638175456143244
0.9194685623327008 13.079726528547537 5451.0170526736 21.716260467617623 0.28988008214728844
0.9408352411988042 13.08293059214551 4865.134023933129 22.562903750465402 0.293424836102292
0.9623833483580146 13.086335843335288 4345.958430713992 23.444363532455117 0.2970530005904865
0.9841198243908109 13.089981636922746 3864.1869174985763 24.361223166160716 0.30075969729097474
1.006009892046647 13.09381462379326 3476.9574047601154 25.30479084694864 0.3044603360565526
1.0280616012713608 13.09768612315638 3114.0494044883712 26.287206241020087 0.3082474958701565
1.0502573564018838 13.101541961783386 2791.3276763696977 27.309969332453335 0.31212304831892973
1.0725793588674657 13.105347442071432 2504.204638893939 28.369548767130652 0.3160551789817113
1.0950333538657204 13.108969532611091 2248.3058146002704 29.46568699730237 0.32003510293651893
1.1175952474856443 13.112498655775626 2020.4532989622924 30.60684347832351 0.32410410639969095
1.140271708482863 13.115804528755321 1817.0699526343803 31.794870471669434 0.32826304473250945
1.1630333909690667 13.118895627586486 1635.5252600324209 33.02432513557352 0.3324741721803758
1.1858685437017518 13.121531485247466 1473.1742398066065 34.299353020885526 0.33675796821505083
1.2087688318089154 13.123883004194413 1328.1415820808677 35.62687502000861 0.34114746561680315
1.2317402026010627 13.12582287219245 1198.1927239469117 37.00891157097879 0.34564155681410563
1.2547292557044094 13.127262063893967 1081.8572367398656 38.44195570719219 0.35019808240073474
1.2777445692386562 13.128147523318992 977.5695530865617 39.92779450342087 0.3548322361825858
1.3007522650015026 13.128514324450396 884.0790501349522 41.4750885393469 0.35958358733457857
1.3237855808580477 13.128311328086825 800.0886461730856 43.086297792353484 0.36445429361623394
1.3467818429328282 13.127447800839205 724.6425982505812 44.76401243680633 0.369446198314596
1.3697487175046346 13.125896232066282 656.7754954894527 46.50070662723272 0.3744933289313379
1.3926638166372411 13.12370467863651 595.7832178221851 48.30888858069065 0.3796676572188793
1.4154924736765508 13.120644882867705 540.8530622236274 50.192530205455704 0.38497737961761147
1.4382520274442667 13.11687049358538 491.35242059726926 52.15482604903674 0.39042530752128796
1.4608916832030148 13.112189233167445 446.7136927954741 54.19916238216547 0.3960129683889002
1.4834407148204134 13.106804080247473 406.4377833569989 56.32425254744172 0.401710981891799
1.505824497755151 13.100417445845858 370.1104720312551 58.534408926482726 0.40754166028691763
1.5280649131569408 13.093062751717811 337.23712110708135 60.83846707823674 0.4135331186968155
1.5501146811809843 13.084846853148338 307.5727446350724 63.24068272367474 0.41968844279801804
1.5719696665620888 13.075638996851538 280.78882780684273 65.74557592855724 0.4260084285232503
1.5936368527916207 13.06534469390212 256.3832776471619 68.35801573459119 0.4324987441826556
1.615053973889742 13.054015512146103 234.35395821881852 71.0830631896233 0.439174264335542
1.6362268965262743 13.041652514955896 214.3964791091268 73.92616301709688 0.44604210458100424
1.657139791318118 13.028272049235298 196.2904769624791 76.89049587381608 0.4530940720918804
1.6777445728501974 13.013559226837955 179.84910506413766 79.98295878268046 0.46033628078491184
1.6980254856783534 12.997695762917896 164.9098196852962 83.21282695933063 0.46780004723996316
1.7179834775083818 12.980671042165843 151.33895923595085 86.58717600701571 0.4754958065121374
1.7376048461723397 12.96248331971623 138.99761265886298 90.11353691607835 0.4834283147940148
1.7568667297285905 12.943160734641774 127.77358501850439 93.79997334739026 0.4916052616186505
1.7757216145864452 12.922505319011012 117.54920606101894 97.65515481772135 0.5000458700632713
1.7941424346125396 12.900353094683947 108.22478516188104 101.68833309011657 0.5087660609752953
1.8121567072541862 12.877130018429575 99.73218895857222 105.90940239740411 0.5177730146542647
1.829726297603785 12.85263216362266 91.98754319840158 110.32898916473835 0.5270795320197772
1.8468056090158542 12.82658707480276 84.9064554730813 114.95851905954214 0.5367093605771669
1.8634016422798252 12.799287637596244 78.44314476845229 119.81025366454068 0.546682168211
1.8794711720563542 12.770502382069218 72.53334022365233 124.89477291112627 0.5569967372633192
1.895024216477292 12.74042239526447 67.1345896353715 130.22381376646334 0.5676683567211698
1.9100425752886576 12.70897004739992 62.190327798539684 135.81622448813073 0.5787396098854557
1.9244631066112385 12.675972282141265 57.661615342156736 141.6883462478621 0.5902288821108094
1.9383066039715595 12.641598731674511 53.51870827139512 147.8577931095195 0.6021546937932818
1.9515587278033302 12.60593726458407 49.721257774077365 154.34353389443783 0.6145524818475825
1.964141440719776 12.568401131601881 46.23010931774263 161.16563470316152 0.6274526808822835
1.9761177282550373 12.529722105480408 43.029954682909505 168.33132188652235 0.6408207813729165
1.9874028619877435 12.489379102540441 40.08986823952425 175.87804798129315 0.6547489736830021
1.9980410003504132 12.447670766470623 37.39094660642754 183.83159307204392 0.6692767640557579
2.007944058292654 12.40426654690727 34.90804655582518 192.21385067531665 0.6844079613763406
2.0171597342836995 12.359485504976016 32.623377015800415 201.04491401734657 0.7001621590808098
2.0256534654617178 12.313213136880853 30.522939745716467 210.37151950850736 0.7166357669455765
2.0333830796081624 12.265391461650298 28.588279967751333 220.21803149465913 0.7338237509951239
2.040365894057897 12.216098672619863 26.806800572722615 230.6177716756354 0.7517768550100061
2.046578520525536 12.16519579248931 25.16203983615051 241.62437185705303 0.7705925423951262
2.0520114692714584 12.112929732847064 23.649731253749433 253.25653090488638 0.7902270239128937
2.056620583960746 12.059032484336099 22.255061893732673 265.58883792582543 0.8108491954594316
2.0604548504906557 12.003755201986221 20.965887705756753 278.6421779760583 0.8324152395703485
2.063458853685762 11.947024068626062 19.778562644941797 292.49821388338245 0.8550745282521764
2.0656283600060523 11.888789240127764 18.681934351391025 307.1972885625004 0.8788472347809901
2.066971815529122 11.829153264950726 17.6691202160996 322.814300677419 0.9038240871831029
2.0674639460888398 11.768091422746702 16.73490370070471 339.4248570835702 0.9301195147673386
