M[M_sun], R[km], Lambda[1], P_c[MeV/fm^3], rho_c[fm^-3]
0.23841724892012095 16.20908015294055 2780876.1263280716 3.453507347168396 0.169602847481901
0.2484199953730191 15.866090852772007 2282047.5483833426 3.635604757803022 0.17197918091611136
0.25869839827976837 15.562874397873177 1881468.75535665 3.824881816412484 0.1743763255466837
0.26926805899558226 15.293375308427104 1557991.099385274 4.0204518019449145 0.1767687532544483
0.28012482864228516 15.05364769527935 1295241.1106407638 4.222631235708999 0.17914812927680926
0.291258683746788 14.839673717916384 1081016.5796333794 4.432792538156952 0.1815513112663287
0.3026813398758424 14.64825465738071 905356.3853551509 4.651283444791275 0.1839821479221527
0.31438567677407553 14.476781397998026 760828.6194074665 4.878471300260159 0.18644228879952474
0.32637586427879917 14.322953759424681 641361.4735966402 5.1116925208456365 0.18887247949290858
0.3386485107891693 14.184650758499444 542301.2581282066 5.3540993393631675 0.19132402449549027
0.35120361278152695 14.060464454183249 459845.01370733127 5.606207463381403 0.19380555617148393
0.3640412748828249 13.948627303592424 390972.8624398747 5.868429636931096 0.19632265431030266
0.37717061910364613 13.848023192248794 333265.00584049185 6.137706415585732 0.19881620408356915
0.3905790802164989 13.757319901402893 284740.94112825266 6.417372153484178 0.20133909303528094
0.4042703280222176 13.675771810737693 243865.35683105633 6.7082806188813064 0.20389655150013236
0.41824774999702974 13.602359339642884 206722.8565742435 7.010595684433726 0.20648120010803792
0.4325094497131069 13.536337866665399 180039.64735221225 7.320812140130627 0.20904139702633845
0.4470517847355337 13.47698177997084 155164.88872469327 7.643577169549285 0.21164604657776448
0.46188176684057425 13.42369200229781 133979.26995078707 7.979424859066163 0.2142951614311596
0.47699390638788647 13.376005661349186 115914.60062704173 8.326522775274713 0.21695263139514145
0.4923867457153469 13.333378161761212 100458.68721302506 8.68463095568689 0.21960603605235327
0.5080614859443018 13.295342361667366 87213.43563042158 9.057347032176125 0.22230761885700262
0.5240150064087598 13.261443154115177 75842.58098841256 9.445276565437405 0.22506017191793895
0.5402549476586175 13.231449379719267 66053.34168492928 9.843143744774673 0.22778847649226977
0.5567658067956403 13.204993776835797 57617.653032799644 10.25684498365675 0.23056165176385285
0.5735603577758396 13.181700196473306 50333.42428756892 10.687479660455038 0.23338541943322183
0.5906264314545021 13.161273264814366 44033.38800954057 11.132231706977242 0.2362151230948391
0.6079599853821759 13.143633549842873 38577.50292180266 11.591598147272416 0.239060594310105
0.6255701945703075 13.128317176098392 33838.65822315488 12.069820135099743 0.24196541448771652
0.6434507633297945 13.115408469248194 29723.53695377484 12.56677316915857 0.24492032081655157
0.6615871882032542 13.104335376692562 26140.306507582118 13.077045084280734 0.24785223916125024
0.679993496451189 13.095195986442544 23016.558116442568 13.608287380021453 0.2508427935824633
0.6986464586281429 13.087691520148862 20291.372542438297 14.161407088277063 0.2538938190684659
0.717571563123762 13.081847795767624 17909.283585984977 14.730618588044575 0.256943322577686
0.7367414567084225 13.077433124731574 15824.949110946398 15.3210821915994 0.2600389777979668
0.756154880653233 13.074206782508185 13998.626769300492 15.935817621563661 0.2632004827207114
0.7758102977519352 13.071978134734715 12395.443100118258 16.57216491366393 0.26638955842633555
0.7956987000514454 13.070941237936374 10988.413676418739 17.228750048805967 0.2695898047470753
0.8158344505261582 13.070749474214432 9750.038073027545 17.912403141063564 0.27286206989547107
0.83618302525421 13.071335818955474 8660.631590192934 18.62412792794289 0.27620765168839906
0.8567466270074741 13.072558600283303 7701.2200411525155 19.354779128534734 0.2795402249404905
0.8775377981424204 13.074535936369028 6853.547735616892 20.115487045209836 0.2829435283929599
0.8985183162163083 13.07685079812112 6105.101859701724 20.907503872905192 0.28641953740345755
0.9197114530850016 13.079763180750763 5443.909889519618 21.725859633136047 0.28992115549617625
0.9410855235895305 13.082908555598152 4858.426300358947 22.572995231992884 0.2934667968489748
0.9626429382602282 13.086335759039425 4339.852922004876 23.454973482122753 0.2970958946867905
0.9843879392579874 13.090117769471053 3880.1900003788855 24.37273910730638 0.300806254146003
1.0062866158385049 13.093811975626462 3472.0772423888675 25.316888236542948 0.3045077445836265
1.0283388574773824 13.09772914065562 3109.707775260184 26.299915272367045 0.30829592290327174
1.0505419274571213 13.101544985335458 2787.255723935751 27.32332315358589 0.3121726047446418
1.0728695083355597 13.105324753759875 2500.6043334269048 28.384012853348587 0.31610885563403707
1.0953339341165533 13.10903498210917 2245.2109154072623 29.480876862445374 0.32009003325627855
1.1179236404827966 13.112672737380496 2017.4401862807713 30.622798257423113 0.3241601551121056
1.1405893776883236 13.115845430440377 1814.3484808317567 31.811631664949488 0.3283204551626399
1.16336150059444 13.118935231442883 1633.052586324735 33.04245022660679 0.33253625423235067
1.1862053689668741 13.121591498712737 1470.9659610217054 34.31838754943996 0.3368216102762098
1.209110932957085 13.123871623021472 1326.0643863732748 35.646871038854876 0.3412127649330005
1.2320753216374976 13.12579714177775 1196.318263870018 37.029922900565424 0.34570836470819016
1.255081111781119 13.127289267913277 1080.2050495201752 38.46464842488632 0.3502702364580945
1.2781016003071335 13.128225728468758 976.0909219479437 39.95163341823987 0.3549063421936234
1.3011194713716616 13.128488838596285 882.6328920984528 41.50014090277285 0.3596597832421509
1.3241529248916932 13.128338316289145 798.8275516561926 43.112635256965014 0.3645326986022668
1.3471652629694106 13.127522921253938 723.4982094388492 44.791709622388545 0.36952669107729436
1.3701287635060508 13.12592292809486 655.7541384226419 46.53058080545441 0.3745801484073193
1.3930435668103234 13.123548825885278 594.7497291137798 48.34030313283511 0.37975713273188455
1.4158844390706593 13.120607590327731 539.9526519864559 50.225578507782664 0.3850696804479956
1.4386572495577095 13.116854599578861 490.51953268145786 52.18960745209264 0.39052056997487233
1.4613024590153856 13.112106499830245 445.95205248003987 54.23578122473218 0.3961111546507422
1.4838476065008168 13.10666792299444 405.7387113047054 56.36371851912993 0.4018168021733376
1.5062300352857814 13.100243430971952 369.4648473348827 58.575964320599546 0.4076510936152395
1.5284758939459948 13.092980465741137 336.6679928603249 60.882242540678476 0.41364639580010465
1.5505315475340284 13.084663040682582 307.0189742544406 63.28681740576524 0.4198057298052222
1.5724045166493077 13.075474849644792 280.22249601633354 65.79421699472788 0.4261297969246854
1.5940589265959486 13.065205048019166 255.94817060777106 68.4093212913667 0.4326247207730708
1.6154712829125344 13.05378262401726 233.95739760496906 71.13720425267131 0.43930514239523477
1.6366447209421535 13.041410491411941 214.01598002147324 73.9833220358269 0.44617808240890705
1.6575643991071813 13.028016941022376 195.94314499397967 76.95205512323584 0.45324051780087626
1.67815724771586 13.01318103972803 179.51794828917082 80.04797137574774 0.46048842141159485
1.6984461665434734 12.997347985829856 164.60459302683276 83.28151881309606 0.4679585121346887
1.7184169240163396 12.98038553878571 151.07023265977244 86.6597912901774 0.47566100455859506
1.7380112278947213 12.962086565306162 138.75124380258313 90.19033679615225 0.48360051725015013
1.7572702080094642 12.942715241222436 127.53937051620731 93.8812370590056 0.49178485765132574
1.7761158270241284 12.921970392028975 117.33313769289208 97.74118367664047 0.5002335802436503
1.7945666808434604 12.899962384281444 108.02896227167763 101.77945268859291 0.5089624175208636
1.8125566206889203 12.876592310205497 99.54435740337519 106.00596193039708 0.5179783719984011
1.8301109684911145 12.851944455523526 91.81001036589147 110.43136357554128 0.5272944944352566
1.8471946960477574 12.826052820046357 84.75739731190257 115.06711377903143 0.5369347820537149
1.863773070556413 12.798629751540984 78.30555557749139 119.92550716008121 0.5469187499732469
1.879860460654249 12.769939762323858 72.40512782523496 125.01542908488076 0.5572386941236287
1.8954085509561962 12.739834957983794 67.0141366791912 130.35204397641598 0.5679228526779523
1.910388675382237 12.708219663511098 62.0792248841555 135.9525763358562 0.5790075017934516
1.9248086071387578 12.675236825769606 57.56233503250323 141.8334103361341 0.5905107642157837
1.9386374413351068 12.640721712212082 53.41993294503446 148.01220796857584 0.6024517229973974
1.9518586772002748 12.6049025440572 49.62929004137971 154.50799274704633 0.6148658678566371
1.964453420540124 12.567534604689572 46.14751015424321 161.33886116685727 0.6277764279740566
1.9764057034883598 12.528669682826903 42.95262444165985 168.51606673049142 0.6411629218137139
1.9876862450831043 12.488355074235171 40.01894209518997 176.0751896792713 0.6551109382012469
1.9982964132580103 12.446506755067459 37.32330640351026 184.04208650202588 0.6696599908346249
2.008200194457745 12.403091756071086 34.84346035116381 192.43647221838506 0.6848061211219755
2.017389169373724 12.358263459907306 32.56468854749771 201.28293975653403 0.7005844921268205
2.0258620721726315 12.311962806831305 30.469204535470592 210.6261715214276 0.7170840798012872
2.0335775713754773 12.264098004051663 28.539120321037572 220.48819848548996 0.7342915837394965
2.040546802472981 12.21473371886501 26.760778688426484 230.90721631692253 0.7522743647077983
2.0467283505302265 12.163807706021107 25.121084667773143 241.93214210395115 0.7711133095527962
2.052143848218257 12.111449830476838 23.61084756290626 253.58673366758015 0.7907818110185133
2.05673967160312 12.057519624732036 22.217515720963977 265.94071036955745 0.8114321555235384
2.060543137612372 12.002185783781517 20.9319853196514 279.0202523263457 0.8330367831517774
2.063532087615834 11.945416421236688 19.746307854045718 292.90195604576775 0.8557295128296039
2.0656771932028657 11.887083546736285 18.651176463996222 307.6317520922438 0.8795472838033787
2.0669995702022 11.827445162969262 17.64185366183705 323.2792368721738 0.9045631096919757
2.067457426447877 11.766274119326816 16.709144068317084 339.92303329621365 0.9309012376843925
