M[M_sun], R[km], Lambda[1], P_c[MeV/fm^3], rho_c[fm^-3]
0.23841724892012095 16.20908015294055 2780876.1263280716 3.453507347168396 0.169602847481901
0.24842143849648188 15.866051406769719 2281797.69506531 3.6356861532808984 0.17198021629737392
0.2587091209775943 15.562652810310713 1881130.441236331 3.8250492520791135 0.1743783738043804
0.2692833390609178 15.293093439207455 1557511.1017421933 4.02072156361179 0.1767720532766095
0.28014474738749245 15.053231451014469 1294858.7535819907 4.223000656808599 0.17915244908342526
0.2912812569307859 14.839207724770427 1080604.469119192 4.433266717235751 0.1815566467387231
0.30271255599164487 14.647727867143464 904919.5641629342 4.651867748976109 0.18398847624242554
0.31442275609340153 14.476270312132224 760397.4067242419 4.879171315353466 0.18644958303356018
0.3264181892856546 14.32243158925616 641035.1683796736 5.112549094367698 0.18888140508293974
0.3386982331461314 14.184164959648824 541926.4110689269 5.355087815246891 0.19133388761858178
0.35126123858154074 14.059973740719139 459512.1010009836 5.607334040810925 0.19381638375705246
0.3641047854209609 13.948100354471341 390664.0280270012 5.869700967559368 0.1963344270528901
0.37724157279638887 13.84742752181185 332970.8221001695 6.139188646186322 0.19882992979655673
0.3906569110856036 13.75681973260449 284485.0450106521 6.419018265038122 0.20135376470050778
0.40435543840180876 13.675271880219265 243628.9267574887 6.710097992789103 0.2039120891741555
0.41834095526022386 13.60177702177764 209093.76527244243 7.012675074128889 0.20649897789119628
0.43261140305515094 13.535876071998928 179838.6670246998 7.323084354660998 0.2090601276093466
0.4471632541835943 13.476493067560844 154977.82561904503 7.646051112301796 0.21166571568506742
0.4620039177487759 13.423445819843783 133838.23395025003 7.982109781162374 0.2143157178778944
0.4771258882970537 13.375765577581378 115774.09752871608 8.32954474222549 0.21697576834304236
0.4925254391255873 13.333047429163503 100333.97838854611 8.687889445001938 0.21963000938886099
0.5082099600837975 13.294955200319096 87096.42557397542 9.060852623464042 0.22233251434134652
0.5241795176933155 13.26121129976282 75739.64501586967 9.449040813489395 0.22508598459038975
0.5404216076840263 13.231176293194947 65961.42585721874 9.847334454156599 0.22781721354868
0.5569401159947828 13.204673220165786 57536.97498702061 10.261325382499248 0.230591259168988
0.5737439526159408 13.181466740012999 50261.65397475724 10.692262646470493 0.23341585084584204
0.59082464226664 13.161030503144492 43965.16656848018 11.137526202403206 0.236248808950161
0.6081676501554062 13.143358212692524 38515.70976704885 11.59723095482667 0.2390952333348138
0.6257922708956059 13.128105400138319 33782.438996086006 12.075807336917117 0.24200101467391053
0.6436774295871782 13.115120600079067 29673.207171167684 12.573370560131663 0.24495954921642865
0.6618337430354561 13.104158144767325 26094.175745858007 13.084038607647807 0.2478923519184386
0.6802525782280741 13.09523515623019 22977.861324513375 13.615695078285947 0.2508837899776945
0.6989137146556589 13.087603877551873 20255.136846331658 14.169248613819102 0.2539358293926914
0.7178524796687766 13.081807743347621 17876.201012286267 14.739213959742766 0.2569893715703142
0.7370366390053477 13.077348359127223 15794.387652161833 15.330163129772556 0.26008609431136875
0.7564601182051284 13.074109455611621 13971.223279157804 15.945407454309368 0.2632485424877757
0.7761296708362407 13.072075610408271 12372.0823708769 16.5826467204446 0.26644208835106414
0.796039635883935 13.071024064600445 10966.538119299184 17.239800238315016 0.26964336605857464
0.8161699972882668 13.070774626493984 9730.881914319285 17.92404984131588 0.27291681716440164
0.8365353457389334 13.07136805359762 8643.301869721556 18.63643012939571 0.27626388010087083
0.8571139419240122 13.072645858893987 7684.837203392072 19.368147171895778 0.2796011957498523
0.8779077383774578 13.074480532423065 6838.885418307393 20.129556757047656 0.2830056124765197
0.898911402698616 13.076923545272958 6092.177332293354 20.9223100861104 0.28648289090637585
0.9201181488187512 13.079813177604104 5431.8151834444 21.741955862156477 0.2899900287778241
0.9415004118052298 13.08291227531379 4847.588161821433 22.58991724228169 0.29353715918231094
0.9630782207053741 13.086402008381782 4329.953354098704 23.472765153561006 0.2971678231776869
0.9848320217343605 13.090136707427988 3871.3101364186873 24.391814492714566 0.30088246796607193
1.0067456227843576 13.093952521956966 3464.121395581528 25.337175177061702 0.30458724718717034
1.0288078338316913 13.097785701569844 3102.2817499447056 26.321228233842476 0.30837713471737294
1.0510266725191113 13.101647857219094 2780.653241103446 27.345717759481325 0.31225571179036243
1.0733774462779668 13.105439706759158 2494.510223756578 28.40827025715934 0.31619887557799037
1.0958431667456547 13.109108600371446 2239.699113938271 29.506351842216972 0.3201821571014575
1.1184360470820554 13.112656124456148 2012.6247160886705 30.64955648854653 0.324254156062642
1.1411232296487226 13.115933755054638 1809.9000339311647 31.839742793476614 0.3284167413848217
1.163894656737351 13.118958349106725 1629.0358543089967 33.07284993761513 0.3326403793060056
1.1867613432121662 13.121657445201642 1467.2388657928645 34.350313089814556 0.33692835351323
1.209679448173229 13.12392745827186 1322.6750149344634 35.68040977227389 0.34132228955263727
1.232673279958906 13.126004310182667 1193.2709166382645 37.06516515964618 0.3458204214489242
1.2556698940106397 13.127297746999345 1077.3872253729512 38.5027123131051 0.3503912648871656
1.278700054018101 13.128194488889253 973.4808532021018 39.9916205596596 0.35503064682602437
1.3017339070779042 13.12850029641981 880.3175595847531 41.54216418399872 0.35978759561648593
1.3247821092675613 13.128288088749375 796.6399794876122 43.15681495560823 0.364664218803856
1.347800194351192 13.127461541720576 721.5144818120856 44.8381710001938 0.36966171579477747
1.3707786908079937 13.125862729184036 653.924666027193 46.58069600963329 0.37472579176973153
1.3937017865265071 13.123564421690032 593.1473822265051 48.393003335580794 0.37990723443171037
1.4165375991310358 13.120437839100601 538.4403819695456 50.2810204738728 0.3852245246955948
1.439316184962435 13.116672385328904 489.1391628948019 52.24795798147204 0.3906803856840804
1.4619739308024646 13.112017491836463 444.7043336119429 54.29721549735868 0.3962758786331343
1.4845166751362169 13.106495111400156 404.61200358902363 56.42993205556515 0.40199434081656665
1.5069088889076114 13.100023973095807 368.40412430355804 58.645684754145655 0.40783469767572655
1.5291682438450613 13.092770613133554 335.7157158163666 60.95568924588566 0.4138364527303558
1.5512224724202697 13.08439208568082 306.1459835690201 63.36422404716089 0.42000251870449773
1.57310947921974 13.07519849404906 279.40350192813804 65.87583070087439 0.4263334381239849
1.594767534396928 13.064864641079584 255.18230024524 68.49540757503105 0.432836098588246
1.6161703794313478 13.053444085041727 233.27278386263905 71.22805031630185 0.4395247493971909
1.6373626707752993 13.041048092783031 213.38342402023693 74.07923429501557 0.4464062518380452
1.6582506396518122 13.02738591189235 195.34604702034878 77.05481870415187 0.4534839304087021
1.678831143841094 13.01274746024558 179.04858578568775 80.15706930655278 0.4607437292954893
1.6991425271677854 12.996878039602285 164.13364029743155 83.39679376279305 0.4682244393410005
1.7191036260897075 12.979739846025169 150.6199296401118 86.78165340089564 0.47593823796940515
1.7387133515974063 12.961449655863658 138.3330205950608 90.31922478170326 0.48388951285348775
1.757950803585895 12.941902232545921 127.15465825063731 94.01762000192869 0.49208626937602656
1.7767977573330964 12.921165365800716 116.97839079319954 97.88556777506031 0.5005486183076064
1.7952247188430661 12.899095899136164 107.70427362366165 101.93238494847283 0.5092919761532337
1.8132110940340789 12.875670517498897 99.24571591015473 106.16802903692678 0.5183230471385682
1.8307589327065508 12.851072594909857 91.54181629785404 110.60319550202244 0.5276553014541506
1.8478337485533132 12.825000517000642 84.49601773082166 115.24939175519158 0.5373131556129583
1.8643934079241085 12.797467476599484 78.06214499853911 120.11819251499836 0.5473129827105591
1.8804650447637126 12.768810443222867 72.19127545343585 125.21796130655002 0.5576448404395751
1.8959999113250667 12.738580218060951 66.81071289333605 130.5672969070541 0.5683500609041044
1.9109948047321546 12.707054136574692 61.892313148678355 136.18147025306345 0.57945721207778
1.925370678101264 12.673870773761982 57.38970540057958 142.07693783375444 0.5909839760524699
1.939209872920513 12.639453826534101 53.26050771308729 148.2714422448206 0.6029503806474643
1.9524096418594026 12.603509630013058 49.481341472162256 154.784098985757 0.6153920045215366
1.9649645949465344 12.565850094887992 46.00529016303089 161.62969299078276 0.628319970543605
1.97689751709318 12.527070400238939 42.82432995527613 168.82624866721204 0.6417373669905155
1.9881698177743539 12.486655496409266 39.89824117318852 176.4061985077811 0.6557186911645981
1.9987582430034099 12.44472545155776 37.21075490090016 184.3955275346184 0.6703034696759904
2.0086174666490573 12.401249872142735 34.74246903964248 192.81028709339745 0.685474690899626
2.017776369737641 12.356248742107992 32.46884076614529 201.67573341163563 0.7012708006110625
2.0244311478172405 12.314919544101054 30.691267687319474 212.13226191579832 2.2630037521629376
