M[M_sun], R[km], Lambda[1], P_c[MeV/fm^3], rho_c[fm^-3]
0.23841724892012095 16.20908015294055 2780876.1263280716 3.453507347168396 0.169602847481901
0.2484154637545634 15.866274715366341 2282220.131353983 3.635584008106505 0.17197891697212406
0.25869866963604865 15.562835852378429 1881418.9759661623 3.824839133798472 0.17437580340588524
0.26926509371697444 15.293460269083235 1558033.8208761709 4.020383035859184 0.1767679120318629
0.2801197161820764 15.053747864886295 1295329.7789535946 4.222537066787081 0.17914702811736719
0.29124893425875553 14.839809234422624 1081119.1334282414 4.432671667642448 0.18154995122890347
0.30267439234024757 14.648299408094882 905442.4581445535 4.65113450549883 0.18398053483162852
0.31437879875745905 14.47683389692225 760902.0062819954 4.878292869299158 0.18644042952934448
0.3263648226911693 14.323079298089064 641480.5889071707 5.111474188397563 0.18887020444485747
0.338636235956473 14.184774871413083 542384.3759533854 5.353847390466263 0.191321510521175
0.35118896544486106 14.060589141475706 459935.44515544514 5.60592031896933 0.1938027964138226
0.36402628868843057 13.948794649794738 391079.52561473456 5.868105602657575 0.19631965369660953
0.37715262055980797 13.848089721692983 333315.0355042878 6.137328635699931 0.1988127057761648
0.39055816684889627 13.757446102220664 284805.62537324603 6.416952611315711 0.20133535368831534
0.4042489212030127 13.675899927152917 243923.86913596647 6.707817434284337 0.20389259149429684
0.41822334677582973 13.602444581678476 209364.12833717643 7.010065732967814 0.20647666927754119
0.4324830560632059 13.536376456970393 180084.3009112034 7.32023305397646 0.2090366234360218
0.4470243514204369 13.477042883500282 155206.10018756933 7.642946680911519 0.21164103387136415
0.4618495236155018 13.423827063845316 132531.91718096964 7.97874061158804 0.2142899226583634
0.47696191257326676 13.376125130426084 115950.86801105994 8.32575264994017 0.21694673511962528
0.4923521356341253 13.333508000252653 100495.47143539922 8.683800565805383 0.2195999267132893
0.5080238682717001 13.295397462184948 87243.63491271286 9.05645368310145 0.2223012746040434
0.5239767135999714 13.261564758766305 75867.3541060305 9.444317314117628 0.22505359401983727
0.540215383329829 13.231500798225849 66071.56462886052 9.842075842058424 0.22778115353622566
0.5567220225763743 13.204990509533921 57641.054990547214 10.255703275255122 0.23055410711785557
0.573510233191667 13.18168200202419 50352.65763165542 10.686260861414784 0.23337766490992295
0.5905761696808262 13.161334820435572 44050.115432753875 11.13088259712473 0.23620653947814882
0.6079042529150441 13.1436233992699 38590.92815820725 11.59016284879599 0.23905176792310165
0.6255144061548779 13.128316424321142 33850.47352048904 12.068294552087911 0.241956343298715
0.6433868448022619 13.115328483325104 29735.423023243206 12.565092146081662 0.244910325373545
0.6615239926021418 13.104476369878746 25947.010746299766 13.075263147868695 0.24784201850724374
0.6799287640290044 13.095238671033234 23027.091541420355 13.606399935294718 0.25083234790457104
0.6985784319119167 13.087770212728579 20301.08927587737 14.159409130268417 0.2538831151737605
0.7175004226009076 13.08192613099326 17918.0888838647 14.728428610125036 0.2569315899521971
0.7366728077000502 13.077430165463927 15831.47767732069 15.318768525541294 0.2600269733248875
0.7560778686197893 13.074180255878247 14004.828809487059 15.93337432654919 0.2631882380661508
0.7757264806526584 13.072055038259863 12402.133969958963 16.5694944292356 0.2663761752044403
0.7956254780004842 13.070972037084045 10993.636614344066 17.225934788247827 0.2695761589134375
0.8157449156124376 13.070754202933582 9755.25601652535 17.909435941510107 0.272848122076054
0.8360927145281518 13.071365188972733 8665.50585183646 18.620892553192434 0.2761924432664669
0.8566504433115748 13.072578302932225 7704.67712028601 19.351373514263535 0.2795246921468811
0.877441452470206 13.074488507553461 6856.843758021947 20.111902716609585 0.28292771216595475
0.8984169512822461 13.07684621065414 6108.348170896939 20.903731960263528 0.2864033979709612
0.9196076951647194 13.079750068909828 5446.668312815868 21.72175919509478 0.2899036103541597
0.9409795660473875 13.082855195407236 4861.131028409466 22.568684479726485 0.29344887258449787
0.9625301121875938 13.086330255783068 4342.31279999716 23.450441242853422 0.29707757166794674
0.9842714562634648 13.090012250507263 3882.1872108957486 24.36781982031756 0.30078636636364253
1.0061735770686897 13.093840688974675 3473.9450229915906 25.311720554709055 0.30448749292667016
1.028209140395495 13.0975854980994 3111.458011961072 26.294486296221677 0.30827523610186286
1.050420480487028 13.101547303563592 2788.980756195987 27.317618721252334 0.3121514354273085
1.0727501498412717 13.105337493327474 2502.063972055218 28.377834095341974 0.31608592608008335
1.095212889297015 13.109137686643098 2246.6002023751716 29.47438804556726 0.3200665680850857
1.117771290830535 13.112510003258738 2018.742530736363 30.61598266166128 0.324136212106414
1.1404636786461546 13.115922920089139 1815.54608714356 31.804471559710073 0.328295930374058
1.1632186947078322 13.118880940217263 1634.1063337250564 33.03470742603091 0.3325097335960184
1.1860607008259219 13.121539011900776 1471.9170993020248 34.31025622156889 0.33679442313237307
1.2089663838245601 13.12388623291538 1326.9174235173837 35.638328944165494 0.34118486973314105
1.2319345142542029 13.125807194407502 1197.097202456938 37.020947044179316 0.3456798249596565
1.2549308179001435 13.127275866475504 1080.8994080836026 38.45495421567891 0.3502394126256811
1.2779503357862585 13.128160322842678 976.6976322473705 39.94144952334838 0.35487468438398884
1.300961358836981 13.128479555708951 883.2687891955987 41.48943858827416 0.3596272325181938
1.323993521188687 13.12827644960934 799.3489827938736 43.097902636020436 0.3644798721190451
1.3470050638529647 13.127423707705079 723.9687306534745 44.76515711475967 0.3694115292742958
1.3687141380044858 13.125444509674054 659.44335411282 46.59008803433976 0.5799417999570469
1.376232308924063 13.112623929246272 633.0817131705951 49.050057559453265 1.1235593340569503
1.3734946230751726 13.086436052644464 628.4177031588542 52.15640233015238 1.6224228928698206
1.3646057544462817 13.049222586726016 635.1724782920151 56.01554000981045 2.0914415376088336
1.3516575718118773 13.002877149631113 649.0389068440641 60.62577036482491 2.552522551376773
1.3359373434250128 12.949838599787121 668.202580885474 66.0911072389065 3.121705196746903
1.3177212064435853 12.889893988960086 692.2970075612245 72.32802833045105 3.53939734082047
1.2969118330787126 12.819272925050905 720.5578706401747 79.13471396289174 3.713996340016396
1.2737223781291733 12.733683030823638 750.7446492859739 86.31661194276109 3.7467865295350293
1.2496406199733037 12.63538743641245 779.3053332335417 93.76206531667259 3.777655637219537
1.2255222550658806 12.526042009620731 804.0287987931359 101.47619063641184 3.809025237235004
1.2019616658816932 12.406862109430932 823.0421060898339 109.46792005953127 3.841420337853504
1.179339776214983 12.279091787556967 834.8869106845317 117.71908904747565 3.874780885114404
1.1579518099715758 12.143625096352832 838.5634690582807 126.25459948269436 3.909202686611273
1.1380286352905538 12.001508771962408 833.4315087299349 135.11198922970814 3.944834243430327
1.1197358386787988 11.853826750076045 819.3356261958211 144.30346848943563 3.981703910839152
1.1031532502449592 11.701383328496075 796.5683093406948 153.84347049679383 4.019868226385773
1.0884034186091363 11.545444984646522 765.70414003303 163.74734228203707 4.059384002798454
1.0755116543885548 11.387024393656256 728.2487885485692 174.03163542974403 4.100299682771692
1.0644931230553885 11.227214500573474 685.1725267707525 184.71463488268276 4.142675952010017
1.055298477275871 11.0668394920408 638.2205576905867 195.81608044676008 4.186587881715597
1.0479258343563624 10.906997239004586 588.880551119126 207.3568828376466 4.232096085764168
1.042273719707386 10.748622001405375 538.7223387290179 219.36012043691915 4.279282951290318
1.0382859681314531 10.592455247044015 488.9665548154715 231.85009946127232 4.3282336341195995
1.0358436066256054 10.43926775746037 440.848028317722 244.85306840979283 4.379027467321522
1.0348387569791482 10.289391140020287 395.02195778761376 258.3976537778116 4.431775474467252
1.0351752370300238 10.143500382875885 352.25667191553134 272.48577802200856 4.486435730834271
1.0367284378990997 10.002033837804797 312.790270668306 287.15769408140227 4.543174997230465
1.0393768992149257 9.864956890587383 276.85818308647583 302.46362032037604 4.602152180023311
1.0430018282226217 9.732684181403402 244.45911391913273 318.4406337525996 4.663505212355557
1.0474846098647566 9.605295151381698 215.5226226756555 335.1295562580106 4.72736399308006
1.0527238284155953 9.482700003071182 189.81746686537792 352.573519525735 4.793869279924812
1.0586124520778826 9.364837147082055 167.09213476040767 370.7632763247592 4.862940037531536
1.0650390897123754 9.251675826126982 147.14105909922398 389.7772376610999 4.93485736958258
1.0719143200307892 9.14301012124116 129.6351133979332 409.69131556073444 5.009897068625214
1.0791442481735565 9.038736459605762 114.33525238066467 430.5568022818862 5.0882117664716855
1.0866399280461037 8.93845787209735 100.96904541059482 452.34896955602557 5.169633857545317
1.0943311461550684 8.84216155177551 89.10071753418289 475.22261449546573 5.254756835205569
1.1021266566959238 8.749650772504273 79.16883423653093 499.2211514373975 5.343686437131591
1.1099894150508511 8.660552600028469 70.30268071071357 524.3640161631405 5.436422706568889
1.1178175408755253 8.574689554520635 62.56514643632017 550.8169555638499 5.533581544443493
1.1255814903448156 8.491947306077105 55.82692824140861 578.5532073426912 5.634944031654551
1.1332203897617243 8.411926200323032 49.93067171209626 607.7722290843544 5.741261182766866
1.1406656321608222 8.334530528744075 44.7618133991741 638.4663628506854 5.85235538219957
1.1478849865996539 8.259553882228849 40.232119906742184 670.8394693068404 5.968998877974633
1.1548483439467359 8.186752040289553 36.254618048879856 704.908973318931 6.091083757007982
1.1614819547575783 8.116007385427624 32.70071183989629 740.8660350549402 6.219277484140735
1.1677826750591311 8.047107441273502 29.67946551729186 778.8398670997061 6.353965419644088
1.1736960509254801 7.979896117817772 26.917208394647886 818.912350207003 6.495270755522557
1.1792054253441504 7.914225141818692 24.557820003324938 861.3024248961831 6.643932517407918
1.1842716159831304 7.849923377430713 22.426637843792676 906.1742361874609 6.800401195569181
1.1888755525382153 7.786900305134122 20.540798151500653 953.7091249076386 6.9651798134341085
1.192983671266623 7.725039141114504 18.85714651717015 1004.0985890969392 7.13878204567383
1.1965920139683992 7.664216141262747 17.35791074877907 1057.567401883446 7.321831529652875
1.199672768236354 7.604271343720286 16.001709551819665 1114.374682870733 7.51507244287604
1.2022027480230917 7.545153037491845 14.830629866482552 1174.7894347063957 7.719239307567837
1.204171346729558 7.486806158801198 13.766024260517353 1239.1085173197187 7.935135560212606
1.2055763522195007 7.429179844201891 12.808026724306695 1307.6551046965633 8.163612585968151
1.2063819172025345 7.372136166321616 11.952670681640083 1380.7750033912218 8.405557052347195
1.206603395454755 7.315668664193643 11.182454728812958 1458.883838098922 8.662117966601903
