M[M_sun], R[km], Lambda[1], P_c[MeV/fm^3], rho_c[fm^-3]
0.23841724892012095 16.20908015294055 2780876.1263280716 3.453507347168396 0.169602847481901
0.2484142616664074 15.866223418684534 2282185.506422979 3.635528854401445 0.17197821539613642
0.25869169767039335 15.563009039451817 1881820.3590802448 3.8247256829673524 0.1743744155502227
0.2692552339281297 15.293712398396584 1558299.27957216 4.020200257693287 0.17676567608779778
0.28010676529046813 15.054013301781115 1295614.7660045566 4.222286772151843 0.1791441013099314
0.29123356882240736 14.839991768171872 1081383.0654961204 4.432350406330552 0.18154633639025358
0.3026526036032528 14.64865109631572 905740.8382348832 4.650738645491681 0.18397624746047242
0.31435367039064366 14.477232335914838 761195.8790450909 4.877818630590845 0.18643548790999917
0.3263355631117709 14.323437557424555 641745.4983414309 5.110893907526839 0.18886415785455132
0.33860334848135853 14.18516579686981 542619.5555366599 5.353177772588966 0.19131482899898836
0.35115035795386296 14.060915846598649 460130.30292114295 5.605157169332215 0.19379546174886222
0.36398330782544513 13.94908693419312 391271.06545212463 5.867244420216551 0.19631167899752378
0.3771045274684001 13.84845318223736 333517.2217062527 6.136324630233349 0.19880340851103834
0.3905062067239948 13.757746724267324 284975.8859542618 6.41583762923772 0.20132541593911302
0.4041931043795458 13.67628452180327 244091.17168201844 6.7065864811423275 0.20388206743616205
0.4181591894598017 13.602725626456886 209516.1607681663 7.008657364248217 0.20646462840143112
0.43241576448076896 13.536789202693935 180218.48768077203 7.318694124467132 0.20902393755335846
0.44695230846241135 13.47734400996781 155319.50114832184 7.6412711664433415 0.2116277126763491
0.4617717858678104 13.424169869412106 134136.78682411928 7.976922252758036 0.21427600084048776
0.4768743335682118 13.376371201343792 116047.73671164371 8.323706108693502 0.21693106627910766
0.4922596350856655 13.333732411990683 100579.20604356323 8.681593899224751 0.2195836918401984
0.5079243403712383 13.295592532818581 87318.99820182813 9.054079733332554 0.22228441564233029
0.5238702779158415 13.26171622256402 75934.06440079577 9.441768263410939 0.2250361143505797
0.5401040034839459 13.231866826953251 66140.79936867332 9.83923811701127 0.22776169433318272
0.5566030299175183 13.205207652615695 57696.582077523075 10.252669456444151 0.2305340590137022
0.5733847061952211 13.181877418224298 50404.293429367244 10.682581499389418 0.23335035484597544
0.5904364158853904 13.161509306259937 44099.08585893331 11.124494055969503 0.2361415783207893
0.6072970631206525 13.143999599871197 38765.36681305137 11.600894579676478 0.2886920952994336
0.6199150613387435 13.126974998487249 35152.24920257223 12.130791744068087 0.417369957955574
0.6287473405008491 13.10569513402239 32656.702335489837 12.744516198653452 0.5376536807991974
0.6348538287249167 13.078713455268739 30811.57198214366 13.441942804818536 0.64741540181735
0.6390890080534248 13.045552911393212 29336.674186999768 14.213660909712157 0.7527952474618937
0.6419866523942662 13.006407426057786 28088.7730896845 15.065410278959337 0.8526586025893719
0.6439028284001846 12.961443834068053 26978.651932663393 15.99550163936689 0.941968867426219
0.6451384987316487 12.910704221752392 25943.19390783387 16.999194127436255 1.0259472170244808
0.6459574205720883 12.854347708901564 24933.925484277883 18.081020593546043 1.1055081085154084
0.6465163948583204 12.792575091159566 23927.734311156688 19.233517415912523 1.183025627751988
0.6469480142414925 12.725827797197507 22911.74986599234 20.45732833426488 1.2523421183745989
0.6474218921042987 12.654069872644165 21869.99544461945 21.76087514531684 1.3198801528364668
0.6480264943321001 12.577750697517397 20798.539672085295 23.14039537688546 1.3880129245493622
0.6488188991216252 12.49729890116987 19706.959067878444 24.58447058153062 1.4521432878973712
0.6498756153105588 12.412935865567134 18590.937162299968 26.11172847611755 1.5157881993715636
0.6512638554537074 12.325032857415883 17460.80710968358 27.726379202895842 1.5794372437027349
0.653028195887651 12.234141429535962 16329.578257358018 29.410110197340057 1.6437325799120877
0.6551940191243335 12.140788767356419 15206.171152253748 31.17735632476292 1.7100152317290473
0.6577699068817102 12.045425349013264 14100.388162781257 33.04183609491985 1.7835573206750106
0.6607393074182853 11.948846632676368 13030.032311269986 35.00707782788116 1.869041697028063
0.6640555890510659 11.851202036998803 12001.459822174453 37.05297869075701 1.9487189725672527
0.6677726318009451 11.752442901615897 11016.783838367863 39.20635849342833 2.0183897258628423
0.6719851458781083 11.652259616850783 10068.916896692446 41.46668745219328 2.0719409175417587
0.6768529203205326 11.549980804764079 9147.582350200839 43.80575765306227 2.0897403141982163
0.6825059606516677 11.446191616004667 8261.03690671188 46.21101011293247 2.1078453647708866
0.6889936399259651 11.342177024708654 7416.07101889405 48.71220777845216 2.1265860878130165
0.6963391180427375 11.238968864046639 6624.108264764677 51.31137225930211 2.1459992164704005
0.7044900497570588 11.13703403389071 5892.210744220452 53.98185984017498 2.1658753771373767
0.7134595853795246 11.037204339832176 5220.08619580918 56.74152778327044 2.1863562998259605
0.7232150817299089 10.939916178214181 4610.155815365687 59.610075655524035 2.20759173529801
0.733695468926273 10.84555279147143 4061.575729670108 62.59049200517452 2.2295977429105536
0.744886254149109 10.754409591957833 3571.045374685577 65.66466191301433 2.2522203707526387
0.7567303285964884 10.666566023156197 3135.270765637527 68.8408443673392 2.2755154408695706
0.7691753590086122 10.582348885576186 2750.455882191734 72.14275372203602 2.2996629529945185
0.7821924165661926 10.501674955738174 2411.420034358337 75.57458363418736 2.324685934740311
0.7957267965136383 10.424505900752786 2113.821680099558 79.14093406605865 2.350609864248327
0.8097162534426815 10.350813118770953 1853.4646081578449 82.81306539069504 2.3771900150033813
0.824134909156957 10.28056712951843 1625.8317403655085 86.63164998026984 2.4047402607705886
0.8389228803774446 10.2134876398625 1427.3507200209312 90.6032065377209 2.433298868754576
0.8540447441119088 10.149623576270555 1254.1455095333763 94.7338312023443 2.4628996263925305
0.8694544186545522 10.088615371433248 1103.1302425622193 99.03010436073407 2.4935790749968647
0.8850978130988933 10.030389338984445 971.6940313938084 103.48303863962339 2.5252459312558226
0.9009549520705511 9.974812316229274 856.9546458621921 108.10685849358491 2.5579954842863226
0.9169600072337626 9.921638635643223 756.9312336916872 112.9213410732641 2.5919673324997627
0.9330793545264058 9.870692004890559 669.6051968591111 117.93515428118755 2.627209381225743
0.9492959976589495 9.821858902337642 593.3563983259194 123.15760089875445 2.663770669024728
0.9655480445779177 9.774853891701316 526.6043007576058 128.59870860470784 2.701699968121609
0.981812460445891 9.72957047166162 468.2105652490881 134.26936410805953 2.7410504995124514
0.9980436816586501 9.685752034375557 416.9426659120648 140.18100056463837 2.7818979486075923
1.014223606796511 9.643368025332821 371.93760656007066 146.33697113753897 2.8242356781059437
1.0303036026302321 9.602162524436547 332.39888857625147 152.75737636184556 2.8681920547979822
1.0462598816613107 9.562049777399 297.57796623396325 159.46076177410708 2.9138488865684105
1.062051473854975 9.522838439020877 266.87854302703045 166.4626757607903 2.9613116516618345
1.0776610975341343 9.484346310882215 239.74504965235866 173.77959147872517 3.010676561339929
1.0930664452108227 9.446547917511383 215.73808836736725 181.4290998050514 3.062016537923287
1.1081957901567665 9.409334140491328 194.54785317060382 189.43031965575994 3.115431745303695
1.123094255168278 9.372457149770995 175.62648907455994 197.80381844430562 3.171048928397444
1.1376793686346895 9.335913255245272 158.82413237616245 206.571491459354 3.2289530669107163
1.1519498849741556 9.299564431456538 143.94679730917508 215.75728177409314 3.28928361251583
1.1658451445932452 9.26334954805324 130.653237703183 225.3866949423229 3.3521753588277634
1.1793903445035325 9.227138461887481 118.80240627782307 235.48725977244368 3.4177462781121237
1.192528519741075 9.190842378078184 108.19485087352061 246.08566142055673 3.48615789705204
1.2052531182067523 9.154395377766418 98.69122997619023 257.203670556026 3.5574249776942586
1.2175449216420067 9.117756094820887 90.18663336955535 268.88657966049664 3.6318714584600995
1.229350153064139 9.080782978368033 82.54465570579275 281.1720483406978 3.709638128365474
1.2407006630448545 9.043496721979727 75.6764105133788 294.1001633024835 3.7909490367334433
1.2515432987605382 9.005747726924035 69.48195985731653 307.7149034973605 3.876015344926757
1.261857705454879 8.967565085868088 63.92445867446677 322.0633825311162 3.965054606417527
1.271655033467377 8.928845729679207 58.89182063201819 337.16534669753213 4.058046245523473
1.2808842902084343 8.889553085033258 54.34406616618505 353.10270194834663 4.155482027142871
1.2895516779908485 8.849649201726631 50.23140327063768 369.93759534365375 4.257682261511449
1.297629878062984 8.809089522356986 46.506652660951296 387.72573243104387 4.36484204199227
1.305129512122834 8.76785950811372 43.12576107881979 406.5113224110409 4.477069034221921
1.312013865981438 8.72593975549915 40.06152355839471 426.4038831431879 4.595012906675971
1.3182597743194515 8.68325293016627 37.274915432008584 447.4678278418959 4.718877056436685
1.3238880019967012 8.639846222177606 34.74677139157408 469.7778441318676 4.848933398624426
1.3288772114213683 8.595651190523142 32.43270793469642 493.46460057387065 4.98591444286188
1.333219085680813 8.55065013664592 30.288291948072246 518.5758941038023 5.129736328939048
1.3368914343186207 8.504839883194748 28.41193223638155 545.2864624825177 5.281474693122961
1.3399039060783027 8.458267816577957 26.65966158969257 573.6594567451467 5.441016004459186
1.3422464326061085 8.410860393536039 25.058960952719282 603.8838415796231 5.609514999340764
1.3439055747454283 8.362666392551906 23.599942103561876 636.0631786428274 5.787072626928681
1.3448980860731472 8.313672976652176 22.233569782042117 670.3852339114763 5.974602505292394
1.3451984157606534 8.263872407509057 21.037993454045626 707.0322808824407 6.172900183075108
