M[M_sun], R[km], Lambda[1], P_c[MeV/fm^3], rho_c[fm^-3]
0.23841724892012095 16.20908015294055 2780876.1263280716 3.453507347168396 0.169602847481901
0.24841273544265002 15.866277021521023 2282312.0477503994 3.6355277779399366 0.1719782017031389
0.25869306981008167 15.562939525372638 1881654.0824466231 3.8247234687163436 0.17437438846306283
0.26925470373493215 15.293735193691205 1558392.7594029882 4.020196690402209 0.17676563244875984
0.28010595971763486 15.054052265262188 1295586.4244929296 4.22228188718885 0.17914404418786803
0.2912335349141487 14.83998203427694 1081419.635962548 4.432344136384477 0.18154626584069605
0.30265112738828875 14.64870077747588 905747.6609833438 4.65073091970397 0.18397616378614617
0.31435257889893437 14.477221917313067 761188.5738462504 4.877809375215748 0.18643539146797572
0.3263353797435941 14.323418543174816 641715.0815266935 5.1108825827349325 0.1888640398489778
0.33860308443622344 14.185172234403796 542685.4449058882 5.353164704411527 0.19131469860325004
0.3511502666008966 14.060899336317567 460178.92561098 5.605142275934092 0.19379531860775326
0.363982920187422 13.949055411076833 391278.51512185874 5.867227613786443 0.19631152336705984
0.3771033320540632 13.84842230369095 333533.5204147541 6.1363050367694845 0.19880322707215742
0.39050513678815946 13.75775487775873 284977.3106995771 6.4158158702172265 0.2013252220026428
0.4041894155083613 13.676241492051835 244097.37539787675 6.706562459130366 0.2038818620594976
0.4181580441659237 13.602751377759835 206916.5237137931 7.008629880311569 0.20646439342697337
0.4324138639932159 13.53683439211172 180221.83682562542 7.318664092913941 0.20902368999376741
0.4469499219232769 13.477372909757628 155325.57573975986 7.641238469751034 0.21162745272096056
0.4617690412007768 13.424180526237484 134141.65682824655 7.976886768815345 0.21427572916639379
0.4768729280451142 13.37636195121498 116045.99458233915 8.323666172434665 0.2169307605169484
0.49225738832247157 13.333739591151742 100584.4528334917 8.681550838600833 0.2195833750348547
0.5079209241404602 13.295615562727948 87321.6060650648 9.054033408707419 0.2222840866610301
0.5238693005109843 13.261727659682537 75936.38944390485 9.441718522274437 0.2250357732594385
0.5401006248072162 13.231788105020877 66141.50283070194 9.839182743504784 0.22776131461904975
0.5566003175563337 13.205221849214594 57697.86552330008 10.252610256914572 0.23053366781092813
0.5733767765943552 13.18182313940271 50404.37873340281 10.682959027401662 0.23335665722289814
0.5904367843513342 13.161522959634437 44100.344535087075 11.127227804662889 0.23618328611778186
0.607765039294975 13.143744710201544 38630.70448781329 11.586274604510896 0.23902785711333796
0.625360264954486 13.128508489749152 33891.05060810287 12.06416176414664 0.2419317695454497
0.6432289791438247 13.115517109576306 29768.174351521873 12.560538355567516 0.24488324831899813
0.6613561385102275 13.104537478631038 26183.86096780869 13.070436033416419 0.24781433162328245
0.6797509006811662 13.095312936388098 23054.911827272732 13.601287054015545 0.25080405170591297
0.6983924139875948 13.087847450939678 20326.067152197484 14.153996929071319 0.2538541197536927
0.7173090885651338 13.081983266512236 17940.583442593084 14.722496362976562 0.2568998084289773
0.7364670604436093 13.077495305515017 15852.348030486466 15.31250128561841 0.25999445570521107
0.7558699051546849 13.074211125183648 14023.013397944273 15.926756007079868 0.2631550701371069
0.7755096613948582 13.07207215092133 12334.189051420975 16.562260844057494 0.26633992385074956
0.7953920587470209 13.07099204423262 10935.889092022837 17.218309112116142 0.2695391965414938
0.8155089653131873 13.070745703998819 9769.20574244504 17.901398779191013 0.2728103420458833
0.8358499773511036 13.071298295058421 8677.709516307657 18.612129163810824 0.276151249484123
0.8564049109780342 13.07261051329323 7715.652834843413 19.342149091377458 0.2794826201312487
0.8771776731510771 13.074464882156237 6866.823168122652 20.102194313480616 0.2828848728158644
0.8981464617321402 13.076788046472931 6117.170793412652 20.893515561100212 0.28635968357449554
0.9193272306335415 13.079711844913321 5455.062730524325 21.710653191574405 0.28985608947784325
0.9406998976366309 13.082945087681956 4868.542180679254 22.557008943077893 0.2934003252790935
0.9622329083447448 13.086257199581166 4349.078167639354 23.438165922739003 0.2970279447818969
0.9839650651122555 13.089991433300398 3888.4044136679054 24.354496475787315 0.3007325025055401
1.0058521776783063 13.093753433217563 3479.6093400469736 25.297724582914697 0.30443264403529846
1.0278933868657048 13.09761987528063 3116.5302753776914 26.279782773373356 0.3082192091735748
1.0500884246960298 13.101513201507972 2793.5443326520167 27.3021693062062 0.31209410219051964
1.0724100227965168 13.105310286790647 2506.202492546168 28.36110040801231 0.31602382687081504
1.0948574646154592 13.108974463554324 2250.2711247813995 29.456814796398476 0.3200030188575601
1.1174133142828189 13.11243800003694 2022.1057234482685 30.597524586008305 0.32407136938013476
1.1400952765940966 13.115847036027336 1818.6557449556356 31.78508065766084 0.3282295126668779
1.1628418172802522 13.11886427148334 1636.9936500357649 33.0137389309736 0.3324379123181228
1.1856749014953585 13.121499052720718 1474.5261477541771 34.28823575115735 0.3367207975565847
1.2085710498276583 13.12383321535658 1329.2569107350498 35.6151962953689 0.34110932738844413
1.2315366828124645 13.125833346218196 1199.2915296622623 36.99663997006447 0.34560253787383577
1.2545213664769288 13.127241326937005 1082.908794099565 38.42870239375116 0.35015594199467487
1.2775288576544723 13.128181499315355 978.5328376314061 39.913871909502525 0.35478895619662926
1.300537945594854 13.128481133389304 884.9126373198626 41.46045740462117 0.35953908723810923
1.3235792609290251 13.128372797318722 800.8197448622875 43.070916287909064 0.36440850383886103
1.3465647626195896 13.127474848037803 725.3038915024811 44.747837002236395 0.36939918973271263
1.3695316426964472 13.125977998349924 657.4302661847904 46.48326021357719 0.3744426266666568
1.392444519271069 13.123809331218766 596.3685370211722 48.29054279110711 0.37961540439901015
1.415253456524529 13.120637886895992 541.3666655239365 50.17323053370038 0.3849234774319097
1.4380038908048307 13.116852141396437 491.8316985767148 52.134514502590804 0.39036967642016696
1.4606628366402883 13.112299670231948 447.160183475382 54.177778057875926 0.3959556305071749
1.483207078115864 13.106832746535568 406.83692550782354 56.30120614524683 0.40164918747335715
1.5055805447658501 13.100454471387007 370.47039840488287 58.510142680313855 0.40747775676390763
1.5278318131747706 13.093250154456173 337.57895077878555 60.812904734711914 0.41346697140638705
1.54988197009063 13.084957923959914 307.8696191519475 63.21374306675308 0.419619954806072
1.571745879771664 13.075722061458263 280.9808752619861 65.71717306703994 0.42593755816266976
1.5933946180831995 13.06545242603279 256.63593983867196 68.32805739297838 0.43242518392976936
1.6148241213949355 13.054252775315819 234.60481607123296 71.05144956053104 0.4390978430352847
1.635994960775924 13.04184017972476 214.6028010376927 73.89278762257878 0.44596270654806375
1.6568887725773698 13.028360501600417 196.48720531815837 76.85455210876289 0.45300856406170115
1.6774934042970218 13.013688878852323 180.0198779462791 79.94499918759048 0.4602474488169323
1.6977797129489074 12.997904399420092 165.08708201104707 83.17271969884618 0.46770752400085974
1.7177623641177215 12.981014124143947 151.50312150212415 86.544778598414 0.4753993534134106
1.7373599176826136 12.962746102541727 139.15001279890626 90.06869696079724 0.48332777361576074
1.7566242299218138 12.94332713920075 127.89629575930309 93.75252790816432 0.49150040531213757
1.7754770879941084 12.922716836843291 117.67104704718237 97.6049280771176 0.49993627811172114
1.7939159387375916 12.900732614435094 108.34133696766469 101.63513507039637 0.5086514228561859
1.8119263319805197 12.877416805729604 99.83114293480001 105.85302935435851 0.5176531236601608
1.8294950631618037 12.852912271738086 92.0798004478982 110.26922233660373 0.5269540356028447
1.8465907167707598 12.827035303920704 84.99749172580235 114.89512190300319 0.5365777604339631
1.8631746489743974 12.79969122532103 78.53362501549542 119.74297036880314 0.5465440552574562
1.8792560277723154 12.770929709344584 72.61660250579165 124.82433615862813 0.5568554875041521
1.8948183790146136 12.740977674693724 67.21280258230932 130.14895687998538 0.5675197897418831
1.9098311706728386 12.709373075183944 62.25404009495189 135.7366280104331 0.5785832258493324
1.9242637162845773 12.676525435383583 57.73087919561906 141.60366564616612 0.5900643345198727
1.9381169877954438 12.642197824945063 53.578135395532215 147.7676559035419 0.601981307742766
1.9513522031442911 12.60630943792462 49.77228038854893 154.24753571231727 0.6143695516696438
1.9639592712689171 12.568966315813016 46.27230796131119 161.06377497919163 0.6272610778638672
1.9759265776592099 12.53015567964385 43.07315938432726 168.22348603819847 0.6406210734737046
1.9872454111472608 12.490039365351297 40.133050156582165 175.762978721438 0.6545376993070816
1.9978855576381636 12.448303216540328 37.43060731564783 183.70873346796031 0.6690530844362569
2.007800727861465 12.404952470350318 34.94113114994411 192.08391414520503 0.6841755692409486
2.0170146660291617 12.360183425521269 32.65798360389762 200.90599004754543 0.6999156639600287
2.025528028907981 12.313978630590263 30.554696108025915 210.2228953913238 0.7163741153621551
2.033258797102315 12.26614194538419 28.617808943474333 220.06035502687467 0.7335507116633397
2.0402596512986593 12.216825937307911 26.833295354783672 230.44884881374432 0.7514865032467264
2.0464864938487883 12.166115931717899 25.189428167965605 241.44475745043292 0.7702886232055526
2.051920148345922 12.11375524413227 23.674814582887244 253.06383036198665 0.7899032598850747
2.0565582990991036 12.059939828098175 22.276353538842287 265.3825214030369 0.810505844687547
2.060397337984274 12.004706381557213 20.986938143217362 278.4215516662928 0.8320525361321891
2.0634170574142328 11.947973156367723 19.79711816808667 292.2626144952396 0.8546923190601187
2.0655960283590287 11.88976048050196 18.699142361581057 306.9437700099419 0.8784387415411071
2.066965542491187 11.830123092087291 17.684429486992396 322.5430074911629 0.9033928629131731
2.0674683219781844 11.769173247528546 16.749899442637588 339.1341757659815 0.9296633865104057
