M[M_sun], R[km], Lambda[1], P_c[MeV/fm^3], rho_c[fm^-3]
0.23841724892012095 16.20908015294055 2780876.1263280716 3.453507347168396 0.169602847481901
0.24842002000648633 15.866073183184184 2282138.456772081 3.6356411809399294 0.17197964423218814
0.2587096539804302 15.56248548864211 1881310.7879277882 3.8249567404770275 0.17437724210045602
0.2692770679267991 15.293301235810235 1557756.5366533096 4.020572513721833 0.17677022993400607
0.28013380585633296 15.053473944451799 1295049.951976495 4.222796541286706 0.17915006226907476
0.29126976536437355 14.839442001800249 1080815.6712556048 4.4330047182877035 0.181553698721366
0.302696094780862 14.648002761361832 905152.3654411345 4.651544900382659 0.18398497962310975
0.3144043377549878 14.476523689697002 760604.5957359321 4.8787845300421635 0.1864455526882018
0.3263952103730109 14.32268676655254 641211.4254063205 5.112075800928267 0.18887647331339982
0.3386709647187555 14.184434760452774 542109.7091609603 5.354541636867993 0.1913284377895372
0.35123047251431266 14.060234486966886 459719.34493352176 5.606711551369505 0.19381040098346242
0.36407031674083024 13.948375984664693 390844.9293389246 5.868998490885365 0.19632792199679153
0.37720373356337933 13.847685269287435 333116.62694248254 6.138369629936822 0.19882234556373335
0.39061578359219473 13.75708010854046 284612.43507367035 6.418108690288336 0.20134565773096755
0.40430840484539315 13.675536489688122 243756.76234720502 6.709093779992826 0.20390350363707285
0.4182890127149715 13.60210276664058 209215.57425000914 7.011526072151181 0.20648915447615496
0.4325550281218178 13.536079124714451 179946.1706238682 7.3218287974986165 0.20904977765456145
0.4471024127996038 13.476776263245178 155090.01573130937 7.644684079221545 0.21165484707450039
0.46193498898338087 13.423569750466374 133917.45852304736 7.980626159236558 0.2143043588909295
0.47705178199483006 13.375855138721764 115855.20423658198 8.32787486414432 0.21696298333156003
0.4924489942204799 13.333248555215294 100409.79314230582 8.686088860626215 0.21961676214114087
0.5081272296282695 13.295137404513452 87163.48734200718 9.058915485565635 0.22231875746489946
0.524086334243936 13.261327054095492 75791.44460126938 9.446960735887162 0.22507172082214782
0.5403283236218007 13.23130631279529 66012.5972996235 9.845018700163825 0.2278013336708222
0.5568416862011539 13.204786410854537 57579.68565957231 10.258849536888375 0.23057489826750802
0.5736396692628807 13.181541431692905 50301.732775110155 10.689619580732444 0.2333990345257029
0.590717047837201 13.161231607210084 44006.489728895016 11.134600453251743 0.23623019407665655
0.608055030479758 13.143539631915909 38549.885257206755 11.59411823982588 0.23907609165266236
0.6256750898445738 13.128330396126927 33815.25447986939 12.069753791304246 0.2419508340737379
0.6435577548594918 13.115235193199533 29699.467648448495 12.559177013854383 0.2448217262439903
0.6617193164212823 13.104449306284636 26118.97322204895 13.079791097305247 0.24787557989669284
0.6732026876900171 13.093559402653788 24039.298359960885 13.70967345339851 0.6614913200015937
0.6728189378281015 13.072542969492263 23787.379918303493 14.639267155689954 1.0540871939412086
0.6672982418293663 13.042666933516132 24215.155026351735 15.81055528551267 1.4262202013970116
0.6588786864283395 13.004650791213772 25011.675112876514 17.243349835632102 1.7861371271418525
0.6485682467598037 12.959554126912979 26065.030442223226 18.96531485843642 2.1301507534017463
0.6370699880976468 12.908548877964247 27308.4316705344 20.96057317912606 2.5002307625707516
0.6247064328746942 12.851940528437492 28710.815903952756 23.213297281518035 2.80680989005624
0.6109818763652504 12.784547056964692 30310.688857447058 25.72841432503834 3.0026109129599003
0.5967724087312857 12.706253299513126 31954.247460848223 28.363542805935197 3.139727833272714
0.5822166535418631 12.615011231626124 33567.00242811646 31.162442669337562 3.2167276306500687
0.5675075353916407 12.50791011241469 35036.315294612905 34.10751952308982 3.233159557134503
0.5532639559422414 12.384630012562939 36171.38574907053 37.083338922024524 3.2489907643037066
0.5399597868129139 12.245966881201394 36820.16606055104 40.14933229927403 3.2651552289991197
0.527874333450282 12.09251680793868 36870.35642503687 43.34038418499687 3.2819088032649053
0.5172043209172041 11.925142224658497 36274.73686173601 46.640711734063146 3.2992149580699306
0.5081258430320884 11.745317644856682 35017.7430630881 49.973749249641436 3.3166526068210276
0.5007083019060167 11.554790360609962 33155.85323709273 53.440954965436845 3.3347731181645326
0.49501410224234327 11.355549581169564 30808.92091560953 57.040989789475724 3.3535677095648717
0.4910314196780398 11.150188718825508 28111.4890534162 60.731717282367754 3.372808478552682
0.48877019719798076 10.941387125169424 25210.77897930988 64.50973678468978 3.3924734253898623
0.48817372102472045 10.731746082961575 22260.677089692046 68.43155180096979 3.4128558588923914
0.48918287487781736 10.523817824637492 19385.313213340592 72.49863870968527 3.433959783784456
0.49171082753442447 10.319913547600331 16686.481122573412 76.66284477313222 3.455530397781225
0.4956782573451169 10.121863629551367 14223.671861736144 80.94739901380159 3.4776877027489763
0.5009779111033106 9.931346605078712 12035.125658975361 85.39114992895524 3.500635531288811
0.5075153364659394 9.749565423213985 10123.749991412424 89.99665167911792 3.5243833373842333
0.5151945883480709 9.577238415335767 8483.878092848543 94.7310174704339 3.5487499787801284
0.5239146895268465 9.414939301159643 7093.132395068909 99.59993975665665 3.5737603654958807
0.5335830938884665 9.262622758724863 5923.843365145011 104.64791222698828 3.5996478987408667
0.5441149776300005 9.120345408857707 4948.4098419162465 109.87917476202722 3.6264297533723275
0.555430865512889 8.987864925258583 4137.426771539866 115.29859393877577 3.6541260559503175
0.5674377048545386 8.864915798831353 3466.0997925717925 120.85126929178159 3.682434558071844
0.5800850671385788 8.75079839748358 2910.299810048655 126.60601632046519 3.7117182248384184
0.5932755913952757 8.645232293125764 2450.361361435857 132.57148620112125 3.7420162524195595
0.6069815531734374 8.547554429915731 2069.0266921065077 138.7543433553676 3.773356615741178
0.6211203878680908 8.457236346738634 1753.1133339431447 145.1618972983626 3.805770196085017
0.6356419158149853 8.373658067599488 1490.5400735624278 151.76788986739484 3.839105907928361
0.6504918654845467 8.29637995797012 1271.266801437771 158.60350702210278 3.8735218917720853
0.6656558045710717 8.224871894801671 1088.141694419579 165.69367686257942 3.9091422264240956
0.6810439451759331 8.158600997532226 934.3876428186727 173.04807577751862 3.946007924887697
0.6966446697194971 8.097100769914855 805.1364598081952 180.67714516157528 3.9841633211916103
0.712403822964505 8.040009644766847 696.0137608130611 188.59211234879328 4.02365538133789
0.7283009655081768 7.986833990844817 603.5398369182547 196.8050951720945 4.064532416263412
0.7442746784631722 7.937305020664817 525.0136354459864 205.31792457425288 4.106780818596251
0.7603175588389713 7.890984060129986 458.0311309581645 214.14179091062456 4.150455119015727
0.776387081157473 7.847614053153076 400.8398780918091 223.30929369129785 4.195714684310838
0.7924540831881105 7.806843631544397 351.6754912304215 232.8363008463352 4.242626746556467
0.8084907767128101 7.768439856719526 309.4168844987131 242.73964768109798 4.291246403407497
0.8244503223888784 7.732155587792369 272.9358838859801 253.03788077261086 4.341658407548531
0.8403474307448218 7.697714261721015 241.3944212225868 263.7505499666555 4.393952259864801
0.8561146301613888 7.664994244572213 213.98719641524173 274.8985291076221 4.448205398011552
0.8717598614746086 7.633683947798046 190.13464555726793 286.5044430469327 4.50450761013868
0.8872385568886287 7.603664233838069 169.38962283632327 298.5925224872832 4.562969796480921
0.9025382513488618 7.574805072956123 151.21558946978413 311.18851579845483 4.623686059644116
0.9176259683721248 7.546870421106592 135.27844552086708 324.3204711705528 4.686773715457973
0.9324865786512856 7.519720461174028 121.30396171988154 338.018126928599 4.752360525093807
0.9471035910943921 7.493287791785059 108.97181102236377 352.31351983870456 4.820563874404324
0.9614286364629839 7.4674209074097435 98.09444940445344 367.2413569273507 4.891543379432224
0.9754746341399047 7.442029314748402 88.50132909558856 382.83568402828445 4.965401160408983
0.9892043423428063 7.416930694182595 79.99062469659823 399.1100977116485 5.042186457483318
1.0026117066308782 7.39211602613352 72.44033587460315 416.13249484761457 5.12217320752853
1.015673465072721 7.367423294043099 65.64254271530307 433.94851589481027 5.205571046974612
1.0283603293659218 7.342794926672869 59.739366933321925 452.6080785182359 5.292564165825523
1.0406625462722985 7.318175093175687 54.3346013043161 472.1643649683093 5.383364194752808
1.0525622237548091 7.2935090616720455 49.62652222537927 492.6492756114892 5.478054868693908
1.0640610381963813 7.2685969224100395 45.34713021613826 514.118787322856 5.576836207317169
1.0751120749066378 7.243554040220885 41.5165086052733 536.6671733801737 5.680132490887066
1.0857168528799352 7.218227990963243 38.04254374952664 560.3667101895242 5.78821530646959
1.095861830052899 7.192577572474187 34.98141127271424 585.23071185765 5.901010941562397
1.1055361254938663 7.166504078665388 32.19681504708093 611.3973507925597 6.019156983188872
1.1147082954305396 7.140062244280829 29.669801262323514 638.9524916625217 6.142964450396146
1.1233849174205413 7.1131375970159025 27.401156615364204 667.9340851905752 6.272451038394701
1.1315525417304548 7.085718589792406 25.343684518225068 698.5163625417939 6.40840860539072
1.139194045237501 7.057750965256643 23.483906869299783 730.7385123744075 6.550816796610558
1.1462841394497314 7.029230125263294 21.77638849523529 764.7825507668377 6.700478851409537
1.1528331750332244 7.000111556602233 20.264874277446097 800.7176787632574 6.857464163706668
1.1588228978504322 6.970352910029491 18.871314671247337 838.7487144158147 7.022700156868949
1.1642439082405205 6.939996828390538 17.607534978372705 878.9527663795295 7.196203846690933
1.1691002567474653 6.9089193906569 16.460221215112742 921.5590767908208 7.378948407099487
1.1733562932106893 6.877173084489206 15.405514129312962 966.7349838805737 7.571479657261309
1.1770448613030193 6.84476769563834 14.446839172234974 1014.6435699224928 7.774212350564212
1.1801192620131469 6.81165363631183 13.57235447458623 1065.541584587731 7.9881422322817635
1.1825888557889104 6.777800945321685 12.775579878453119 1119.6613622520156 8.214006962848245
1.1844786685484416 6.743267765535948 12.046860005197638 1177.2592804335534 8.452625830509799
1.1857391376294637 6.708037680154023 11.378393804600051 1238.6087232398331 8.704828058023166
1.1863767078135448 6.67209974914767 10.765441951320671 1304.0317868179282 8.971665642088002
1.186425578290788 6.635451127576695 10.212927996745218 1373.8816543576534 9.254280787737244
