M[M_sun], R[km], Lambda[1], P_c[MeV/fm^3], rho_c[fm^-3]
0.23841724892012095 16.20908015294055 2780876.1263280716 3.453507347168396 0.169602847481901
0.24841109953444115 15.866362253988095 2282373.5908805383 3.63548893798548 0.17197770764422884
0.2586881900350202 15.56315638641234 1881989.9540053804 3.824643576630785 0.17437341113497948
0.2692482986944527 15.293839273564663 1558527.1072575129 4.020067980502272 0.17676405792734218
0.28009478051709913 15.054383266848921 1295930.1656871855 4.222105636228334 0.17914198320633193
0.29122156300619667 14.840188588474664 1081594.327351786 4.432117916422233 0.1815437204091965
0.3026386476195377 14.648898116238831 905934.3283145879 4.650452174833041 0.1839731448332387
0.3143356573585509 14.477441132709531 761360.4498871679 4.8774754453857545 0.18643191188252867
0.3263146963528294 14.323658235606548 641914.8608591506 5.110473992635431 0.18885978229533526
0.3385790584074908 14.185407271038288 542819.6026399028 5.352693217331846 0.19130999405235555
0.3511233481852673 14.061143276055422 460316.1337199872 5.6046049400878815 0.19379015424913804
0.363953220213927 13.94932179940917 385727.1897941219 5.866621261808316 0.19630590844235252
0.37707086618208135 13.848595840554301 333642.8842614268 6.135598138563209 0.19879668107190152
0.3904674348733505 13.758017238888272 285099.4102219784 6.415030847213851 0.2013182251532049
0.404149152455902 13.676416875036763 244189.86447531162 6.705695796905823 0.20387445251373745
0.4181138781532738 13.602976909704415 209614.97893596985 7.007638327904521 0.20645591613013783
0.4323632613269822 13.536911251020948 180306.21370868065 7.3175806350078805 0.20901475870758204
0.4468961051677454 13.47762455206362 155416.94367018217 7.640058867383565 0.2116180742802036
0.4617113614392729 13.424297944476047 134206.58119682455 7.975606617518014 0.2142659280023327
0.4768111472692039 13.376563821129974 116116.73228139782 8.32222540801342 0.2169197296579434
0.4921919756445151 13.3339066579518 100642.27500656786 8.679997366029014 0.21957194583649958
0.507850371515554 13.295789007039271 87376.98499833365 9.052362191473534 0.22227221826022
0.5237970036654469 13.262022564153325 75991.60783640969 9.439924059498303 0.22502346804489742
0.5400173339591781 13.231855929541037 66184.31712821257 9.837185105185934 0.22774761616377062
0.5565160314898812 13.20531961207567 57735.71019088687 10.250474602918663 0.23051955496622206
0.5732892487206124 13.181995122307507 50442.17851787683 10.680679218257648 0.23334215209732748
0.5903382339234172 13.161559144032536 44130.575636931855 11.12470434461923 0.23616723078047352
0.6076664322992787 13.143888625623934 38661.2721890396 11.583589988314081 0.23901134803045535
0.6252565235409464 13.128599078443235 33917.21688762424 12.061308336956348 0.24191480293193576
0.643118532003366 13.115584535892136 29793.878910211482 12.557394323552657 0.2448645537554035
0.6612411235440662 13.104485663773362 26202.630671761155 13.0671033305543 0.24779521623699255
0.6796295951836071 13.095384128813762 23074.53069817702 13.597757093426447 0.2507845158589745
0.6982670868687891 13.087878198835805 20343.323571608413 14.15026035773531 0.2538341013819517
0.7171766631590716 13.082015635034942 17955.628844127925 14.718400847160641 0.2568778670418869
0.736328585362994 13.077485541582798 15866.342300843766 15.3081745442938 0.25997200637654916
0.7557244240343768 13.074251385078858 14036.2589589586 15.922186939183042 0.26313217210075474
0.7753593781797945 13.072077681352607 12429.623891140292 16.557267134560774 0.2663148977088383
0.795237454877351 13.070962445391064 11018.969975782647 17.213044779133757 0.2695136798226651
0.8153484845127895 13.070766700767939 9778.352123044939 17.895850439125844 0.2727842611423582
0.8356786241296013 13.071310496734167 8686.095716408088 18.606079628931962 0.27612281263027233
0.8562288294105747 13.072599455826941 7723.356553018348 19.3357813645266 0.27945357732749604
0.8769958510724971 13.074502607178681 6832.544432770642 20.095492561131827 0.28285530062862874
0.897958144279997 13.076810922749454 6087.549558823856 20.886463212243175 0.28632950766133647
0.9191319421975682 13.079700404061589 5428.988361398873 21.70298694065758 0.2898232867724452
0.940487856797084 13.08277189169025 4873.749496461377 22.548949641207113 0.29336681440922574
0.9620259002529153 13.086236180569568 4353.705919494641 23.42969269812383 0.29699368907625895
0.9837488325950774 13.08993499483095 3892.7623850528635 24.345300069219533 0.3006953231068318
1.0056367359602016 13.093729670724022 3483.4383114899565 25.288064001564692 0.30439478512954765
1.0276626345653888 13.097521964537465 3119.91574290346 26.269633922246573 0.30818053755996544
1.049861086779029 13.10145186662265 2796.6131147037113 27.29150573297378 0.31205452935443984
1.0721672496735042 13.105286701522925 2509.1307870354244 28.34955069817978 0.31598096555556826
1.0945769098403455 13.108974185416914 2253.9813194421868 29.44468575002825 0.31995915721762963
1.1171692339880828 13.112487786324474 2024.5817085176893 30.584784976037728 0.32402661547091055
1.1398333974809278 13.115812763513432 1820.8689054549925 31.77169737053396 0.32818367223907086
1.1625871078928485 13.118827250153396 1638.8864049286328 32.99926720223954 0.3323883437607133
1.1854041806017603 13.121473534795102 1476.3000806143268 34.27303816128784 0.33666998432308753
1.208302535342721 13.123818371463443 1330.9143145619312 35.59923131514524 0.3410571918958881
1.231245956059107 13.125748007872957 1200.7836248609317 36.979864661082935 0.345549198885408
1.2542401359702302 13.127318830128411 1084.2666257991648 38.41058543565364 0.35009833708144356
1.277239749560298 13.128136485889287 979.7184031835712 39.89484022513443 0.354729794014854
1.3002489106586943 13.128449742600708 885.9935876100632 41.440457346116006 0.35947825774336695
1.3232631169533478 13.128262338788804 801.8254016996938 43.04989069836861 0.36434591197291766
1.3462595347395787 13.1274457534213 726.2488594071234 44.72566657647074 0.36933459202450014
1.3692189099696452 13.125930806001689 658.2502131432342 46.4594127200339 0.37437332176804056
1.392120895895222 13.123729477498115 597.1220112940741 48.265466176112234 0.37954398071673756
1.4149517180082503 13.120728884327368 542.0868122361128 50.146850322714066 0.3848497999595949
1.4377062389172082 13.116989582398281 492.4651624737919 52.106751458890535 0.39029363648418136
1.460347972095856 13.112351076233328 447.7591788007344 54.148548969150625 0.3958772584244485
1.4828797459796537 13.106907440990692 407.3891914256931 56.26970592123549 0.4015647257857103
1.5052582897235673 13.100585641489786 370.97860970136804 58.47697549520987 0.40739041321840325
1.527489508573313 13.093273388421204 338.04993070679285 60.7779664095265 0.4133765620297632
1.5495576969695908 13.085193830368508 308.3161162911963 63.17692264438474 0.4195263472000826
1.5714006242866374 13.075822441631473 281.3838791916335 65.67835320524546 0.425840695471515
1.5930529968626976 13.065572406572874 257.004923621319 68.2871120297838 0.4323246459457234
1.614476678491039 13.054349091177034 234.9323494917241 71.00824234699341 0.43899339594920656
1.6356556848804593 13.041991901068581 214.9017440426953 73.8471730997575 0.44585419237354024
1.656577000139742 13.028719057970207 196.769286681745 76.80542849033131 0.45289170196222034
1.6771488702086348 13.013891051964155 180.28198480890504 79.89312121810947 0.46012604546389707
1.6974575258952067 12.998218912555798 165.3206571963765 83.11790729117614 0.46758107753108263
1.7174235003951333 12.981348165680252 151.72886120105295 86.4868371252869 0.47526753793665816
1.7370392122412512 12.963083554975968 139.34067779796257 90.0074182545942 0.4831903730923901
1.7562977409494986 12.943694532619457 128.0813481950616 93.68768941073105 0.49135710965566104
1.775150194937634 12.923138620478735 117.84441925991975 97.53628964245087 0.49978651286882353
1.7935939677461805 12.90113259882158 108.4994591105189 101.56243721714083 0.5084947639203018
1.81160518874101 12.877826597772954 99.97919454998248 105.77599380455008 0.5174892888173194
1.8291919055151493 12.853407658990411 92.21408435278784 110.187550307892 0.5267825433673214
1.8462579499244351 12.827382740192755 85.11774793657624 114.80849033496828 0.536397930180025
1.8628807374099818 12.800272536786544 78.6486263198835 119.65102989496533 0.5463553283193243
1.8789772845113788 12.771599702467318 72.7229968601224 124.72808723962021 0.5566624755303206
1.8945354423896459 12.74153081326398 67.30718875654266 130.04666975070228 0.5673167825032375
1.9095444450519508 12.710012955899227 62.350205190235144 135.62786641045022 0.5783695407909915
1.9239916936739405 12.67719755943483 57.813977749398575 141.48795908342458 0.5898394986569555
1.9378410110934505 12.642757553142758 53.65041399913383 147.64449573456466 0.6017443994089852
1.9510951278377697 12.607035907133493 49.84296218919482 154.11636975904204 0.6141196072369252
1.9637128443939738 12.56970737982456 46.34383198375278 160.9240042255295 0.6269971775467915
1.9756875632382949 12.53101648548612 43.13769111933654 168.0761502511532 0.6403482131868251
1.9870172915167943 12.490729391779894 40.188151281997726 175.60576310802236 0.6542490415834535
1.997672816759156 12.449152397431249 37.481556517541094 183.5408776065995 0.6687474841091172
2.0076033198143297 12.405861984193056 34.993366900934475 191.90639181083685 0.6838580696561272
2.0168312201603684 12.361108209150053 32.703059348842594 200.71619298717013 0.6995789038646465
2.0253431853649446 12.314874189160331 30.596118339204907 210.01985057467687 0.7160166565675266
2.0331037784307457 12.267187114988447 28.65743716586521 219.84494650114635 0.7331777010248348
2.0401072430170206 12.217877901389064 26.87067184124039 230.21808152764885 0.7510898506700708
2.04635809859253 12.167210325030895 25.22446670626754 241.19779139440502 0.7698679665242726
2.0518146818933425 12.11492779472786 23.70592675902888 252.80059107830482 0.7894609808469231
2.056467330064936 12.061177290265203 22.306553620191064 265.099919553081 0.8100343312605577
2.0603184378781187 12.005939288585198 21.01510772747377 278.1201777008944 0.8315570858228497
2.0633544419960095 11.949245579211418 19.82290995047841 291.9407938999756 0.8541702345561097
2.065559533358409 11.891060734437795 18.722400568466348 306.59748194464703 0.8778807692258759
2.06693884025581 11.831617652485015 17.709542938870047 322.17244866756465 0.902803854540433
2.067462531784126 11.770529574253926 16.7699516243372 338.73538464808775 0.9290344774048975
