M[M_sun], R[km], Lambda[1], P_c[MeV/fm^3], rho_c[fm^-3]
0.23841724892012095 16.20908015294055 2780876.1263280716 3.453507347168396 0.169602847481901
0.24841590923141657 15.866166777494433 2282084.6308921557 3.6355622380291277 0.17197864004850633
0.2586955458685497 15.562980133353184 1881575.1039083719 3.8247943525992105 0.17437525559287798
0.2692600751859979 15.293610435393024 1558191.7841928308 4.020310889356504 0.17676702945628997
0.2801141783843086 15.053866836222031 1295401.333627482 4.222438269463819 0.17914587283595218
0.29124470845074923 14.839822021705766 1060501.248203548 4.432544857306276 0.18154852435648708
0.30266517191705966 14.64849877798321 905608.8519329951 4.650978248180238 0.18397884248304933
0.3143665877418138 14.477027218407377 761018.4862842234 4.87810567260173 0.1864384789192294
0.32635339601284696 14.323207354930672 641596.1607849195 5.111245131995506 0.18886781765202987
0.3386222982919905 14.184988411010004 542533.3421406838 5.3535830682959995 0.19131887308495218
0.35117315294742807 14.06068091901455 460042.3252556265 5.605619074861734 0.1937999011433631
0.36400879169221184 13.948905368649493 391146.8580755528 5.8677656595230445 0.19631650576409837
0.37713430068030424 13.848239879650578 333402.3572246594 6.136932311810113 0.19880903574806014
0.39053648653190814 13.757588484259577 284872.19023803785 6.4165124779930105 0.2013314308139814
0.40422405045107074 13.675982017441022 243982.50314293805 6.707331519603628 0.20388843715716262
0.418198857842223 13.602582489164442 209422.55472080625 7.009509780055216 0.20647191614716384
0.4324554516075983 13.536503275670905 180135.62563539075 7.31962555934369 0.20903161566563128
0.4469946427368598 13.477250552526199 155257.3826678472 7.642285266070247 0.21163577528586475
0.46182049983350076 13.423950333722336 134063.80542730432 7.978022805170297 0.21428442694978658
0.47692615073927375 13.376252793363287 115988.23908436202 8.324944761383934 0.21694054971927518
0.4923155525411624 13.333567309351036 100525.51009981088 8.682929462589557 0.21959351783834546
0.5079853309587768 13.295462812901166 87272.5493907594 9.05551653909633 0.2222946193347917
0.5239368311208202 13.261642397464326 75892.99781316564 9.443311042656186 0.22504669368934044
0.540169692424905 13.2316078342609 66100.53272877375 9.840955604137552 0.22777347170067203
0.556675172507639 13.205132163117423 57665.97434270006 10.254505621076412 0.23054619277055582
0.5734615124063605 13.181821493750174 50375.287493937416 10.68498234578956 0.233369530444046
0.5905240663379856 13.161406067633848 44067.99040819976 11.129467399854686 0.23619753538490568
0.6078475246118215 13.14367884906289 38607.80703580756 11.588657248699894 0.23904250921535636
0.6254540929933617 13.128429027198253 33868.22267206533 12.066694253500982 0.24194682784735752
0.6433225822157688 13.115386304861286 29747.643596996506 12.563328812467551 0.24489984050817729
0.6614593460664258 13.104449697979682 26164.414219772 13.073393969203158 0.24783129745777882
0.6798602276752411 13.095274024167098 23037.56695256556 13.604420092598616 0.250821390868962
0.6985071783164076 13.087737264078502 20309.746012486725 14.157313374591894 0.2538718873361419
0.7174277430552379 13.081966867792973 17925.66139675606 14.726131458990212 0.2569192831550756
0.7365916016151826 13.077412445753293 15839.54853168602 15.31634164511345 0.26001438143823186
0.7559985090178342 13.074174191959473 14011.761676256507 15.930811486521524 0.2631753943077643
0.7756426666029812 13.072014741562578 12407.562260994682 16.566693313378895 0.26636213731877917
0.7955326891120451 13.070962859285848 10999.299786801112 17.222981828516186 0.26956184563890934
0.8156576776848786 13.070771479702652 9760.477708857323 17.90632362613823 0.2728334921153811
0.8359985094138112 13.071362222253924 8670.22257678603 18.61749898362063 0.27617649122323085
0.8565523806335699 13.072605268249871 7709.137506731873 19.34780139837646 0.27950839994981924
0.8773357664091758 13.074506540157406 6861.015987094421 20.108143166988658 0.28291112275776337
0.8983113738833797 13.076854610612513 6112.103064722454 20.899775675403692 0.28638646963817693
0.9194988469027106 13.07973732290405 5449.967453817299 21.717458373869526 0.2898852078034015
0.9408606142090976 13.082847249172708 4864.092203974039 22.56416308815113 0.2934300724741245
0.9624149978671579 13.086294217400484 4344.93204213131 23.445687564513054 0.29705835341122383
0.9841566859185505 13.090087036022778 3884.726171031171 24.362660242031424 0.30076550712728173
1.0060462368808578 13.09379245499507 3476.2401476383448 25.306300474539484 0.3044662521444783
1.0280887065010569 13.09766017160042 3113.4097484306385 26.288792187383557 0.3082535390275747
1.0502927183173179 13.101543607987681 2790.824890274817 27.311635733259145 0.31212923238167256
1.0726163075395545 13.105353954229896 2503.742737439211 28.37135369504683 0.31606187712266337
1.0950656576822086 13.108972909372925 2247.9051125366277 29.467582483452293 0.32004195748455705
1.1176331985475798 13.112500128542138 2020.0975317319069 30.60883440520166 0.32411110047258507
1.140316065315002 13.115850368461611 1816.7198684197206 31.796962016816742 0.32827020869181345
1.1630773531011065 13.118865986771448 1635.1696376145192 33.02658684757146 0.3324819189950842
1.1859106047391466 13.12155472519602 1472.9643803571812 34.30172820337141 0.33676590965203457
1.2088136422135944 13.123870021630767 1327.8453470378872 35.629370166851814 0.3411556138078969
1.231776817371655 13.125808757345496 1197.8665620193865 37.0115333965244 0.34564989320436773
1.2547714130849195 13.127250348998862 1081.654759520979 38.444787303849445 0.3502070857819243
1.277787841384688 13.128198233969119 977.435345929525 39.93076910630997 0.3548414830781012
1.3007989091814953 13.128497835389243 883.9000208651029 41.47821453812212 0.3595930949530694
1.3238241456265472 13.128360037429278 799.9809074236827 43.089584125624086 0.36446407682498166
1.3468417705226883 13.127476262660288 724.4315397464793 44.767468413258186 0.36945624197378313
1.3697926632243762 13.125916076855532 656.6783194813208 46.504434194686525 0.37450416188046953
1.3927153853253953 13.12367568597666 595.6395709301053 48.3128083259215 0.37967882151031235
1.4155391151549441 13.120642318253358 540.7306844083464 50.196653776569086 0.3849888963676747
1.4382856869722347 13.116916355121752 491.3742899177235 52.15916583926614 0.39043719373141667
1.4609485439437997 13.112250538207613 446.6410396054677 54.203731406861316 0.3960252193346894
1.4834917986165215 13.106801269722189 406.3643872978928 56.32917674928127 0.4017241851756084
1.5058729725411528 13.100364152430373 370.0066471895025 58.53959379335736 0.4075553142842159
1.52811351638162 13.093099992513139 337.18762334039303 60.84392890644358 0.41354725218721
1.5501701071437244 13.084810209043463 307.4882014867757 63.24643887025155 0.4197030765003528
1.5720294336655314 13.075551062714734 280.63681444253314 65.75164474985417 0.4260235713479742
1.5936874394214344 13.065318679155796 256.3294677728364 68.36441695157448 0.4325144618464087
1.6151089533818792 13.054041855970032 234.3123649143767 71.08981813317706 0.43919059341842065
1.6362771367532707 13.04158853056049 214.3385564510013 73.93329444396589 0.44605906981163695
1.6571869503958871 13.028148458956128 196.23464798037458 76.89817618276064 0.4531123430795759
1.6777989252856835 13.013530179654289 179.79721849183215 79.991069877059 0.46035526213796385
1.6980794278813067 12.997635206210902 164.86932395859517 83.22139701633598 0.46781981746171003
1.71804792163136 12.980706710334116 151.3075033996462 86.59623547983892 0.475516416597882
1.7376610605829863 12.962484032963157 138.97200742151153 90.12311837760015 0.4834497985672425
1.7569167571801036 12.943076365460964 127.73314963693204 93.8101116233587 0.49162766761150883
1.775785568328192 12.922527292732982 117.5230661005943 97.66588748728306 0.5000692881506978
1.7942050931683793 12.90044876068154 108.2057056316938 101.69970075951439 0.5087905575307174
1.812206247413298 12.877080691385247 99.70961885660994 105.92144861586428 0.5177986338692007
1.8297856578176919 12.852638125090053 91.96711043758503 110.34176069196182 0.527106349251933
1.8468603592526902 12.826607991848299 84.89203308019361 114.97206645660883 0.5367374823335885
1.8634437310264043 12.799172754282349 78.42847522650368 119.82463161164117 0.5467116819367797
1.8795141225943994 12.770503504085639 72.52610753032266 124.90982478115556 0.5570269214064156
1.8950718147459047 12.74040478375284 67.1222673887974 130.23981032795356 0.5677001047797839
1.910082506272023 12.70887049907233 62.176409510276095 135.83323402821784 0.5787730287075992
1.924505791664905 12.675932294272654 57.653250776335184 141.70644241481028 0.590264045780137
1.9383625679856238 12.641586108622937 53.507622862642066 147.87705552681436 0.6021917465776667
1.9515926183355337 12.605755935678324 49.70729863168583 154.36404900410986 0.6145915745947558
1.9641855832361486 12.568291050245818 46.215728619242 161.18724337003988 0.6274930658379635
1.9761564299930843 12.529563648070976 43.01789089721722 168.35436709649318 0.6408634602273208
1.987433489860475 12.489227202791941 40.081309599409934 175.9026392710512 0.6547941248328684
1.9980549352785337 12.447371262846339 37.37877760610795 183.85784950287967 0.6693245668181272
2.0079774508742823 12.404045205526309 34.89694849052816 192.24161970773636 0.6844576264300113
2.0171939591648105 12.359393745787305 32.61777495834117 201.07460410680736 0.7002148387026066
2.0256791596235932 12.313049031322127 30.515446207159332 210.403283024559 0.7166916863644934
2.0334062135254065 12.265206190944884 28.580622424435102 220.25172991595656 0.7338821046262175
2.040381782556663 12.215888759657279 26.800415309566397 230.65387409692238 0.7518389093794503
2.0465911250270663 12.16507792514379 25.15987515677753 241.66275962116964 0.7706574969741012
2.052026487079306 12.112763160035318 23.645699910562655 253.2977160016814 0.7902962206708468
2.056630870720842 12.05885222154339 22.250277925834 265.6327252964897 0.8109219052861648
2.0604646832643114 12.003563435531527 20.961593993676136 278.68933260850815 0.8324927604577389
2.0634671610466877 11.946821506670778 19.774642207505188 292.5485692439826 0.855156218963865
2.0656323677761668 11.888567327086756 18.678527726498057 307.251474600669 0.8789345444869843
2.066979543861798 11.828975283576625 17.666408909837838 322.8722864450775 0.9039162563623954
2.0674587132111775 11.767862969486815 16.732212075281716 339.48698756854753 0.9302170080292042
