M[M_sun], R[km], Lambda[1], P_c[MeV/fm^3], rho_c[fm^-3]
0.23841724892012095 16.20908015294055 2780876.1263280716 3.453507347168396 0.169602847481901
0.24843449360178946 15.865602007745894 2281234.114724112 3.635926687134732 0.17198327597896523
0.2587367688238012 15.561795675893178 1880158.9423799675 3.8255440757908747 0.17438442703363874
0.26932494258910916 15.29214493346483 1556380.2508896112 4.021518843888161 0.17678180648806907
0.2802023280547564 15.052068539811092 1293558.2719723908 4.224092545124005 0.17916521702324772
0.29135664047692794 14.837821453943999 1079290.3924301132 4.434668316537252 0.18157241756184778
0.3028036737279305 14.646261821069572 903659.7613671212 4.653594957318987 0.184007182813173
0.31453303289767426 14.474794788500509 759205.0204295341 4.881240678492788 0.1864711460243969
0.32654596793168966 14.320857763880857 639840.4590668621 5.115081439296209 0.18890779239479008
0.3388452542465943 14.182701230447972 540894.9839851012 5.358010265747567 0.19136304815703467
0.3514282471822618 14.05841593393532 458534.7395809283 5.610664962229862 0.19384839739032828
0.36429281486240156 13.946627238663762 389792.98690601334 5.8734600647398825 0.19636923694614933
0.37744966870742247 13.845903053772693 332141.26707047125 6.143571635339739 0.19887051703792352
0.39089068705105007 13.75539033134844 283727.21376879537 6.423886090608993 0.20139715125410268
0.40461014278857904 13.673833335436576 239813.8933969229 6.715472524580099 0.20395803883956948
0.4186213808097661 13.600587568054676 208479.91813838598 7.018824895910619 0.20655155591365762
0.43291336548628473 13.534579519886035 179285.30453325313 7.329804768746118 0.20911552610811868
0.4474911643951999 13.475287640149133 154481.9352646637 7.653368498681791 0.21172389264075456
0.46235452553122974 13.422140418315628 133373.74456204078 7.99005155052821 0.21437652208490643
0.47750371560112537 13.374561058126721 115357.06000404034 8.338484098404564 0.21704421032852794
0.49293308386742907 13.33196389933805 99959.87440111884 8.697528880499846 0.21970092858134338
0.5086454246713908 13.293993757046225 86763.9275637077 9.07122348853495 0.2224061646011173
0.5246426432105764 13.260339320695683 75432.69033015885 9.460177347211252 0.2251623514220197
0.5409107651218444 13.23035781544176 65692.78099215165 9.85973357674942 0.22790223836259915
0.5574689611370144 13.203877870305462 57288.31810823273 10.274582155732592 0.23067886267700202
0.5743030345524612 13.180772948979417 50040.66611163907 10.706415294127217 0.2335058960726352
0.5914100890577164 13.1604100806461 43765.7978512328 11.153193550807801 0.23634849135408695
0.608791088843156 13.142893145331357 38336.70888880851 11.613900085462353 0.23919774037458072
0.6264426957053041 13.127650551042477 33623.078506266604 12.093525914297027 0.24210637017603961
0.6443612725655385 13.114714327373331 29528.050324833534 12.592837094325695 0.2450749670324138
0.6625566524981125 13.103893010893916 25965.42689150407 13.104737672643557 0.24801107556096053
0.6810005580998459 13.094741731048401 22858.539127561857 13.63762082665203 0.2510051335602301
0.6997097659817646 13.087398953348451 20149.041694493197 14.192459300426258 0.25406017872556474
0.7186831970748192 13.081664421304861 17781.32481586533 14.764657989763409 0.25712568585572193
0.7378957362372384 13.077168725143926 15708.366036315081 15.357045533366621 0.260225573856881
0.7573575576829991 13.074024899020145 13796.674937205193 15.973797391789574 0.26339081960755956
0.7770328301637741 13.072101798757732 12308.242217053747 16.6136797496468 0.26659761141328076
0.7970055456442181 13.070984461653538 10903.399217027125 17.27251724889001 0.2698019484967581
0.8171779674364302 13.070759180938262 9673.642564084654 17.958534235421652 0.27307891684560887
0.837575427974038 13.071356832705154 8591.49510931722 18.67277226061967 0.2764296342875393
0.858201692287535 13.072715551451129 7637.708735949267 19.407732913780077 0.2797817438417973
0.8789990780459742 13.074765117901268 6800.321142750892 20.171221807135446 0.2831894638930227
0.9000764440026089 13.077084453504597 6053.559431732537 20.966157747926133 0.2866705082891802
0.9213076496074657 13.079926659447032 5397.172322085001 21.789627811176526 0.2901940096958012
0.942744221095873 13.083145412308722 4815.960239476654 22.64003671544897 0.29374555777192546
0.9643638038367744 13.086702560337448 4301.523960194414 23.5254623079337 0.29738086818594944
0.9861369136474019 13.090307179763428 3845.544246004669 24.447223073591225 0.30109960896051063
1.008096983134307 13.094127216625436 3440.460537006532 25.3972704324848 0.3048227548164429
1.030188199604404 13.097927292626766 3081.0826532239703 26.384365162305933 0.30861771435259655
1.052458085536715 13.101857945995315 2761.144346258187 27.412061391500878 0.3125019149736319
1.0748439439101223 13.105712217602148 2476.9707520489114 28.480138733600334 0.3164655816225326
1.0973589236034882 13.109399923228324 2223.689880904152 29.58183053499579 0.32045510677483136
1.119970611625406 13.112879653199013 1998.0569997901814 30.728840292336308 0.3245326779456472
1.1427043860297188 13.116190234770073 1788.0882024226416 31.923038396784015 0.32870204544008513
1.1655223033735036 13.119166688064245 1616.8605540233964 33.162934984735216 0.3329489385605332
1.1884160007728641 13.121874349970476 1456.3134224954404 34.44492342043925 0.33724468372496424
1.211362225356309 13.124090621397869 1312.6769916595367 35.77980471618733 0.34164687525746784
1.2343812665138807 13.126015083076672 1184.1516678599362 37.169612875276584 0.3461525247503567
1.2574199295745685 13.127394239510288 1069.0746549056105 38.615533097105235 0.35074999130459367
1.2804698424850818 13.128167780311509 965.9161306804659 40.110146736473595 0.35539909909131895
1.3035452986775025 13.128487878477417 873.388086306358 41.666730947893505 0.3601664611736765
1.3266130158469782 13.128167121211051 790.3357214232125 43.28777947229088 0.36505409198461797
1.349663113196182 13.12728897251648 715.7275961901015 44.975905260249675 0.37006199513280624
1.3726815310785692 13.125808100993844 648.7061331850974 46.729276502533686 0.3751575921171399
1.3956102976869031 13.123276465680506 588.3528849534872 48.54925480745083 0.3803522727865182
1.4184852867613271 13.12022712315458 534.0424981127494 50.44540859649093 0.38568364541147393
1.4412760952702566 13.11628947146701 485.1264487338556 52.42097827477292 0.3911542693176201
1.4639609863532743 13.111566317565105 441.0139185465359 54.47938841484776 0.39676433966913005
1.4865148270760224 13.105951574683937 401.2454935444273 56.62435064549302 0.40251165059937316
1.508954426959539 13.0995773237362 365.31897724134205 58.85246025173048 0.40837922700572143
1.5311856245275355 13.091964967246057 332.8621877255221 61.17352712531471 0.4144001485222898
1.5532597455736956 13.083553633760268 303.54615718180844 63.59381878241987 0.4205862114525159
1.5751490105057813 13.074162587883022 277.00840372203066 66.11824946305553 0.42693858639336046
1.5934398866109611 13.063686434598633 256.26794260110074 69.3714860728769 1.373546035973069
1.587942209674313 13.045555388630563 258.27881512721933 73.67196746089697 3.642112945770799
1.5689150193291133 13.023541375411432 273.3786074279841 82.94554153072636 6.197664531897846
1.5427620738567458 12.994292075035027 296.0575998906023 98.2156248982058 7.967487113250743
1.5061864780619 12.94655029275031 330.0006994495745 116.4910259179349 8.102615071962568
1.4638993178794109 12.880166946360701 372.24355027144475 135.4750826591128 8.167758840059324
1.4187566143711088 12.797676613193456 421.45845869828423 155.12867524449004 8.234789939201443
1.3718844307713873 12.699738850572881 477.32369097114724 175.48376839563994 8.303992517584168
1.3242095120202206 12.587132908522316 539.4647445248532 196.5748232598056 8.375463548358058
1.2762000753182525 12.459935588422265 607.5333395996222 218.43961328505915 8.449291790578059
1.228551147539365 12.318532564231264 679.9637290928456 241.11765023287145 8.525601283030655
1.1814512818094063 12.162322856632972 755.8811102921237 264.65031907680213 8.604514489598351
1.1356639705905738 11.99240548953606 832.0051090717932 289.083379011518 8.68613779399175
1.091310898133634 11.8081331692109 905.779598765444 314.4640310023225 8.770626820170234
1.0489520448157332 11.61038496149849 972.5819614180939 340.8437056868392 8.858112176061317
1.0089456103970575 11.399815740002776 1028.1429784194343 368.27800148577296 8.948757114336564
0.9715335966088333 11.177087685721848 1068.0928862270507 396.82454007986115 9.04270929916808
0.9370709314341455 10.943990456684428 1088.2957511570064 426.54736122718936 9.140168961285124
0.9055587331473088 10.701207883640707 1086.545477441612 457.51089811567556 9.241276003703964
0.8773434681381852 10.451720467446513 1061.7943802648545 489.589910139921 9.345584322991368
0.8523323445495877 10.196835280347495 1015.3629925210948 523.0486665177237 9.453918134219784
0.8305788361068617 9.939783024972952 950.5314718597853 557.9688969654466 9.56653334425972
0.811970396495379 9.682375399955188 871.709117254977 594.440107336554 9.683664082546706
0.7963749984509374 9.427549881107957 784.575437638854 632.4453931695986 9.805181743652879
0.7836016348204278 9.177422683474793 694.134825770285 672.0362445668536 9.931177347984656
0.7734471851652347 8.933969359529774 605.1849851294022 713.4693040700827 10.062477441830222
0.7656362918028459 8.698592999510163 521.1631877760747 756.8045384559117 10.199191559309511
0.7599539506416034 8.472881543928855 444.38947965878634 801.9695781390964 10.340969445009172
0.756132923005883 8.257535110554844 376.1999092625454 849.339860160088 10.489005130458567
0.7539379852325157 8.052748955073563 316.72251511475895 898.8578058087155 10.642997321648105
0.7531392922046487 7.859446691384815 265.96732478179143 950.7313817950725 10.803517977819663
0.7535414982309829 7.676919568448621 222.9462085921235 1005.1190158380006 10.971006124074112
0.7549269357013639 7.505335974803537 186.94822644650554 1062.1112172091937 11.145609493521217
0.7571434717277004 7.344019144193476 156.95834034906463 1121.9389020415128 11.327960894943832
0.7600182314983452 7.1924155692042335 132.1606968601342 1184.7688481853272 11.518482680535822
0.7634051386844264 7.0502744315767885 111.67549570578403 1250.729792413335 11.717403745155817
0.7671882778484492 6.916803249598947 94.68753482023544 1320.1727230478475 11.925734380107784
0.7712716532887909 6.791246246244961 80.6562924889211 1393.1682269846035 12.143478408764553
0.7755292440537114 6.673310730981784 69.07102018185152 1470.0323861527736 12.371483032301235
0.7798941698771457 6.562327721600615 59.44770031107793 1551.074674728365 12.610545776707351
0.7842867190779704 6.4575791880356865 51.373076307883146 1636.5667627963735 12.861285610258086
0.7886385184165802 6.3584878601396255 44.569248726747944 1726.7753307569296 13.124268477418848
0.7929013845897295 6.264839745893302 38.96124335001121 1822.0455360285332 13.40031799359698
0.7970092183842612 6.176079307289466 34.248464715329256 1922.793716256553 13.69046927544125
0.8009222764315225 6.091799452499511 30.207940496070695 2029.423232770525 13.995655543658254
0.8046091203777394 6.011484291842009 26.78341567403722 2142.3792282748177 14.316906321906263
0.8080141110354817 5.9348913585111225 23.861395015311054 2262.1519309289147 14.655349225714481
0.811133721065603 5.8617973536823405 21.357696714617173 2389.2816949951866 15.012216131223223
0.8139196912549154 5.791765497685812 19.203735748988635 2524.3003362368136 15.38863013911369
0.8163605879916942 5.724476738765981 17.34074530088452 2667.89385119596 15.786208366761283
0.8184400385074584 5.659777642314603 15.724966938068896 2820.8011225133628 16.206640645597265
0.8201286642604683 5.597587080146169 14.326592650663384 2983.821115782253 16.651728402431875
