M[M_sun], R[km], Lambda[1], P_c[MeV/fm^3], rho_c[fm^-3]
0.23841724892012095 16.20908015294055 2780876.1263280716 3.453507347168396 0.169602847481901
0.24841304208236237 15.86624484766512 2282296.8608195954 3.6355259095140937 0.17197817793605555
0.25868941412822116 15.563156516259822 1839397.0998003727 3.824719625419186 0.1743743414476142
0.26925360137811294 15.293785115571007 1558399.2049642252 4.020190498623809 0.1767655567040991
0.2801058894777419 15.05405518991426 1295699.4058623917 4.222273408320343 0.1791439450406555
0.29123306773374996 14.83999937062336 1081317.0441935286 4.432333253595699 0.181546143387341
0.30265194480210655 14.648635959854163 905789.8258096457 4.650717510007641 0.1839760185521134
0.31435274320627293 14.477196775822874 761185.9905036122 4.877793310613343 0.18643522407305702
0.32633370935193085 14.3234587745903 641741.4190314376 5.110862926247022 0.18886383502621823
0.3386013099510312 14.18515938421619 542644.3641469994 5.3531420219331185 0.19131447227493972
0.3511482583826961 14.060942173026456 460151.53134363226 5.605116425426282 0.19379507015737785
0.3639818723712776 13.94909003136316 391267.17403508123 5.867198442837646 0.19631125323900378
0.37710276238665413 13.848376146257936 333519.322540992 6.1362710283826924 0.19880291214858475
0.39050312001905657 13.757773383902736 284984.1842353364 6.415778103089287 0.2013248853871465
0.40418735425893243 13.676248394837263 244106.52175887363 6.70652076414665 0.20388150558741303
0.4181567665358168 13.60274948876564 209511.30506506373 7.008582176498821 0.20646398558228662
0.43241208787536145 13.536826240726459 180228.34253326806 7.318611967230356 0.20902326030527182
0.44694857273620653 13.477393507682931 153529.25390774148 7.641181718216403 0.2116270015173007
0.46176730031333935 13.424135701926405 134137.8110970276 7.976825179484855 0.2142752576228084
0.47686957876228514 13.37638067471536 116050.41274979402 8.323596855282881 0.21693022980719692
0.49225450950997646 13.333757068584594 100585.45850035992 8.681476098534747 0.21958282515772404
0.5079186342214551 13.295615704074084 87324.23363398598 9.053953003365192 0.22228351565038623
0.5238656038140025 13.261788371865858 75939.7401293262 9.441632186949132 0.2250351812300498
0.5400951418310249 13.231758488137707 66144.91026130898 9.839086632180193 0.22776065555245628
0.5565959424296105 13.205263585370487 57700.23188066661 10.252507504832547 0.2305329888038513
0.573371483851787 13.18184895047206 50407.0938445157 10.682849339121043 0.23335595933891595
0.5904331492588653 13.161450150976544 44097.20255641811 11.127106392588146 0.23618251364198292
0.6077601225361725 13.143783057616988 38633.594580216886 11.586145438092617 0.23902706280273686
0.625352404242872 13.128540138080522 33894.483434371396 12.064024475018655 0.24193095321777816
0.6432243512050468 13.115500944512686 29770.030183951923 12.56038708302493 0.24488234884527962
0.6613494068915335 13.104536788182415 26187.271143491154 13.070275682424176 0.24781341189797676
0.6797481835228781 13.095288909614741 23054.371733485325 13.601117211348999 0.2508031117463147
0.6983887209746896 13.087843429989206 20327.050377544856 14.153817144636736 0.25385315657346114
0.7173015868305641 13.081984403318742 17940.761451345283 14.722299306235511 0.2568987527137931
0.7364604011575949 13.077437054563115 15853.15242645527 15.312293102518511 0.2599933755456913
0.7558607649321697 13.074222572199238 14023.918921592214 15.926536163398069 0.2631539683831537
0.7755021850373423 13.072082540971618 12419.19898775674 16.56202056627179 0.26633871969060224
0.7953839857422247 13.070996101011653 11009.650099441693 17.218055811924824 0.2695379687715592
0.815498544037667 13.070717181362756 9769.318968238493 17.90113181251707 0.27280908712423363
0.8358376971404312 13.071324291786125 8678.09470606432 18.611838078674552 0.27614988118959394
0.8563969866851509 13.072605478194115 7716.098077440822 19.34184269453879 0.2794812226744381
0.877166715556544 13.074477381906403 6867.165062989767 20.101871842946867 0.2828834498807116
0.8981365174896924 13.076806358301244 6117.928128083636 20.893176219383793 0.28635823158362367
0.9193171648236148 13.079721732442126 5455.420625571422 21.710284306860412 0.2898545110770408
0.9406843000814394 13.082886045167673 4868.731314374404 22.556621143920726 0.2933987127961143
0.9622232223508903 13.086251881248305 4349.219645009523 23.437758204653694 0.29702629645185163
0.98395375399957 13.089957938061316 3888.581907988278 24.354053954984156 0.300730713474438
1.0058411130702145 13.093744113212967 3479.7543685119526 25.29725972458371 0.3044308222994109
1.0278818845280766 13.097613733701966 3116.589564889049 26.279294417883225 0.3082173483230625
1.0500757609231772 13.1014850119165 2793.7004714356926 27.301656180465727 0.3120921979656999
1.07239983617328 13.105305118261452 2506.3516331011892 28.360544636209777 0.316021764385196
1.0948467655903271 13.108932425444248 2250.3511561203327 29.456231144407862 0.32000090822720423
1.1174044410996573 13.112495788763436 2022.3552764135723 30.59691155090506 0.324069215804207
1.1400789573564187 13.115855784185216 1818.7554651008263 31.784436645715896 0.3282273067975134
1.162829485082725 13.11884366895798 1636.9990170463645 33.013042535303335 0.33243552702405077
1.1856619964490547 13.121508284139388 1474.5710469127582 34.28750442295369 0.3367183523563197
1.208560672981993 13.12390196509979 1329.4332741647288 35.614428035810114 0.3411068185478476
1.2315199423248826 13.125827264425979 1199.372219834661 36.99583271249034 0.34559997110725926
1.254508867806767 13.127234020059303 1082.9474162470717 38.427830564270785 0.3501531699144339
1.2775174587603109 13.128153597912855 978.6033698436433 39.91295605696427 0.35478610916358166
1.3005250289216788 13.128479554791538 884.9460236141734 41.45949494683639 0.3595361599556343
1.323563074938974 13.128302463313494 800.8216821080464 43.069904473769505 0.36440549173140685
1.3465533682056532 13.12748235362819 725.3530876770689 44.746772966770145 0.3693960974634987
1.369511199106199 13.12593199173484 657.4324912736699 46.48211258240795 0.3744392914540195
1.3924189145605104 13.123697188598392 596.3785180810551 48.28933600376829 0.37961196720481644
1.4152414389148786 13.120620716510178 541.406172532276 50.1719610054025 0.3849199317576136
1.4379883369865507 13.116848461418849 491.84325467121204 52.13317841928568 0.3903660170343269
1.460649163338181 13.112276383229805 447.1807770864433 54.17637141411676 0.3959518588671455
1.4831920271374308 13.106839246923624 406.86872013081836 56.29969018585019 0.4016451227248335
1.5055656890488602 13.100453955859376 370.49490715335446 58.50854648875403 0.40747355330106616
1.5278188140320659 13.093294334986519 337.6147802750643 60.8112232961354 0.413462620373167
1.5498673063798352 13.084959025911056 307.88970324317904 63.211971039977044 0.4196154498283019
1.5717264108832847 13.075710766000837 281.0089049856943 65.7153048034635 0.42593289650161703
1.5933801736004765 13.065451980095961 256.6626092472231 68.32608682418972 0.43242034535958757
1.6147927240289242 13.05418691304596 234.62440873939963 71.04937012285 0.4390928163004253
1.635978157741438 13.04184640840085 214.6240598631811 73.89059231370594 0.44595748404182173
1.6568662298726706 13.028309828930512 196.4953520544525 76.85218788643976 0.4530029397206379
1.677481528229451 13.013768584261584 180.04714700611163 79.94250238679676 0.46024160587451857
1.6977586356673986 12.997828873537756 165.09155151572878 83.17008164997488 0.4677014382990806
1.7177598913361833 12.981149264884674 151.51433175209795 86.54198993176868 0.47539300926295125
1.7373291036541412 12.962753827026804 139.19374488357528 90.06574765470927 0.48332116061386865
1.7566014571302324 12.943412724275781 127.9144719527847 93.74940724804605 0.4914935085292387
1.7754319789419808 12.922607922788847 117.679450435192 97.6016245015108 0.49992906989367847
1.7939010534034234 12.900766669364808 108.3490040139797 101.63163608681458 0.5086438827842298
1.8119179111502517 12.877514266813641 99.84305929817349 105.84932156520196 0.5176452381442495
1.8294822867779081 12.852977684239114 92.09076053287949 110.26529135691304 0.5269457814611809
1.846592688464675 12.827174844481425 85.006941267489 114.89095217873982 0.5365691048989181
1.8631586658063712 12.799711268467986 78.5386982982662 119.73854507917011 0.5465349714304111
1.879248200700574 12.771071297654853 72.62424021077558 124.81970347713794 0.5568461973946344
1.89480151714187 12.74084766447282 67.20859578871438 130.14403352004186 0.5675100184469607
1.9098195165560192 12.709392232513567 62.25891274478889 135.73139296681637 0.5785729405041293
1.924257721168087 12.676584867425488 57.735830814188674 141.59809626513444 0.5900535123455682
1.9381167068945828 12.642282081098871 53.58142455588385 147.7617276940406 0.6019699043625424
1.9513303247161846 12.60632120645209 49.77326896141784 154.24122208671054 0.6143575206849922
1.9639528671150777 12.569019728918605 46.2810600194975 161.03489660089247 0.6271671441260228
1.974880836248254 12.531791084208617 43.28243620157056 168.5269568716877 0.986272070021871
1.977360114108518 12.497813979802588 41.76013634184733 178.00405280474422 1.698611139584118
