M[M_sun], R[km], Lambda[1], P_c[MeV/fm^3], rho_c[fm^-3]
0.23841724892012095 16.20908015294055 2780876.1263280716 3.453507347168396 0.169602847481901
0.24841229315300017 15.866291649189776 2282194.614646977 3.635510155050155 0.17197797753331587
0.258688524394503 15.563116112740133 1881886.7122779326 3.824687219057454 0.1743739450172647
0.26925210012251105 15.29382299375203 1558457.9138873708 4.0201382902497595 0.1767649180337003
0.28010208237959855 15.054123216831231 1295729.9897339991 4.222201915693518 0.17914310904530306
0.29122755898962444 14.840104425538318 1081416.645665637 4.4322414917400215 0.1815451108811219
0.30264623956691505 14.648744681798854 905820.0715613263 4.650604442035309 0.18397479396676883
0.3143429415197344 14.477360924248103 761305.417236654 4.877657857387588 0.18643381263559095
0.3263258749834922 14.323530610579482 641814.4482645309 5.110697187629558 0.1888621080116495
0.3385915453836853 14.185343729974923 542723.9527395399 5.352950769467404 0.19131256393641374
0.3511368374967328 14.061044726492716 460244.71062094235 5.604898461612825 0.1937929752975136
0.363970881580626 13.949198219940074 391346.39584965893 5.866952482723214 0.19630897560559388
0.37708901826507263 13.848516162825 333573.33646050596 6.135984281606338 0.1988002568235963
0.39048828610918673 13.757843545975884 285024.74947834114 6.415459664774881 0.20132204717102853
0.4041699725110341 13.676270500437177 244129.0439653067 6.70616920853214 0.20387849995576188
0.41813775482814014 13.602856425612353 209555.08249877483 7.008179958349082 0.20646054681029258
0.4323920706203344 13.536902708012693 180261.7354463167 7.318172466867093 0.20901963736477647
0.44692631160088253 13.477456565822855 155365.6135325268 7.64070321593748 0.21162319718000983
0.4617429146178162 13.424222670268605 134168.03202138512 7.976305888442631 0.21427128179845792
0.47684419458093 13.37647731617821 116082.87225154412 8.323012409318155 0.21692575514018136
0.4922272949886827 13.333775540260373 100602.76774796058 8.68084593088298 0.21957818889235334
0.5078891107808152 13.29568463161253 87345.91733451144 9.053275070752445 0.22227870120986515
0.5238363384784724 13.261822079205139 75958.83698086538 9.440904257714273 0.225030189582675
0.5400601629136853 13.231771131959922 66162.35111555363 9.838276280632671 0.22775509870849242
0.5565617414032362 13.205293518446673 57717.355151105 10.251641164440176 0.230527263846792
0.5733339702359781 13.181937673303011 50424.34596468031 10.681924519130726 0.23335007523667653
0.5903966114606126 13.161588313512391 44111.21451846113 11.126082729386809 0.236176000656755
0.6077190228584027 13.143861210455752 38646.56658344808 11.585056397940251 0.2390203657358864
0.6253143069296203 13.128545934182961 33622.707999492675 12.06286695237142 0.24192407053317486
0.6431820464397805 13.11555709522177 29780.431090607497 12.559111667651331 0.24487476516492948
0.6613001258793197 13.104478953055814 26190.376132854686 13.068923727281728 0.24780565748785868
0.6796983927638527 13.095312700315164 23062.37426426128 13.59968523273801 0.2507951867527468
0.6983384153117862 13.087839628375754 20333.5370586107 14.152301348033049 0.25384503581858514
0.717250082451102 13.082027394789863 17947.56578878943 14.720637890618317 0.25688985181710183
0.7364057966863513 13.077483288528143 15858.379374372424 15.31053788242832 0.2599842685735563
0.7558035569423965 13.074216422270187 14029.252608282934 15.924682635091091 0.26314467936414343
0.7754431701877509 13.0720652104251 12423.488925892658 16.559994764424566 0.26632856731699184
0.795321197841573 13.070931186071071 11013.033522235188 17.215920221365433 0.26952761736255465
0.815443561112732 13.07088399817115 9773.614620798811 17.898881003423707 0.27279850681838935
0.8357724704893703 13.07129624390404 8681.377187173863 18.609383936596597 0.276138345082935
0.8563182765767836 13.072610117833664 7671.644853602409 19.33925946445648 0.2794694407236595
0.877095777469012 13.074507494485141 6870.228736903909 20.099153101020857 0.28287145314596274
0.8980617820618713 13.076809749763349 6120.240006318476 20.89031524255479 0.2863459899049869
0.9192368890778962 13.079718593210796 5457.717799934285 21.707174268383277 0.2898412037020215
0.9406045046382243 13.082869347880626 4870.990527941741 22.55335164572656 0.29338511810388485
0.9621406196876009 13.086280143109946 4351.209468194524 23.434320778714948 0.2970123995641309
0.9838684674386098 13.090009014713154 3890.4370763703314 24.350323128688345 0.30071563042245014
1.0057563742645081 13.093772848269891 3481.3438167513277 25.29334058181447 0.3044154635491091
1.0277894613120748 13.09763571508247 3118.214484249368 26.275177182796373 0.3082016598355255
1.0499794079874427 13.101464556635193 2794.9424139077996 27.29733012076373 0.31207614383002447
1.0722984978900365 13.10526363584367 2507.579009374953 28.355859058732374 0.3160043760684085
1.094747019415182 13.10898237060639 2251.51263003416 29.451310525967614 0.31998311405050855
1.1173150961510583 13.112568253601982 2023.2697177612072 30.591743221829592 0.3240510596023438
1.1399694259339892 13.115764366406893 1819.5824222595813 31.779007170889443 0.32820870976328315
1.1627251605706606 13.11883532539679 1637.788818384773 33.007171457875685 0.3324154174128304
1.1855514133301492 13.121508810516797 1475.351906103961 34.28133885431676 0.3366977377403522
1.208451266351855 13.1238532682083 1330.04584272754 35.60795112613667 0.3410856674489214
1.2314067809529765 13.125885046827166 1199.974399152491 36.989027040137415 0.34557833170381963
1.2543896172921591 13.127215177255774 1083.5031048055835 38.42048054915212 0.35012979971172764
1.2774094475296247 13.128239559312119 979.083766644972 39.905234920023105 0.354762107120547
1.300404620625548 13.1284809397049 885.4085962708883 41.45138092089616 0.3595114814229119
1.3234232442333442 13.128314827803269 801.292679038155 43.06137436779448 0.36438009813905864
1.3464277733197598 13.127511604500791 722.847315716513 44.7378026299738 0.36937002812916403
1.3693921242652312 13.125966010589105 657.8125802024828 46.47243754473475 0.3744111741383011
1.392315578702739 13.123865128043636 596.7065190077382 48.27916227844601 0.3795829902107088
1.4151164256987114 13.1206613460894 541.6834928559585 50.161258374265564 0.38489004030565754
1.437869183241976 13.116929633339959 492.13357505050647 52.12191473175477 0.39033516702781973
1.4605209904667171 13.112365095320284 447.4454522750745 54.164512906353515 0.3959200625987032
1.4830601207282226 13.10695574687576 407.11143421886607 56.28691017959054 0.4016108556384649
1.5054343052526988 13.100546668575442 370.69836366129783 58.49509013702348 0.40743811690614706
1.5276717918766662 13.09326936557617 337.8160661366209 60.79704832700455 0.4134259400195444
1.5497314493715766 13.085022967777087 308.0677469742139 63.1970324309813 0.41957747178962235
1.5716024664462362 13.075866459720135 281.1685110764417 65.69955494103532 0.4258935976996741
1.5932392682132344 13.065536001323716 256.81848379898923 68.30947455631411 0.4323795552971156
1.6146674860550898 13.054237605245984 234.73917856660822 71.03184012306536 0.4390504401033382
1.6358390681236683 13.041914155406504 214.7476325789932 73.87208555865116 0.44591345759753015
1.6567494619407797 13.028571830563028 196.6253013911565 76.83225728744586 0.4529555260382443
1.6773388749477534 13.013868158532306 180.15519010213214 79.9214542082049 0.46019234952385757
1.6976351268431684 12.998070713046232 165.1967020048387 83.14784281577371 0.46765013564341873
1.7175959165329657 12.981113457740552 151.60649215991947 86.5184814653454 0.4753395280595565
1.7372190454379568 12.962894116773981 139.23279551185576 90.04088508448199 0.4832654131875074
1.7565039054080573 12.943697081072198 127.98813919506561 93.72310026239813 0.49143536904532764
1.77530616781085 12.922775129747965 117.74551698545682 97.57377565124911 0.49986830525293297
1.7937758335483416 12.900942426996787 108.41077963372634 101.60214007592927 0.5085803208842398
1.8117885225210226 12.877632575274406 99.89831614288485 105.81806546938988 0.5175787644505074
1.8293490794605423 12.853068684014973 92.13845347509965 110.23215393045179 0.5268762005846805
1.846452955944871 12.827291033126862 85.05830328360553 114.85580232297193 0.5364961406477564
1.8630243550562888 12.799824014366935 78.57909296583202 119.70124101937391 0.5464583970916966
1.8791335307357653 12.771230589410091 72.66331083878814 124.7806512264408 0.5567678842866295
1.8946951290600897 12.741139717278184 67.24848402476995 130.10253111165696 0.5674276494394187
1.9097064525118885 12.709751037403343 62.30081532795516 135.68726336057662 0.5784862386030413
1.9241411736323826 12.676818955412163 57.76577319831561 141.55114852779653 0.5899622855837815
1.9379809417666691 12.642429795390596 53.61144066783676 147.71175540832212 0.6018737787154026
1.951231947555194 12.606618249311863 49.800468260977716 154.18800116638252 0.6142561050934611
1.9638654263913926 12.56941660447942 46.309482612694886 161.0003344430802 0.6271412961702252
1.9758295285223888 12.53052582858848 43.10049658469168 168.1566115793515 0.640497224513504
1.9871323731371175 12.490334756714164 40.15960662508742 175.69161944093315 0.6544066791938578
1.997780395707874 12.448619190359347 37.45405386530412 183.6325441433662 0.6689143732686411
2.00770841865656 12.405366144103857 34.96659063016044 192.00333690300093 0.6840314564393852
2.016928226070874 12.36060186867974 32.67726007446512 200.81984072672384 0.699762807780699
2.0254380194359793 12.314355891237451 30.573498830000815 210.13073223580503 0.7162118628554182
2.0331887124987604 12.266547077330829 28.634448922757336 219.96257944641005 0.7333813992762094
2.0401903132775137 12.217274541894003 26.849364097647513 230.34410099877294 0.7513064582697696
2.0464188026045638 12.166515536309836 25.2045448526911 241.33288282285642 0.7700984586997776
2.051873303440053 12.114312893255166 23.689042254098553 252.94434158304725 0.789702501922661
2.0565286412258086 12.060533831634464 22.2891901598152 265.25424260132695 0.8102918150291645
2.060361994713491 12.005209505245361 20.9992439661759 278.2847509875804 0.8318276396700933
2.0633878941504578 11.9485068446777 19.80791525154555 292.11653168498725 0.8544553312083243
2.065580124249367 11.890378954260092 18.71060064034727 306.7865794149687 0.8781854610818597
2.066945708212296 11.830757760748963 17.66301483958573 322.37479850608736 0.903125492406063
2.06745972534434 11.76979345008214 16.759781205552343 338.9534575017201 0.9293789333857092
