M[M_sun], R[km], Lambda[1], P_c[MeV/fm^3], rho_c[fm^-3]
0.23841724892012095 16.20908015294055 2780876.1263280716 3.453507347168396 0.169602847481901
0.24842312275681705 15.865996410415823 2281908.52471462 3.6357151467351914 0.17198058510507794
0.258713407927073 15.562408603167386 1881030.3374385766 3.82510889470808 0.1743791034187827
0.2692864956907959 15.293058968958318 1557447.9746610294 4.02081765815534 0.1767732288110246
0.2801499696506456 15.05317695625239 1294759.8194379145 4.223132254725101 0.17915398791688922
0.29129206744217684 14.839056073582045 1080379.2168419643 4.433435636143355 0.18155854741761998
0.3027226612707345 14.647567301380743 904754.0673268591 4.652075902221072 0.18399073065106086
0.31443531175252126 14.476108508021085 760264.2710721235 4.879420694236625 0.18645218158886942
0.32643335614950925 14.32226293875902 640864.8537512678 5.112854253821471 0.18888458487791165
0.3387163539010487 14.183979882127607 541799.7795123628 5.355439972066094 0.1913374014787705
0.3512804291558783 14.05967077250946 459393.3850478943 5.607735405073489 0.1938202412867554
0.36412804825250733 13.947827300620677 390560.8183839447 5.8701539106135625 0.19633862138429783
0.37726639766626535 13.847196913571434 332858.79464910174 6.139716739913731 0.19883482003626035
0.39068599252997444 13.75660990139371 284408.3875891302 6.41960475656011 0.20135899205417548
0.40438701195329196 13.67513038336865 243557.82621015722 6.7107455137427126 0.20391762516730316
0.4183740153554827 13.601664979762441 209017.88306224326 7.013415967673235 0.2065053121751477
0.43264974620587926 13.535755200277764 179779.2419515926 7.3238939651599 0.20906680148474494
0.4472022941655554 13.476420431605346 154932.45845442294 7.646932614048026 0.21167272407376872
0.46204567612823794 13.423219069914367 132279.13252430753 7.9830664724412985 0.21432304254975162
0.4771718573104266 13.375629714153334 115728.83976213515 8.330621555609543 0.21698401270030096
0.49257509609803907 13.332948195604285 100293.27367683129 8.689050555278447 0.21963855190187545
0.5082626526824742 13.294897037707754 87057.41428978441 9.06210180269773 0.22234138557575486
0.5242307463139073 13.261048370536926 75703.30678719142 9.450382181400014 0.22509518278616078
0.5404815995242366 13.231026528619033 65926.25151569108 9.84882782633358 0.22782745408711402
0.5570052558206735 13.204623597867595 57507.53795149792 10.262922008759837 0.23060181000658272
0.5738102769600866 13.181316689934174 50231.828102094725 10.693967125557835 0.2334266954743318
0.5908962884203732 13.160946128887987 43940.83837524343 11.139413012654153 0.23626081364787435
0.6082434172913953 13.143323012309354 38493.4413702312 11.599238357174782 0.23910757788215845
0.625867409841037 13.128098068613106 33761.99162508955 12.077941065664684 0.2420137019263229
0.6437618289254708 13.115092859087863 29655.988874363098 12.575721810476313 0.24497352986258214
0.6619192752646 13.104160135060631 26080.22033137269 13.086531068745222 0.24790664792941255
0.6803428853798703 13.095150965355261 22787.38844220473 13.618335183755914 0.2508984011029637
0.6990088197793392 13.087696848195852 20243.64332148297 14.172043371345575 0.25395080207488047
0.7179531103980051 13.081880978510695 17866.10597326783 14.742277473402094 0.2570057840912462
0.737144236000582 13.077426289013172 15785.242246913314 15.333399747499177 0.2601028875258567
0.7565676979809812 13.074148706296207 13961.953974024367 15.948825494878792 0.26326567211223717
0.7762390776251241 13.071957074628289 12362.996864405985 16.5863827834499 0.26646081175558367
0.7961409345670482 13.070856375548772 10958.679534685247 17.243738941050154 0.269662457322478
0.8162950469583493 13.070771422536398 9724.095378259803 17.924207864519687 0.27290110828208464
0.8366586264497318 13.071311191870878 8581.870860890476 18.627574823324665 0.2761681757354913
0.8572638512666457 13.072690282486489 7678.392629107841 19.374822700520095 0.27963906555857904
0.862765218490506 13.064517244532663 7401.498412851164 20.429897026473995 1.3868002137761708
0.8515845828863357 13.037708039508006 7750.330471639021 22.484532455812822 2.321022306921397
0.8361920247660524 13.00314269545748 8278.232650754522 25.16102710528353 3.239028835386344
0.8178326151964502 12.961075205718478 8964.096913674128 28.71380194736076 4.043209689365399
0.7960162703864709 12.907178587953316 9849.323248813302 32.8678876788782 4.304941158180373
0.7717184042384153 12.838829987602068 10911.91253542586 37.28021059650585 4.415578224480589
0.7457810130699495 12.754650091444718 12129.878218736963 41.94838448593761 4.447455102474541
0.7194464882836246 12.65513319797826 13439.95868868796 46.78605699114622 4.4672195289260355
0.6934676705858115 12.54063815722369 14782.737598223723 51.61988160673555 4.486337235865316
0.6683742628245455 12.410954637894205 16082.046716153092 56.66415532922397 4.506237745664358
0.6445480506766684 12.26592130524794 17260.183676154295 61.9061241157631 4.52688529128983
0.6222648953994651 12.105313131771434 18225.121723569406 67.3018981614383 4.548093361867716
0.6018089532184134 11.929295375995656 18885.254466895032 72.76783462381499 4.569532460296863
0.5833542629325549 11.73824534416719 19173.662204860488 78.44777643997112 4.591776720696844
0.5670429149004468 11.532976628727605 19038.068925766132 84.33774015399831 4.614806364463784
0.5529843856746086 11.315078887295535 18465.377417608095 90.42032334939086 4.6385472418517555
0.5412686586740862 11.08678062199393 17493.754149223358 96.59637933956142 4.662595460948928
0.5318758569134198 10.85043281698241 16188.648765850507 103.00122949873654 4.68749054365617
0.5247843567820917 10.609127521259976 14650.124319950777 109.6359812110078 4.713232060118127
0.5199406837515543 10.366193855158649 12983.162221807683 116.50285477846218 4.739823710284967
0.5172367102835401 10.124633070964144 11295.341519377966 123.53712209657932 4.766998944158753
0.5165388391079875 9.887545836250345 9669.659884521352 130.77857664715282 4.794911761033005
0.5177305212113845 9.657216395857512 8166.584105370236 138.27689175118564 4.823756041717724
0.5206401061735808 9.435897961515236 6825.279383485237 146.03742263762473 4.853546731457283
0.5251366550362739 9.225137758781882 5658.905195641381 154.06622072984737 4.884301158945147
0.5310449860096269 9.02582479324209 4666.580441476336 162.33589789811452 4.915901256210835
0.5382477556602646 8.838758924653465 3835.2295636756367 170.8449763111767 4.9483328082535385
0.5465919723338575 8.663809070691583 3148.0673616399226 179.6545085249039 4.981833609877315
0.5559521457873213 8.501190540424236 2582.8454536601357 188.77348621637023 5.016430948190342
0.5662147820357825 8.350236702526018 2125.7343624165333 198.21172837057156 5.05215487114436
0.5772613234929497 8.210527455316246 1752.2178111726312 207.98004211597626 5.08903879949317
0.589005442973427 8.081531012074247 1449.2037378241482 218.09019540752675 5.127119103459078
0.6013417976102786 7.962587358766738 1203.4206155102054 228.53487475919428 5.166351335290001
0.6142128340561788 7.852684125796456 1003.3353546924194 239.32488990753927 5.206757971140262
0.6275272588975038 7.751452506330109 840.381927643883 250.50460770786378 5.248515183087389
0.6412124554166716 7.658033324888845 706.9961397709129 262.0895903067822 5.291672386914519
0.6552203628653779 7.57172381032381 597.4669769738953 274.0966085256515 5.3362823434749
0.6694830495007141 7.492020969949294 505.91604360573575 286.5434880593404 5.382388099185881
0.6839711262495279 7.418162441357207 432.519884954466 299.449915030263 5.430053728003983
0.6986121595650139 7.34979344883077 370.44297403817507 312.83657975449466 5.479352988037268
0.7133786542410354 7.28627885195304 317.76827993530424 326.7255829821704 5.530347886149529
0.7282231973523582 7.227206179658845 274.9683917950375 341.1408564057627 5.583106869520658
0.7431014475740878 7.1721359322631955 238.33486900292434 356.10797260616175 5.637718697607188
0.7579890423555162 7.120641155596406 207.3097940035499 371.6540529297296 5.694260278714255
0.7728529615053479 7.072393370211528 180.94974650124635 387.8085690921581 5.7528203644897955
0.7876575688095827 7.027086394671972 158.48005546884858 404.60264966072873 5.813503062870097
0.8023683782071294 6.984447307523542 139.26061154940322 422.0697784801961 5.876400492764353
0.8169718526649978 6.944152913376182 122.74349345181304 440.2461103434421 5.941637269270825
0.8314371277321175 6.905921118861539 108.34265749683574 459.16977058301865 6.009307810100118
0.8457466679448669 6.86955702441517 96.1734079414413 478.8588144654196 6.079472167244783
0.8598470301869285 6.834888758423528 85.4969646455041 499.3510700701194 6.152204070240641
0.8737694945019024 6.801665204850182 76.19813197917205 520.7171869376187 6.2277729635398495
0.8874317314569575 6.769778418769204 68.09699685530958 543.0082120243476 6.306315719071349
0.9008471854928867 6.7390019971858095 60.989460673778666 566.2782335816089 6.388002229758922
0.9140019854629127 6.709229393614941 54.753483070168464 590.5706841616053 6.472948316560965
0.9268618902917893 6.6803302385682715 49.22047120885602 615.8946668526935 6.56111589737979
0.9394025034384375 6.652102444141538 44.447296334049845 642.3795312260224 6.652966713418535
0.9516216675619726 6.6245710885646085 40.177203321446065 670.0974644374589 6.7487126258748695
0.9635004580188533 6.597513224307706 36.39686027911238 699.0521521487618 6.848279308880165
0.9750313223934979 6.570852405662988 33.035620822108996 729.3661850140269 6.9520778848446545
0.9861690615402593 6.544551683757387 30.051385993399936 761.1574758636883 7.0604861723480346
0.9969499895900589 6.518414917650887 27.386253034789405 794.4023074330589 7.1732909233436155
1.0073039594320758 6.492495256318385 24.988769740226605 829.3176191154313 7.29126012656983
1.0172447348212044 6.46665381287948 22.879778156628213 865.92097742689 7.414333394879241
1.0267620000079227 6.440803027788168 20.97671397304833 904.3838312623309 7.543069728892866
1.0358343014317632 6.414946746048422 19.265587242739656 944.7689047008896 7.677548103277431
1.0444471458384401 6.389004965220786 17.729593164798548 987.2757718310589 7.81844625246381
1.052604609246903 6.362871197300757 16.342905014467778 1031.9473996329398 7.965708435427592
1.0602940816519908 6.336589843333791 15.091390359374582 1079.0259697053841 8.120138026820559
1.0674864516132132 6.310057517819546 13.965836272215464 1128.641385597949 8.28204039580174
1.074188892831385 6.283206837482771 12.944261865434967 1180.9415743700672 8.451751205006344
1.0803892566363285 6.2560724812605 12.021658463710734 1236.1660576869172 8.629992098058608
1.0860668129113555 6.228627893847725 11.18500562237911 1294.5179510063504 8.817279509968646
1.091229998600518 6.200751790823655 10.422788210752655 1356.220621963594 9.01418682198075
1.0958708564384796 6.17247413657765 9.733275076688535 1421.5004285901525 9.22125465888732
1.0999699114177186 6.143707696047218 9.102980000746209 1490.6530752380818 9.439292391601349
1.103524000879292 6.114537110414189 8.526503388715437 1563.9803546755588 9.669079233801389
1.1065427468950952 6.08496794911746 8.012358467359926 1641.809173726045 9.911444825344223
1.108999728230096 6.0548726345320425 7.535570758067859 1724.4993037415402 10.167295231756134
1.1109017653743023 6.024253605803737 7.10338973257221 1812.4462453708632 10.43761367150922
1.1122525592644061 5.993202247454899 6.708790229563543 1906.060087680013 10.723355755932861
1.1130314913891677 5.961561286426041 6.347482753491728 2005.8436081644707 11.025830938677847
1.1132426444611718 5.929456169925279 6.0154088587155545 2112.329631637644 11.3463451635614
