M[M_sun], R[km], Lambda[1], P_c[MeV/fm^3], rho_c[fm^-3]
0.23841724892012095 16.20908015294055 2780876.1263280716 3.453507347168396 0.169602847481901
0.24841587753329605 15.866199544129561 2282110.5826065363 3.635567809709577 0.17197871092238887
0.2586958999884307 15.56299436364723 1881757.7261757376 3.824805813548981 0.17437539579585296
0.269261970818069 15.293631248888097 1558102.3128903045 4.020329353907483 0.17676725533503743
0.28011434446550165 15.053930034129989 1295540.7522256682 4.222463554719586 0.17914616850778922
0.2912447797452957 14.839864484499909 1081241.8262429459 4.432577311854704 0.18154888953570933
0.3026683685831267 14.64836209409874 905509.8424017798 4.6510182389776995 0.18397927560432564
0.3143688789900282 14.47701510801949 761032.9633881373 4.878153581556238 0.18643897813578905
0.3263563449809211 14.323168597707312 641567.0134401557 5.11130375384165 0.18886842849809513
0.33862643545522814 14.184886515586527 542438.267508131 5.353650715444962 0.191319548075782
0.351178240537291 14.060621714468697 459986.3940168386 5.60569617112827 0.19380064211899517
0.3640133238555596 13.948847030039206 391130.4916929097 5.8678526596666645 0.19631731140054975
0.3771383700609979 13.848168009646258 333365.10063873854 6.137033740883721 0.19880997499891112
0.3905435303001376 13.757497261088064 284863.1934448101 6.416625118707138 0.20133243477197232
0.40423014774048105 13.675938797193385 243966.3917431464 6.707455876572803 0.20388950034952014
0.4182045750145087 13.602510704817051 209409.23079077408 7.0096520609522175 0.20647313258049538
0.4324639797907812 13.536538960075362 180118.56002243535 7.319781030568963 0.20903289726411214
0.4470027317098812 13.477177867932388 155240.37265039116 7.64245453627669 0.21163712107038232
0.46182920315309783 13.423911282246845 134057.70797577524 7.9782065067781796 0.21428583341603857
0.4769360839286613 13.376180452880769 115980.30929569731 8.325151516145711 0.21694213268633913
0.4923258944923664 13.333585356699043 100524.56279508729 8.683152394756458 0.2195951579934415
0.5079925600407051 13.295486115635821 87268.23934654365 9.055756371867952 0.22229632254332934
0.5239454336841606 13.261618671001234 75886.46578337533 9.443568565904027 0.2250484596099581
0.540179695486856 13.231574121045364 66092.77517690894 9.841242292434911 0.22777543761551425
0.5566848113188277 13.205100177752223 57658.8343788018 10.254812120906225 0.2305482181850232
0.573472451744868 13.181735871060466 50368.50140938559 10.68530953876203 0.233371612186355
0.590537490219835 13.161489170128934 44065.68677800521 11.12982957053029 0.23619983967039443
0.607862830940328 13.143670858705823 38604.56754770518 11.589042554081244 0.2390448786559056
0.6254693279926249 13.128430201029685 33864.48923676369 12.067103792827893 0.24194926298763447
0.643342690525196 13.115462499939486 29745.47075103927 12.563780073064251 0.24490252372510476
0.6614764488370922 13.104482083921795 26163.766033673524 13.073872316038386 0.24783404111207813
0.6798779388095193 13.095255154817883 23034.10254843908 13.604926758816758 0.2508241949098108
0.6985250290859792 13.087741194038966 20307.2993344248 14.157849703363649 0.25387476067315673
0.7174441114012715 13.081902804701237 17924.305995093033 14.726719324951267 0.2569224325983176
0.7366136594843402 13.077456232288823 15838.046073672982 15.316962709051525 0.2600176038329673
0.7560187305590216 13.07418101324356 14009.783217861248 15.931467342718694 0.2631786811529992
0.7756626219313291 13.072034652158557 12406.287168667166 16.56741014385334 0.2663657297386409
0.795554319517921 13.070918555099272 10998.056883205787 17.223737515801933 0.2695655085265073
0.8156808440288454 13.070721819519662 9759.026962318145 17.907120092418076 0.2728372360387819
0.8360211712272271 13.071372235023514 8670.248840231703 18.618367421525953 0.27618057346133457
0.8565798282673728 13.072588139866326 7707.71046108514 19.348715525847897 0.2795125692280216
0.8773653740903318 13.074499042892946 6859.960212714989 20.109105258205666 0.2829153680864664
0.8983424070296082 13.076810817746617 6110.957767226977 20.90078811050091 0.286390801691822
0.9195278861354419 13.079742111546494 5449.165987817461 21.718558973095 0.2898899170977549
0.9408996301959127 13.082887322724847 4863.369299078998 22.56532013019556 0.29343488349696545
0.9624447981847521 13.086285029381386 4344.242596285493 23.44690404742861 0.2970632714303442
0.9841826430682743 13.090030141868795 3884.082167634664 24.363980590469517 0.30077084505581414
1.006074768460461 13.093793063873418 3475.555293707155 25.307687483474496 0.3044716877014747
1.028124792592764 13.097629888122132 3112.7981393275572 26.290249318081248 0.308259091340306
1.050333741863145 13.101625482432391 2790.3772088812475 27.31316678568735 0.31213491416257755
1.072644540973826 13.10534060810078 2503.4042691102786 28.373012028416987 0.3160680312469135
1.0951095833882274 13.10903799829886 2247.6873343963193 29.469324022374742 0.32004825532123854
1.1176656826130047 13.112499863789308 2019.7638553600661 30.61066363588159 0.3241175265110579
1.1403422899008047 13.115801347810516 1816.452603756159 31.798883696567074 0.32827679082825184
1.1631054524711453 13.118870737253287 1634.9673633275022 33.02866488083908 0.3324890366735052
1.185947495121981 13.121538122249216 1472.6896763995185 34.30391049502329 0.33677320615735007
1.2088528616621184 13.123873324263165 1327.6018150072114 35.63166268374167 0.3411631002874021
1.231814038486219 13.125815416522245 1197.7958650560777 37.013942308101996 0.34565755261063574
1.2548110598918 13.127243090822123 1081.4638506403119 38.44738896019487 0.35021535804193776
1.2778338926869426 13.128209581516684 977.2495215142292 39.93350216011614 0.3548499790904853
1.3008408575244284 13.128505561093817 883.7524541433316 41.4810866982583 0.35960183053001077
1.3238817462097061 13.128437919549775 799.8496389994747 43.0926036053908 0.3644730656275269
1.3468744711154232 13.127437078995191 724.3573490624561 44.770643766023056 0.36946547009249675
1.3698332256428163 13.12587203063279 656.5201665578146 46.507859097450925 0.37451411523420153
1.3927594081912271 13.123700043570437 595.5538575943497 48.316409808182414 0.37968907931922186
1.4155837515201062 13.120587740981536 540.5973016902062 50.20044254139549 0.3849994780349612
1.4383436444198705 13.116826522412648 491.1308949673663 52.163153274433 0.3904481148796203
1.4609987362441479 13.112264071884923 446.55130961217014 54.20792947182063 0.39603647562452365
1.4835375692580743 13.10677658763302 406.26967326011084 56.33370117116657 0.4017363165276877
1.505916220475412 13.100347797132388 369.946907846407 58.544357726257736 0.4075678597802765
1.5281621576380837 13.093082641753476 337.1130692563427 60.84894732474359 0.4135602382724826
1.5502265213928217 13.084898611922775 307.4536785959624 63.25172772308111 0.41971652221389877
1.5720780827640608 13.075511613825473 280.5782194654899 65.75722090464774 0.4260374848792088
1.5937358919393048 13.065284791620526 256.27428853656767 68.37029852975414 0.4325289035796614
1.6151677690822923 13.053977587135853 234.25024821438674 71.09602473557155 0.43920559696716804
1.6363411714987017 13.0416247060802 214.29603572417017 73.93984698168843 0.4460746579002109
1.6572350725716842 13.028162069683319 196.21343626577894 76.90523307537761 0.4531291309977578
1.677840858759886 13.013453430339323 179.76644303379638 79.99852260393821 0.46037270279806375
1.698131403303544 12.997614888842307 164.83400382030914 83.22927146973583 0.46783798299896995
1.7180836172607834 12.9805756505837 151.2731174149029 86.60455964355508 0.4755353538728526
1.7376901515378012 12.962363207216741 138.93963574442512 90.13192218334612 0.48346953866281733
1.7569619437599588 12.943055853876032 127.71386609584164 93.81942707315926 0.4916482551258312
1.775816482988956 12.92233748068614 117.49185209037203 97.67574911344464 0.5000908056699219
1.7942433971115197 12.9002645874666 108.17800134244953 101.71014587615792 0.508813066047617
1.8122477118969877 12.876978455467883 99.68058458899105 105.93251724165167 0.5178221739954263
1.8298292643904939 12.852549298492782 91.94575410297067 110.35349579592554 0.527130990236669
1.8469004852381072 12.826538760054262 84.87782955039626 114.98451450118823 0.5367633220484699
1.8634947966852313 12.799174823414731 78.41159565100133 119.83784284469166 0.5467388007393972
1.8795681130679927 12.770431861174709 72.50480497059229 124.92365526717423 0.5570546562571862
1.8951268920364621 12.740390060742921 67.11021994317332 130.25450889125722 0.5677292767271174
1.910118926628566 12.708795799244248 62.16850993399654 135.8488634213714 0.5788037359405598
1.924544770574427 12.675876966000423 57.64518676208642 141.72307031730202 0.5902963563830679
1.9383787393242309 12.641362501271322 53.4952603178488 147.89475510943274 0.602225793125845
1.9516101199210165 12.605564859739815 49.69455303722049 154.382899703991 0.6146274957112535
1.964217828540444 12.568206133362915 46.20880093677592 161.20709894149218 0.6275301743915646
1.976177435309619 12.52942508053948 43.01096635555441 168.37554273725644 0.6409026767104943
1.987467473424859 12.489100133809378 40.07240869021092 175.92523564278318 0.6548356131881576
1.9980950153862946 12.44733184852416 37.37504584125071 183.88197602068 0.6693684918361322
2.0080100437304327 12.404010705529 34.8907059878397 192.2671361830122 0.6845032627739397
2.017212501001027 12.359132095344407 32.608723199889575 201.10188591026875 0.7002632452623168
2.0257054396379077 12.312981111064536 30.51198864160863 210.432470183028 0.7167430701262524
2.033433117445028 12.265054307632187 28.574512060894214 220.28269512002083 0.733935725301167
2.0404047383293937 12.21564260170631 26.793405097056393 230.68704845178564 0.7518959308644191
2.0466249987855196 12.164966878234326 25.153927796634697 241.69803407032583 0.7707171836228615
2.05204572640401 12.112525349044258 23.640276883768433 253.33556107692115 0.7903598057225978
2.0566475547872507 12.058670567526017 22.245889289865485 265.6730536261844 0.81098871871837
2.060474726822987 12.003385928122016 20.957651384769886 278.7326634370786 0.832563995119269
2.0634703738415006 11.946617447846663 19.770946169146587 292.5948414128617 0.8552312855776683
2.0656395374359757 11.888411159996917 18.676288206189998 307.30126706318123 0.8790147748453865
2.06697776097738 11.828718270976687 17.662671273514725 322.9255707449283 0.904000952493614
2.067465655151737 11.767653660185156 16.728282786667585 339.54408075976545 0.9303065969233546
