M[M_sun], R[km], Lambda[1], P_c[MeV/fm^3], rho_c[fm^-3]
0.23841724892012095 16.20908015294055 2780876.1263280716 3.453507347168396 0.169602847481901
0.2484179801792367 15.866144709918334 2282107.9204428233 3.635606843707989 0.17197920744961143
0.258698575528724 15.562897500392747 1881587.9705905144 3.8248861071867393 0.1743763780361656
0.2692688423045733 15.293442181322778 1557956.227432673 4.020458714855922 0.17676883782079822
0.28012531150273123 15.053649462804021 1295232.6049851004 4.222640702353877 0.17914823997453394
0.2912588175652701 14.839679437072299 1080955.4060264928 4.432804689117991 0.18155144798918318
0.3026833540544602 14.648191372959491 905320.2330535551 4.651298417530607 0.18398231008475965
0.3143880205560828 14.476745419195245 760798.79546992 4.8784892378406965 0.18644247571108097
0.32637630616551155 14.322957463744993 641362.0162112548 5.111714469807508 0.1888727082034982
0.3386497103214246 14.18470469039638 542303.4995177631 5.354124667881368 0.19132427722628204
0.3512068068825344 14.060445852417569 459862.56701163785 5.606236330222997 0.19380583361197695
0.36404344792775056 13.948607364065793 390984.855935174 5.86846221245337 0.19632295596530086
0.37717363576721025 13.847919382834597 333240.5364823918 6.137744394396997 0.19881655577396257
0.3905808472951732 13.757317755712354 284733.0633636447 6.41741433086945 0.20133946895906046
0.4042727775554727 13.675736090295642 243858.87966492787 6.708327183880918 0.2038969496085138
0.4182495244161257 13.602351135394349 209311.70098992044 7.010648961921846 0.20648165560497206
0.43251112634547756 13.536283275684019 180027.01292371616 7.320870357455628 0.20904187693016085
0.4470544841996128 13.476959736735326 155158.09200231405 7.643640554728433 0.21164655052228332
0.46188475379467486 13.423674239540418 133984.70723030617 7.979493649021478 0.21429568810456076
0.4769977929855024 13.376000895878077 115904.1368646303 8.326600199242947 0.2169532241727424
0.49239127216755335 13.333369445243884 100459.18579027762 8.68471443856154 0.21960665025201856
0.5080644147240794 13.295291698726562 87213.87815125832 9.05743684489483 0.222308256675547
0.524018267668674 13.261421913749896 75838.95807146627 9.445373003913591 0.22506083322791723
0.5402568417602424 13.231479633350801 66052.22373282119 9.843251107089314 0.22778921271055907
0.556772994733387 13.204999630367519 57617.65229193963 10.256959766407759 0.2305624102720864
0.5735645831793089 13.181722108487131 50333.57938423284 10.68760219393611 0.23338619904388977
0.5906304644962671 13.161262095382599 44032.60046623417 11.1323673421342 0.23621598606399977
0.6079659518376354 13.143582396789267 38572.917056552906 11.591742447958858 0.23906148168908878
0.625575690009795 13.128313617573035 33836.59916888162 12.069973513151199 0.2419663264808907
0.6434606136116239 13.115486427884377 29723.095049232707 12.566942175652711 0.24492132573718778
0.6615938584225373 13.104339872709865 26139.143333965505 13.077224236874422 0.24785326672691538
0.6799979816957757 13.095213086934699 23015.90971442162 13.608477140735282 0.250843843774432
0.6986542275489374 13.08771106480064 20290.959552984503 14.161607960355596 0.25389489522400505
0.7175772855118043 13.081857317483848 17908.44261119075 14.730838766767993 0.2569445021669775
0.7367508889081443 13.077379196993979 15823.21716197013 15.321314806447315 0.2600401847217879
0.7561650148922244 13.074131042097935 13996.88368468748 15.936063269885356 0.26320171379547913
0.7758177379341687 13.071990738686669 12395.15757177813 16.57243340507389 0.26639090398000304
0.7957076716716459 13.070960684196145 10988.32184067404 17.2290330967898 0.2695911767073678
0.815838108076808 13.070699780180961 9749.98469791543 17.91270146585467 0.2728634722212126
0.8361924047821446 13.071321916792517 8660.105596914364 18.624453217180246 0.27620918076504497
0.8567530176672313 13.072595074882218 7700.416485403095 19.35512153478048 0.2795417866339538
0.877546332633604 13.074521271272284 6852.949754682654 20.115847420624515 0.28294511858738713
0.898529389105421 13.076846747387885 6104.803029970991 20.907883109360018 0.2864211600977626
0.9197227048776926 13.079763618296912 5443.649604476674 21.7262719027056 0.28992291953408494
0.9410965825300771 13.082905816446672 4858.009963396316 22.573428648261295 0.2934685990095592
0.9626538049415629 13.086350356245939 4339.640564248015 23.455429168554144 0.2970977369441324
0.9843961064418566 13.090112972606137 3880.025836643463 24.373233711811423 0.3008082537420365
1.00629832395422 13.09380045347823 3471.660424529304 25.31740781699626 0.30450978077034235
1.0283491891311338 13.097677325968922 3109.3280121185726 26.300461125874957 0.30829800284667436
1.0505548696467482 13.101563972774954 2787.1380830009907 27.323896704201523 0.3121747332079628
1.0728833583084387 13.105333582545942 2500.3953882110713 28.38463409879258 0.31611116109427867
1.0953449163663935 13.109030336404281 2245.066913242909 29.481529284615064 0.3200923925766584
1.1179318355062635 13.112576253348623 2017.3304972565031 30.62348353763094 0.3241625624831542
1.140600596479811 13.115854558695252 1814.1891280958373 31.812351586135527 0.3283229210362958
1.1633745963802995 13.11889757429678 1632.9405822332571 33.04322874058921 0.33253892079802094
1.186216436954656 13.121573664174221 1470.8659747946208 34.3192051308795 0.33682434386468973
1.209123455096464 13.123890952301801 1325.948382848668 35.647729924134104 0.34121556972238665
1.2320913586746816 13.125830826863456 1196.3192388828188 37.03082540203432 0.34571123431348083
1.255095188823552 13.127295755149794 1080.147491852845 38.465623161537984 0.3502733357433023
1.2781184750979626 13.128160675884216 975.9620492545953 39.95265739497178 0.35490952534317416
1.3011369036022054 13.128474900553691 882.5703956222742 41.5012170091001 0.35966305618278555
1.3241715891005508 13.128273635126375 798.7143911946008 43.11376657153382 0.36453606645502995
1.3471795523352752 13.127444611748398 723.4483761837697 44.79289935136785 0.36953014863337424
1.3701387772391236 13.125838616235397 655.6778942444315 46.53186406654701 0.3745838777837319
1.3930618303371733 13.123601867298348 594.7605373847115 48.34165257103865 0.3797609762269302
1.4159035991162296 13.120580994535658 539.8993063584679 50.22699813534192 0.385073645335549
1.4386657572514152 13.116758686040782 490.46977486251177 52.1911015380113 0.39052466211256587
1.4613210167055308 13.112143448265282 445.9319147234888 54.237354252406 0.39611537241668565
1.4838634388960177 13.106668428444184 405.7206887391925 56.365413877501716 0.40182134794511354
1.5062468317866156 13.100246787385949 369.44220826639247 58.577749449192574 0.4076557946310178
1.5284926317081153 13.09297120173324 336.6582930525958 60.88412305355588 0.4136512619748877
1.5505471405755176 13.084673279224385 307.0007852572198 63.28879928256231 0.4198107682792647
1.5724138888675785 13.075374505562383 280.1864866778163 65.7963065595037 0.4261350107729108
1.594071235193388 13.065108638045064 255.90905117242113 68.41152533848653 0.43263013263016237
1.615489250877382 13.053786972972278 233.93266639213886 71.13953013135904 0.4393107648649942
1.6366601476051372 13.04132198611923 213.99514099297767 73.98577758677364 0.4461839240152093
1.6575634516505329 13.027859370536472 195.92040872686874 76.95469975371836 0.45324680921589017
1.6781798462220983 13.013192529716823 179.51649942504028 80.0507643905161 0.46049495754555203
1.6984637741358328 12.997315764880806 164.59798536721755 83.28446992135052 0.46796532003159685
1.7184298133988778 12.980318819567115 151.04920999681215 86.6629109856864 0.4756681017918659
1.7380299922047038 12.962121121784453 138.74070315360916 90.19363630342991 0.4836079154811982
1.7572865574898733 12.942643406286255 127.52705285104943 93.88472837925066 0.49179257360783757
1.7761589937502804 12.922131766866004 117.32802668209587 97.74487976029141 0.5002416448923918
1.794582422987101 12.900000270256509 108.02027710151317 101.78336752972525 0.5089708537375947
1.812575146977162 12.876564810719715 99.54004043644254 106.01011053779749 0.5179871950215788
1.83012529155171 12.851924433069586 91.80887502300926 110.43576206496891 0.5273037302384657
1.8472212539449693 12.826068563717959 84.74688384311037 115.07177957697384 0.5369444673410512
1.8637937021816635 12.798615001451216 78.29523918149773 119.93045911337155 0.5469289148869486
1.879862928863334 12.769821868260854 72.3987295475056 125.02061319482927 0.5572490900356455
1.8953950481008632 12.739683125113817 67.00961810034856 130.3575535820901 0.5679337874831597
1.910396157775188 12.708205905644665 62.07850419182662 135.95843497624924 0.5790190123257938
1.9248216765108959 12.675151756408335 57.55542807338604 141.83964339917125 0.5905228760275373
1.9386534223360066 12.64071939020013 53.41396661180158 148.01884290296599 0.6024644858188856
1.9518813707090754 12.604924194464564 49.62404766758503 154.51505935320267 0.6148793336899795
1.9644667564116698 12.567445427474814 46.14116484867098 161.34630456532992 0.6277903391199463
1.9764291589734868 12.528715553847622 42.950586674486296 168.52400518168463 0.6411776235240954
1.987693140405252 12.488279151252744 40.016119852299546 176.08366094941238 0.6551264919843733
1.998321957577217 12.446533935056397 37.32056620819247 184.05113164293473 0.6696764585230235
2.0082185944074005 12.403186951572772 34.84351190597274 192.44603861214094 0.6848232306651579
2.0173999697117297 12.358170880579657 32.56300686207983 201.29316826017782 0.7006026407317351
2.025873108128307 12.311912171092931 30.467879776982517 210.63711467749997 0.7171033451410465
2.033585430276559 12.264056278946159 28.53659746883758 220.4998084997476 0.7343116881379489
2.040544753054443 12.214546885295206 26.755437565126968 230.91965497897831 0.7522957448065032
2.046733101576698 12.16373352170645 25.119719824585754 241.94536846291587 0.7711356894073591
2.0521518441186575 12.111421768038193 23.608923850674483 253.60092432351223 0.7908056533173092
2.05674408706391 12.057470150422597 22.214999941150094 265.95583250347187 0.8114572089209079
2.060551085898743 12.002077120767584 20.92948297530376 279.0365008370453 0.8330634952456433
2.063527328474396 11.945335641127803 19.745944303958158 292.9193079465048 0.8557576625460087
2.06567844298936 11.887024358931171 18.651049114620736 307.65042471181926 0.8795773709066321
2.0669962093454357 11.827294753822533 17.639956919838106 323.2992194930235 0.9045948723440574
2.067460168823985 11.76621320772254 16.7076624339212 339.9444449187492 0.9309348361493583
