M[M_sun], R[km], Lambda[1], P_c[MeV/fm^3], rho_c[fm^-3]
0.23841724892012095 16.20908015294055 2780876.1263280716 3.453507347168396 0.169602847481901
0.24841592061726844 15.866309147316747 2282139.9247389026 3.635589131578495 0.17197898214462548
0.25869926415361544 15.562787147337517 1881372.7682352203 3.8248496728695986 0.17437593233142412
0.26926580879034406 15.293467685016433 1558014.3160694565 4.0204000153342285 0.17676811974352402
0.28012119127918633 15.053719454437568 1295338.1797513908 4.222560318572373 0.17914730001092183
0.2912523133357533 14.839668489855455 1081064.7669654498 4.432701512386924 0.18155028704255993
0.30267535637807635 14.648344978197759 905435.920053381 4.651171280746286 0.18398093312681457
0.3143792287398724 14.476869071017843 760930.6748173911 4.878336926346487 0.1864408886086089
0.3263669514918176 14.323083479562884 641489.8436603089 5.111528097494222 0.1888707661835563
0.33863945918497074 14.184773845026728 542347.6514652156 5.353909599738605 0.19132213125226277
0.3511921064289031 14.060517254531884 459933.5553240509 5.6059912182696685 0.19380347783013807
0.36402984578477254 13.948704837389256 391043.2821591857 5.868185610300419 0.1963203945812884
0.37715736151239504 13.848061048386052 333312.1005992616 6.137421913420103 0.19881356954406618
0.3905641864155174 13.757371344960564 284785.892739694 6.417056200326409 0.20133627696917228
0.4042542380338019 13.675888893716062 243922.2505747801 6.707931798768603 0.20389356925570779
0.4182286724452456 13.602396267787793 209355.193608539 7.010196582355607 0.2064777879769596
0.4324883285417923 13.536371079471222 180074.33807110725 7.320376034803636 0.20903780207220082
0.4470308282061878 13.477028006463357 155196.28902828885 7.643102353065846 0.2116422715444285
0.46185814467629 13.423757945212218 134012.78027910754 7.978909556821445 0.2142912161460577
0.47696913396396173 13.37608356962962 115940.1906070409 8.32594279832756 0.21694819094406154
0.49236184287248463 13.333461924323915 100483.50320565558 8.684005593427186 0.219601435141182
0.5080332764506686 13.295460432897489 87240.4393365543 9.056674255225213 0.22230284103019032
0.5239860136403677 13.261562963157123 75861.80311194867 9.444554157339503 0.2250552181307949
0.5402249019029958 13.231524503096585 66067.70356808815 9.842339510840295 0.22778296159876774
0.5567342548876196 13.205057399616198 57637.78001397923 10.255985166351005 0.23055596991270336
0.5735241253664469 13.181821865921366 50353.2838653523 10.686561785825726 0.233379579520354
0.5905903496604671 13.161373369459236 44046.643722336376 11.131215694385064 0.2362086587860747
0.6079198469941645 13.143702040001571 38590.913462393764 11.590517225480498 0.23905394716721973
0.6255276744908036 13.128355746844429 33848.92836003235 12.068671219406435 0.2419585829804698
0.6434023412796713 13.115392170195005 29732.607449980213 12.565507190107422 0.2449127932450226
0.6615308948992936 13.104316950704133 26148.55200597494 13.075703106544227 0.24784454197854686
0.6799445127218912 13.095228314295687 23024.294175106934 13.606865943033137 0.25083492692935616
0.6985963188542283 13.0877536945778 20298.468465537702 14.15990242270068 0.2538857579471477
0.7175155698715114 13.081884166302968 17915.45616509388 14.728969309904977 0.25693448670652663
0.7366890363010646 13.07739594548219 15830.14790589792 15.319339762567392 0.2600299371923297
0.7560971642710188 13.074169247147589 14003.4690500892 15.933977567486169 0.26319126122825215
0.7757475459449542 13.072039737844348 12400.56001895051 16.5701537598904 0.2663794794620356
0.7956412172463025 13.070997081870116 10919.393992499688 17.226629862249855 0.26957952800272844
0.8157632049526553 13.070756079126841 9754.752620917736 17.91016852721037 0.2728515657180709
0.836114598363869 13.07137261237694 8664.404258644889 18.621691346752467 0.27619619812963875
0.8566736918019268 13.072579899927291 7703.984158735421 19.3522143374025 0.2795285270886095
0.8774652877835953 13.07451123832113 6856.141795252463 20.11278766155103 0.2829316170786014
0.8984423176682328 13.076840022976919 6107.6446352941375 20.904663216719374 0.2864073826737191
0.9196330601222037 13.079758809651546 5445.9373070425645 21.72277155785999 0.2899079420983073
0.941007482603651 13.08287964773392 4860.4399056592865 22.56974876538459 0.29345329792291586
0.9625631954188765 13.08629666772019 4341.723353936405 23.45156020966245 0.29708209544718894
0.9842950135784511 13.090022844695762 3881.8497065855286 24.36903434047798 0.300791276447701
1.0062008878268938 13.093838466686558 3473.491585803897 25.312996398670354 0.30449249283863544
1.0282393432921728 13.097601775309954 3110.9357155982943 26.295826648485757 0.30828034343708827
1.05045351491965 13.101537301504202 2788.506019400827 27.31902707796475 0.31215666188077845
1.0727792289003677 13.105344028015399 2501.7712303426624 28.37935955091791 0.3160915870909038
1.095244670368559 13.109023683996467 2246.058416024308 29.475990047742982 0.320072361322283
1.1178023715597816 13.11255085890458 2018.5241853885166 30.61766533806787 0.32414212330364284
1.140491372612423 13.115886967142625 1815.2982280465242 31.80623928744749 0.3283019851941453
1.1632491007567036 13.118833240904285 1633.8003806453694 33.0366190045076 0.3325162811335798
1.1860947581312016 13.12157680004294 1471.7238013289834 34.31226371764529 0.33680113520762645
1.209003838271438 13.123879490937908 1326.7082400589159 35.64043784798551 0.3411917566028941
1.2319682218766204 13.125860831721102 1196.9556173213955 37.02316303234101 0.3456868709441473
1.254964430348245 13.127274127498861 1080.7697333386627 38.45734754219892 0.3502470224774993
1.277987013638711 13.128198850186125 976.5568470568178 39.943963739451775 0.35488250011418143
1.3009992742822187 13.128476804640075 883.1211089944546 41.49208078723511 0.3596352686760761
1.3240301196338373 13.128288089361527 799.2177457520309 43.10416164764645 0.3645074731969338
1.3470407801781217 13.127437256687372 723.8604573496968 44.782798507281626 0.3695007938513271
1.3700071575419936 13.12590376187405 656.0862731118777 46.5209691828126 0.37455221538653793
1.392928135559573 13.12364313316005 595.1105948592693 48.330195868756824 0.3797283450339309
1.4157538153082352 13.120596668246494 540.2362215133384 50.214945553753886 0.3850399835977132
1.4385146875595165 13.116792068232673 490.78314742232646 52.1784168368178 0.39048992010527145
1.4611733473378576 13.112229431134624 446.22533015071724 54.223999371431766 0.3960795639162445
1.4837148774891868 13.106720027803089 405.9745529189459 56.35102048974676 0.4017827548919244
1.50610318344864 13.100339178809325 369.6711996271299 58.56259395954655 0.40761588367097135
1.5283485447600322 13.09302288235712 336.85468137571047 60.868157804134896 0.41360994893998587
1.550415340148639 13.084833170147865 307.20228750236475 63.2719735123442 0.41976799255949465
1.5722685604407165 13.075479252994187 280.3652325338918 65.77856658387641 0.4260907462727079
1.593917468449817 13.065213378276926 256.08505992997635 68.3928134806797 0.4325841871966657
1.6153452262640122 13.053848008769766 234.06988448531746 71.11978400474312 0.4392630315071241
1.636519804644793 13.041535182362656 214.14241807156444 73.96493063301523 0.4461343303805836
1.657417381280867 13.028026194295649 196.0544373816449 76.93224768616307 0.45319339711319967
1.6780293597841782 13.013354424214201 179.62645648190946 80.02705265617746 0.460439468017265
1.6983093631012254 12.997510397236129 164.7128915100058 83.25941610174861 0.46790752350015885
1.7182750091598493 12.980459661839207 151.1504925998049 86.63642600282549 0.47560784908419085
1.7378610667041432 12.962178575100523 138.83643685449474 90.16562487673076 0.4835451076164879
1.7571476435165527 12.942918535955359 127.61988071676191 93.85508863566194 0.4917270685964095
1.775979202513772 12.922117849972016 117.4060487093545 97.71350176963732 0.5001731798638
1.7944374481052303 12.900216877689529 108.09812659166384 101.75013250352251 0.508899234513562
1.81242702185401 12.876759861107805 99.60365432570129 105.97489107487952 0.5179122922632227
1.829990707635141 12.852224755417957 91.87070374953153 110.39842136843727 0.5272253234739317
1.8470704389166535 12.826156275258102 84.79398265691178 115.03216972477517 0.5368622450063882
1.8636582279933533 12.798883840849992 78.35112934490917 119.8884201279849 0.5468426211290092
1.879737311639605 12.770154896110968 72.44846730591179 124.97622506170703 0.557159488045056
1.8952804306331543 12.739943836927308 67.0506487883506 130.3137437787011 0.5678509499103895
1.9009453704304713 12.714283402033264 64.43853278173937 137.51977071150128 1.833410384492063
