M[M_sun], R[km], Lambda[1], P_c[MeV/fm^3], rho_c[fm^-3]
0.23841724892012095 16.20908015294055 2780876.1263280716 3.453507347168396 0.169602847481901
0.24841936737193687 15.866136987676025 2282013.677210797 3.6356498128786656 0.1719797540337135
0.2587065738000466 15.562604029154768 1881234.4584297019 3.8249744969234314 0.17437745931688753
0.26927667789913257 15.293221752803557 1557620.2633753414 4.020601121776218 0.17677057989927192
0.28013594460206503 15.053389340795313 1294998.4408404666 4.222835718161583 0.1791505203818449
0.2912727545665125 14.839401412489376 1060057.213904413 4.433055004680996 0.18155426454486018
0.3026989277899773 14.64803013969403 905224.2851650376 4.651606865475098 0.18398565073750678
0.3144090131302743 14.476411363097652 760589.8019542986 4.878858766204907 0.18644632623715826
0.3263998541884277 14.322618199014551 641167.0872782496 5.11216664001593 0.18887741986665466
0.3386771887128311 14.184486034867914 542106.1553242664 5.354646464120184 0.19132948376760175
0.3512357514572267 14.06025962919101 459690.7165520349 5.606831024206169 0.19381154924218677
0.36407598806248664 13.948311752262647 390803.43748397956 5.869133314710473 0.19632917048884574
0.37720926667581406 13.847666885037443 333098.47813685366 6.138526819575877 0.1988238011671121
0.3906234166092167 13.757079946935672 284603.1643395755 6.41828325940322 0.20134721365201458
0.4043173685958436 13.675435258484509 243730.0042741069 6.709286511376897 0.20390515139783738
0.4182990667739098 13.601997397187295 206594.65679190395 7.011746590151842 0.20649103979914535
0.43256565100873384 13.536056265413494 179926.87247831177 7.322069764457281 0.20905176402141246
0.44711387571600836 13.476667610822389 155058.98847979662 7.64494643933737 0.21165693297130014
0.46194837339452105 13.423564044265753 133893.3242529536 7.980910893585664 0.21430653888955561
0.4770646365111849 13.375805134162784 115839.809828882 8.328195341899788 0.2169654369908
0.49246510726261006 13.333225316766555 100395.1164075836 8.686434421437863 0.2196193044989087
0.5081428986104275 13.295138110291656 87153.31462833073 9.059287251394974 0.22232139761591072
0.5241050570997067 13.26125892607551 75782.30329502074 9.447359932113192 0.22507445824042735
0.5403454077089153 13.231291763444057 66004.37255563616 9.845463122362958 0.22780438121829982
0.5568590031098192 13.204748350678447 57572.169422196755 10.259324680484205 0.23057803811497107
0.5736624901675934 13.181486993564464 50291.49020509267 10.690126813520084 0.23340226175869194
0.5907356064747504 13.161204276098276 43996.93320090486 11.135161931313775 0.23623376644139432
0.6080790314311679 13.143570272308601 38544.352132652486 11.594715595691262 0.23907976510047355
0.6256912771795088 13.128219608447099 33809.069007089034 12.073133706641292 0.2419851171413842
0.6435745817563058 13.115218965743281 29694.31384758088 12.570424413880449 0.24494203129097747
0.6617283354509317 13.104318018408815 26115.982450385636 13.08091554684428 0.2478744389762604
0.6801354964156613 13.095161944133055 22994.456055668343 13.612387044071667 0.2508654823370152
0.6987944135476825 13.087680595381862 20271.045478884924 14.16574682826241 0.25391706886633514
0.717725322768769 13.08185092917596 17890.9673574642 14.7353754877548 0.25696880727426236
0.7369053103532479 13.07741539439255 15808.099912493439 15.326107795209154 0.2600650531786507
0.756295934532622 13.074331293274543 13991.580469099805 15.941124837240132 0.2632270800093122
0.7759844229571103 13.072020259628324 12382.424266560836 16.57796571441261 0.26641862933300936
0.7958839965199935 13.070929531779665 10903.056510576595 17.234865376506725 0.26961944631762325
0.816017038061731 13.070705805944817 9739.65240516872 17.918848559583257 0.2728923676668074
0.8363781239936747 13.071332653862639 8650.945603109702 18.630948816773856 0.2762388801769557
0.8569480935085073 13.072586348066729 7691.668076921433 19.36217705974725 0.27957396644187915
0.8777487744897362 13.074576282832561 6845.667790133248 20.12327325081794 0.2829778858442822
0.8987368392859227 13.076869208447237 6097.774667018085 20.91569762629789 0.2864545972105994
0.9199375749526206 13.079768546300057 5436.947271204304 21.734767196792298 0.2899592695873534
0.9413135171154109 13.082911537347536 4852.48245600699 22.582359740036992 0.2935057348135123
0.9628856451763763 13.086439114285987 4334.61122008095 23.464819213250944 0.29713569918656896
0.9846336230063885 13.090122830283853 3875.247622057768 24.383425839140582 0.3008494586586378
1.0065408686484554 13.093887687117585 3467.623179329506 25.32811466917629 0.30455173991264295
1.0285961178701126 13.097715089128497 3105.520189766312 26.311709437702888 0.308340863892061
1.0508231314850802 13.101689699179596 2783.650561165835 27.335715827202584 0.312218594323457
1.0731507203158208 13.105410326050503 2497.2247476009697 28.397436224090722 0.31615867016041005
1.095612253380721 13.109074789906424 2242.197661442805 29.494973945716477 0.3201410118057567
1.118196738826525 13.112622908420601 2014.8405456595353 30.63760538951388 0.32421217217126136
1.1408897057169507 13.115924129714063 1811.881878547297 31.82718737877688 0.3283737365852031
1.1636630435167086 13.118955588961937 1630.7476107058344 33.05927218941261 0.3325938728102278
1.1865121303155268 13.121674255272728 1462.2566349619847 34.33605376590077 0.3368806773776214
1.2094238396147696 13.123891839006117 1324.1156742812482 35.66542984320291 0.3412733708587442
1.2324025487403876 13.12584477177361 1194.604574121539 37.049424269278944 0.34577037151124107
1.2554071949025896 13.127307689915472 1078.6509835602133 38.48571092430067 0.35033720705242205
1.2784317862089871 13.12816919138855 974.6501152007062 39.97376003891768 0.3549751253412048
1.3014641225315877 13.128523272685452 881.3679876845441 41.523394097434526 0.3597305070393863
1.324494963859117 13.128292833722373 797.617266141693 43.137081566755604 0.36460547373859664
1.3475096101358714 13.12742859167639 722.4382361969784 44.81741834531043 0.3696014050271029
1.3704793224732654 13.125845262813009 654.7564226970192 46.55831101437251 0.37466073714148485
1.3934087170537028 13.123587626512785 593.8460801965937 48.369463549142125 0.37984018797317903
1.4162438228468124 13.120512869352849 539.1061888307294 50.256255855108144 0.38515535942188395
1.4390066521722154 13.116676887878567 489.7684090725172 52.22189400479743 0.39060899930659015
1.4616808163626849 13.11206142872597 445.2571152873858 54.269773892219526 0.3962022993379217
1.4842175578953025 13.106583062450403 405.1177288581302 56.40035521576032 0.40191503630735814
1.5065983564334284 13.100130594351219 368.8889782949977 58.61454120701775 0.4077526832443781
1.5288554793900193 13.092837708214807 336.142194826505 60.92288097064745 0.4137515552518233
1.5509224274419746 13.084604328622113 306.5455753141353 63.32964663674035 0.4199146134496802
1.5727795960921003 13.075224579699222 279.7688015884751 65.83937373084687 0.42624247128214215
1.594432903302722 13.064955596582852 255.53625805264974 68.456952404891 0.43274167506918587
1.6158578764966147 13.053530036596635 233.56167646145514 71.18746861212455 0.4394266490939693
1.637039098534966 13.041256033438572 213.67691877371084 74.03638913588469 0.44630432581124824
1.6579369193435896 13.027659181258803 195.61569420899713 77.00920927310655 0.453376484046059
1.6785455513550196 13.012897453759525 179.22151951456286 80.10833279568826 0.4606296774948236
1.6988328956727576 12.99704861465246 164.34144238003546 83.34529739919982 0.46810564263675936
1.7187953902127948 12.980010598150285 150.81737218529116 86.72721390264756 0.4758143894024211
1.7384074826002291 12.961758236513036 138.51474741302596 90.26164609615125 0.48376040860145564
1.7576690054388207 12.942454644539062 127.33245918154054 93.95669250224793 0.4919516171800343
1.7764960853454403 12.921520789401269 117.13507634768095 97.82106524458678 0.500407877377386
1.7949275957956783 12.899537753162592 107.85383255335314 101.86406293001856 0.509144746844125
1.8129268035929504 12.876176818682508 99.38239143144062 106.09562533663468 0.5181690630508581
1.830467669738164 12.85140182786858 91.655526206904 110.5264285759099 0.5274941087914857
1.8475406225317323 12.825409492920626 84.61185736966218 115.16795714714573 0.5371441132352613
1.8641270385313347 12.798033255388916 78.16802266022205 120.0325363849121 0.5471384497099329
1.8801872096376266 12.769205954538544 72.28440294055537 125.12747652268186 0.5574633875264812
1.895744769335495 12.739171311933651 66.90445380418903 130.4711278406804 0.5681591960636843
1.9107019736811948 12.707532744207926 61.978989549045274 136.0792055870903 0.5792562916139571
1.9251304712832236 12.674532265451017 57.467990615393035 141.9681339216599 0.5907725531142637
1.9389313177686103 12.639921001304387 53.33367932617814 148.15561940485853 0.602727586246831
1.9521529424462079 12.604095878409888 49.54521272003321 154.66073641222997 0.6151569298875406
1.9647329088913343 12.566591176813548 46.069599129801084 161.4997502117073 0.6280771173679118
1.9766678881523772 12.527690769488816 42.88057972334833 168.68765849308014 0.641480703246895
1.987936589089101 12.48729471525618 39.951257544277084 176.25830082402283 0.6554471417440538
1.998528985401915 12.445366230849121 37.25740553711338 184.23760475851196 0.6700159536390187
2.0084295678116746 12.40210947453635 34.790008581430506 192.64325951610866 0.6851759612404443
2.0176224727757535 12.3572531853138 32.513225541091714 201.50404230653209 0.7009767980754973
2.026059126992786 12.310814272571244 30.420969009475478 210.8627255972554 0.7175005313818116
2.033759077277451 12.262917202800223 28.4943376637724 220.73917022986657 0.7347261771721384
2.0407041840736033 12.21345210549513 26.718201858773796 231.17610484307747 0.7527365416850338
2.0468835908491423 12.162532611675902 25.08210585320993 242.2180614823031 0.7715971036280449
2.052270142548411 12.110006908762967 23.57166633946578 253.89350348501486 0.7912972274787441
2.056855566634192 12.05614694476166 22.181657322162458 266.2676204988335 0.8119737596000005
2.0606374013558453 12.000775727237404 20.900674936122922 279.3715183094469 0.8336142545327504
2.0635985695799772 11.943893532338738 19.71645827708757 293.27708034265373 0.8563380710926969
2.0657207381484035 11.885522814079284 18.62408497705741 308.03543559978993 0.8801977371221623
2.0670246981883826 11.825733298432612 17.612962453961693 323.71124736111756 0.9052497963362947
2.0674698247135592 11.764563138205359 16.683012702775567 340.3859446040972 0.9316276239885795
