M[M_sun], R[km], Lambda[1], P_c[MeV/fm^3], rho_c[fm^-3]
0.23841724892012095 16.20908015294055 2780876.1263280716 3.453507347168396 0.169602847481901
0.24842919563560129 15.865773674899339 2281674.6048135133 3.635811072814591 0.1719818053210874
0.25872521386237163 15.562118248092009 1880674.9160479417 3.8253062295772113 0.1743815174364927
0.2693042362625312 15.292534296717989 1556878.9200884844 4.021135606630416 0.1767771183073568
0.280173297023258 15.052709535475012 1294306.303495644 4.223567683392843 0.17915907957960625
0.2913210109102096 14.838421814365212 1079846.2346934904 4.433994564257609 0.1815648364878413
0.30276168888401817 14.64703608479076 904274.9079674049 4.652764665975968 0.1839981903231742
0.3144806743219665 14.475456204558993 759759.2114278038 4.880245887972262 0.18646078019808496
0.32648471094974496 14.321628632022332 640385.2506756729 5.113864051326263 0.1888951070786453
0.3387752611695446 14.183387716910733 541436.4716580088 5.356605311496057 0.1913490293661377
0.3513467788405532 14.059088038722338 458974.260546485 5.609063605680724 0.19383300668161432
0.3642019835293853 13.947241390268028 390191.16963834385 5.8716528255907425 0.19635250159751252
0.3773492720719863 13.846695933011562 332542.5828658441 6.141464395624064 0.19885100363189762
0.39077829584662827 13.756080181257875 284089.6407196203 6.42154570860768 0.20137629160996504
0.4044886652891678 13.674473487370614 243266.62036630535 6.7128884778061915 0.2039359464807757
0.41848516939146435 13.601164932058035 206194.27653264432 7.015868013750541 0.20652627599138573
0.43276780009298343 13.535157893602456 179551.5134553786 7.326573483476169 0.20908888960167843
0.4473319904815974 13.475841606685163 154721.14658172548 7.649850117620205 0.2116959197159313
0.462185899124384 13.422725750267729 133590.08424576634 7.986232885000921 0.21434728540998738
0.47731974611856953 13.375090480847573 115560.99209351603 8.334185641304552 0.21701130024724738
0.49273892774493544 13.332503045167554 100138.12460135305 8.692893715087205 0.21966682677235694
0.5084373824291313 13.294522224426066 86049.01186631325 9.066236529993466 0.22237074896418296
0.5244140966173039 13.26075434354454 75582.00344019692 9.454822120876601 0.22512562889434165
0.5406749673282805 13.23075249057691 65822.69914030063 9.853771040838346 0.22786135131575128
0.5572156973755653 13.204313570003922 57408.38561928649 10.268207088598354 0.23063673491069317
0.5740322887037973 13.181005654116797 50145.24962084356 10.699609302800551 0.23346259343079553
0.5911290762201415 13.160689815554607 43862.10079060445 11.145658924096505 0.23630055282078374
0.6084873332505263 13.143035218281666 38421.69948369341 11.605883566447 0.2391484426846496
0.626130439150458 13.127897828612806 33700.97013122312 12.085004566581715 0.24205570183805097
0.6440312326342699 13.114976785057268 29599.29075460453 12.58350562551153 0.2450198127962473
0.6622051536190858 13.10400772792762 26027.66464181366 13.09478248480781 0.24795397558267201
0.6806403547020097 13.094892417080164 22914.99546907286 13.627075512227114 0.2509467726682816
0.6993231336079361 13.087497653955472 20199.8877979263 14.181295825241847 0.25400037133101305
0.7182803610192167 13.081714190530153 17826.828167422664 14.75241999016132 0.2570601217855166
0.7374777970246587 13.07732133038049 15751.271440000834 15.344115522433258 0.2601584864016189
0.7569242429386195 13.074064881934802 13930.768799778187 15.960142085496695 0.2633223855840443
0.7766112556896425 13.071986798604899 12334.987427573282 16.598752678471882 0.26652280389758765
0.796528905541309 13.070889341608025 10933.77764729066 17.25677994970387 0.26972566832227085
0.8167003936156764 13.070767617299548 9701.012663874006 17.941946568008284 0.27300094373141026
0.8370875065517523 13.071526278149232 8616.502319389969 18.655290738591855 0.27634990215934924
0.8576785171726252 13.072669356879425 7659.970355325824 19.388690527207206 0.279694892708077
0.8784873693906444 13.074564666578542 6817.084948106876 20.151178904841448 0.28310102247822017
0.8995132890523034 13.076966944899649 6035.77963839364 20.945064607585174 0.28658025399460624
0.9207383373072976 13.07991315852648 5413.916844514987 21.76669423433548 0.2900958804572721
0.9421435916539479 13.083096273073059 4831.344092044973 22.615925366867373 0.2936453019088732
0.9637392100157749 13.086553316530072 4315.371699873333 23.50011053578732 0.29727837558325226
0.9855125221761623 13.090207555735322 3857.7321885657816 24.42056649766475 0.3009951443574938
1.0074490996424161 13.094064577818132 3451.74845556372 25.36835817675546 0.30470945041735514
1.02953467460986 13.097904618768743 3091.130752115704 26.353989101533415 0.30850196811979697
1.0517699529291498 13.10177758600823 2770.671777296518 27.380142079961438 0.31238346146318097
1.0741378103938668 13.105573075324958 2485.3370209169407 28.44556012142192 0.3163372593686521
1.096635059879947 13.109296391376702 2231.4119547323808 29.545514380949577 0.32032377855463867
1.1192348656577817 13.112761283975297 2004.9694737805216 30.69069276646453 0.3243986667071606
1.1419522024128714 13.116116244062098 1803.0614706915994 31.882959989114713 0.3285647688998774
1.1647429944852978 13.119042063500236 1622.5867469406035 33.11958825018016 0.3328004673488494
1.1876147841018576 13.121715785018411 1461.5906831566133 34.3993985366698 0.3370924710011858
1.210550598472931 13.124007691460605 1317.4851235996393 35.73197681782309 0.34149068771421975
1.2335537367995324 13.125954034627975 1188.5356294996632 37.119352843087846 0.3459927173048875
1.2565754978776245 13.127313113205897 1073.0930931085236 38.5612419862001 0.35057736658933586
1.2796187440757893 13.12820597403181 969.5920481197523 40.053109188044196 0.35522179130589493
1.3026794725774542 13.1285145095789 876.6348986935628 41.60678554927405 0.35998413929150774
1.325733693232441 13.128255403567406 793.3763532210802 43.224754225756264 0.36486646976482007
1.348745579307107 13.127436751270393 718.7973843487631 44.90962102440595 0.3698693617964489
1.3717661944615052 13.12578353221664 651.1977483625705 46.65776984138705 0.3749497815188413
1.3946882053914684 13.123409549491171 590.6623498087857 48.47405505752536 0.38013808745700894
1.4175513717687989 13.120353486044362 536.1561138605753 50.3662914782877 0.38546267866905215
1.440338718919193 13.11652520339132 487.06614607947137 52.33770512596287 0.39092619328340733
1.4630141952270286 13.111794478522167 442.78504225217733 54.39170855687431 0.39652924328459616
1.4855575027038792 13.106261841232813 402.86183321511334 56.53178283840148 0.40226743376356955
1.5079660976370333 13.09976249824667 366.7950654722417 58.75293331460017 0.4081171295279012
1.530202607999718 13.092321747876515 334.2385780106845 61.06867348204945 0.4141288203325714
1.5522800852744851 13.083932233939679 304.78253934855763 63.48330388739381 0.4203052522976732
1.5741599681818992 13.07465140891299 278.158731930754 66.00138683343637 0.4266467237548129
1.595823744329836 13.064322769023935 254.05601933984417 68.627849031287 0.43316129773113327
1.617234206245424 13.052752920100918 232.21827115850476 71.36781956819327 0.4398626210137131
1.638435673117754 13.040390610020134 212.42037797274622 74.22680344268126 0.44675730986197376
1.6593206612784281 13.026675956118655 194.46399768735714 77.21068997466169 0.4538486959357854
1.6799236004446325 13.011838055874982 178.1681453019164 80.32494394779005 0.46113658477036
1.7002169779298726 12.995906302697163 163.36523535275893 83.57418023367076 0.4686336513056296
1.7201680871803733 12.978780233713493 149.92871499254412 86.96918379060544 0.47636486515699755
1.7397769751249068 12.96042599553729 137.6952921775096 90.51757525649931 0.4843342588466145
1.759018563721948 12.940993759198989 126.5750271803147 94.22751358095839 0.4925501425283652
1.7778479262867686 12.920095888908106 116.43623315394038 98.10778473881135 0.5010334833502568
1.7962347970085797 12.89777223345892 107.20846511142689 102.1677685403528 0.5097992118056934
1.814239259118335 12.874465697870741 98.79309675788458 106.41748373170981 0.518853573250441
1.8317817265326126 12.849706189609227 91.11161517778044 110.86769257936028 0.5282106837043224
1.848811857462082 12.82335514907419 84.09732234610189 115.52998159848181 0.5378956054510013
1.8653780553915391 12.79600252033542 77.70905879196361 120.41169343262374 0.5479082595962864
1.8814163070678787 12.766927575605974 71.84823652435473 125.52975132543926 0.5582700859757028
1.8969180822660447 12.736726380357064 66.5051170301745 130.89868708053245 0.5690077644148359
1.91185881988976 12.704886310127787 61.606300821290596 136.53387995248914 0.5801495951173227
1.926258111254273 12.671804418461832 57.12210183121204 142.45189808880014 0.5917125821963685
1.9400254006150908 12.637088637929986 53.012325133977704 148.67060854913453 0.6037182086298534
1.9532225302997932 12.601155984163933 49.252131477166344 155.20926888043152 0.6162021907434936
1.9657316253280468 12.563454814014664 45.79758155988433 162.07755278641264 0.6291569864548225
1.9776308219159893 12.524335372092631 42.623864149497386 169.30393504631556 0.6426220240385724
1.9888513631683187 12.483800024958594 39.715922308428446 176.9159902549678 0.6566547007763041
1.9994144943555212 12.441844224049476 37.04123561378986 184.93990199719738 0.6712945641334729
2.009243568313563 12.39818999350343 34.58308800008296 193.38606472319577 0.6865044720765191
2.0183667446258315 12.353185590392052 32.32296167807593 202.2983227707716 0.7023861031741567
2.0267693649845415 12.306660236918697 30.243707302768126 211.71257182264108 0.7189966789435309
2.034412109887334 12.258595859107782 28.329354230355722 221.64085576444927 0.7362875745023885
2.0412937070897503 12.208987286385096 26.567391756777198 232.1422311778934 0.754397160512613
2.0474002030867533 12.157807647609344 24.939687791716466 243.24543356799867 0.7733354836252324
2.0527165630781496 12.105174936571775 23.441086548432647 254.99587971614199 0.7931493746672823
2.0572307554634532 12.051047372897049 22.0598242011498 267.44243772638237 0.8139201226599261
2.06094537649233 11.995502454331813 20.78528688556738 280.6339643260969 0.8356896802207213
2.063834212453212 11.938417178261977 19.609364637020168 294.62535656217176 0.8585253584561944
2.0658829312914024 11.87992853315488 18.52393035846359 309.4864820545995 0.8825358013843793
2.067099833510778 11.819974644672813 17.523159152083696 325.26422022167804 0.9077182681665594
2.0674774313776454 11.758644271634502 16.59749124485245 342.04830080235376 0.934231637485068
