M[M_sun], R[km], Lambda[1], P_c[MeV/fm^3], rho_c[fm^-3]
0.23841724892012095 16.20908015294055 2780876.1263280716 3.453507347168396 0.169602847481901
0.2484171550693498 15.86614234147781 2282126.1076148422 3.6355856767045047 0.17197893819732168
0.25869867478616854 15.562823376422761 1881532.6485837325 3.8248425661313603 0.17437584539396578
0.26926603787222203 15.293445979211436 1557897.5612178547 4.020388565679526 0.17676797967872276
0.28012014361226145 15.053719086842591 1295258.0390276143 4.222544639348249 0.17914711666672148
0.29125070253664864 14.83977078374738 1081113.6913619058 4.432681387369823 0.18155006059546858
0.30267444933468446 14.648362290568334 905475.8097448372 4.651146482319926 0.18398066454687223
0.31437750845183654 14.476872581115153 760910.8790890501 4.878307217620456 0.18644057904042582
0.32636627966698795 14.323051126488503 641477.2498767888 5.111491745281966 0.18887038738951822
0.3386373696126957 14.18479907990278 542401.8543999456 5.353867650504991 0.19132171267811085
0.3511905478588902 14.060507763921182 459932.6961790679 5.605943409124976 0.19380301833433108
0.3640259405344543 13.94876310737952 391069.23166656983 5.86813165916204 0.19631989498436975
0.3771546002784956 13.848074141946963 333316.2732093894 6.137359013917185 0.19881298708373663
0.390559598129542 13.757425406531071 284798.3274781563 6.416986347644438 0.2013356543776094
0.4042504205838489 13.675883401781734 243918.4095896777 6.707854679894129 0.2038929099263714
0.4182262494304517 13.60240681552596 206768.5001148303 7.010108347260397 0.20647703360927505
0.43248465044403517 13.536386103438874 180073.04410812657 7.320279619144901 0.20903700728743244
0.4470263385796135 13.477046378514608 155205.88872039012 7.642997379293371 0.2116414369493706
0.46185267902941074 13.42378865129981 134026.55715118287 7.978795632641237 0.21429034391354654
0.47696336855387417 13.376109467490279 115953.2170497762 8.325814576259905 0.21694720924328606
0.4923560684827188 13.333516720572874 100491.24360332168 8.683867337868769 0.21960041796828206
0.5080270943275044 13.295386549706366 87240.26642066821 9.05652551756456 0.22230178474729878
0.5239796304706645 13.261560151492445 75866.66328544704 9.444394447609328 0.2250541229492619
0.5402175972337878 13.231549927103803 66075.57223295876 9.842161711849283 0.2277817423732933
0.5567267693779709 13.205033860901843 57638.41468551658 10.255795079520572 0.23055471377948902
0.5735130827476236 13.181745883833615 50354.27371067143 10.686358864271257 0.23337828844621464
0.5905800851213803 13.161309995225045 44048.08661552178 11.130991077712368 0.2362072296782692
0.6079090723326345 13.143574301304744 38589.918723276125 11.590278259456205 0.23905247764248622
0.6255175582193457 13.12834676481682 33852.20748445347 12.068417222138324 0.2419570727006574
0.6433910448111455 13.115397066478865 29735.631311856647 12.565227314245892 0.2449111290898654
0.6615300368148845 13.104329854403444 26149.794049906708 13.075406429974585 0.24784284033052528
0.6799333668079615 13.095229206690988 23026.304187000715 13.606551700782596 0.2508331878197108
0.6985835910612225 13.087757191236564 20300.336957693096 14.159569781541702 0.25388397584966366
0.7175054954800149 13.081879925466612 17916.974360484368 14.728604700472115 0.25693253334166055
0.7366797432935501 13.07751580026483 15831.990370053029 15.318954560915882 0.26002793857077433
0.7560831956931874 13.07417626171744 14004.131445385143 15.93357078459403 0.2631892226222034
0.7757347317683173 13.072037584168042 12401.87263066733 16.569709153888247 0.2663772513042079
0.7956282642491945 13.070931071408392 10993.213066209995 17.226161153371454 0.2695772561265567
0.8157503316987794 13.070759787589662 9754.96749007287 17.909674522995576 0.27284924356836204
0.8361009342400799 13.071367873379735 8665.343467885707 18.621152696391068 0.2761936661132259
0.8566575133453462 13.072528772353852 7704.123452641761 19.351647345133703 0.2795259410723469
0.8774490133535142 13.074504403489732 6814.8778222370975 20.112190916514965 0.28292898387835463
0.898425351633995 13.076854216065787 6108.428835882251 20.904035242316144 0.2864046956680928
0.9196165475162427 13.079756573073185 5446.471548385277 21.722088890722823 0.289905021070907
0.9409866118256619 13.08290406725661 4861.1013952278745 22.569031084919768 0.2934503137814792
0.9625415264815264 13.08631842302813 4342.20743670329 23.45080565587755 0.29707904492350784
0.9842760990747956 13.090015487213348 3882.2586717013614 24.36821535176133 0.3007879654253131
1.0061826129562428 13.093842337338977 3473.945123605058 25.31213605724402 0.3044891212418554
1.0282191002697993 13.097590666551241 3111.2101994199406 26.294922806923772 0.30827689940079167
1.050433008913814 13.101513680738444 2788.679840751374 27.3180773786878 0.3121531375186352
1.0727584835405097 13.105357387070727 2502.045721687407 28.378330887720573 0.3160877696913134
1.0952246902910834 13.109130273760165 2246.5226081933506 29.474909766528484 0.3200684547574792
1.1177833060050442 13.11250070228756 2018.6684509630536 30.61653065541999 0.3241381371938374
1.1404752303082806 13.115905072179892 1815.4493049374832 31.805047251722954 0.3282979022340282
1.1632256712722118 13.118857071723678 1634.0201674195444 33.03532996499229 0.3325118659161312
1.1860714755625146 13.12154424035684 1471.8498109617817 34.31090999749917 0.33679660903614367
1.2089762225717748 13.123881114414804 1326.9117346058042 35.6390157449934 0.34118711256081447
1.2319433874657477 13.125814301097835 1197.0838443058267 37.02166871855342 0.3456821196047883
1.2549426487352433 13.127285924388831 1080.8140631505498 38.4557336425331 0.3502418909013421
1.2779635056676257 13.12820848646369 976.6510330337412 39.942268319556895 0.35487722970626234
1.3009769446393076 13.128465817984933 883.2184605507762 41.49029906383615 0.35962984962522176
1.3240142171224099 13.128334466959332 799.2906491571005 43.10228852442381 0.3645018970261719
1.3470159051427721 13.127463630497191 723.9392571074588 44.780828676856956 0.3694950691869038
1.3699917014800973 13.126035028751701 656.1554337894959 46.518844515235116 0.3745460407388424
1.3929029263182853 13.123638330585704 595.1556141131476 48.32796164463843 0.37972198147514946
1.4157235340079806 13.12058686544944 540.2972067922644 50.21259513157284 0.38503341908747246
1.4384974410867633 13.116838923482073 490.8363206050944 52.17594315009879 0.39048314494827524
1.4611407871479345 13.112182668940472 446.2572715887681 54.221394998879425 0.3960725808007926
1.4836872985940894 13.106721876181975 406.019765910324 56.348213613903575 0.401775228803518
1.5060757869455799 13.100326734626778 369.71376744219435 58.55963847471303 0.40760810060095093
1.5283160717665392 13.093043884304587 336.9036206464177 60.86504441775347 0.413601892477049
1.5503630054056958 13.084716543593313 307.24028763411576 63.26869232684836 0.4197596508866045
1.5722368160451299 13.075480383864756 280.3977555254554 65.77510713170545 0.426082114303615
1.5938872985169976 13.065186228017277 256.1116152797806 68.38916451593651 0.4325752274627542
1.61531092700255 13.0538607984205 234.10411591096351 71.11593336327228 0.43925372314751854
1.6364725956626889 13.041434064388712 214.16754626001335 73.96086533733983 0.4461246592895116
1.6573906690275968 13.028062471384603 196.07700240952425 76.92786941413134 0.453182981470418
1.6780020734199759 13.013391844989737 179.64710120761345 80.022428760518 0.46042864730776617
1.6982880094275379 12.997621433803507 164.73894992229353 83.25453051293842 0.4678962529597084
1.7182465986677062 12.98051576626369 151.1781595033883 86.63126135302181 0.4755960996284143
1.737828108911056 12.962166456249383 138.8546498677842 90.16016258887514 0.48353285994912243
1.7571251164062747 12.942900749773866 127.6270623065925 93.8493088474805 0.49171429503479813
1.7759589629142654 12.922178079939458 117.42047913245798 97.7073830481024 0.5001598291540796
1.7944193399396913 12.90028871988628 108.11023239013794 101.74365168867382 0.5088852687977617
1.8123953146813594 12.876823475207974 99.62038293902378 105.96802332773804 0.5178976863276981
1.8299485519626941 12.852176530801076 91.88240857119723 110.39114001836262 0.5272100343349005
1.8470643515283918 12.826386130867036 84.81495564542587 115.02444593232765 0.5368462119183499
1.8636302276558625 12.798959666873776 78.36421370765714 119.88022270358783 0.5468257942110867
1.8797069187327922 12.77025176445673 72.461524543428 124.96802171128931 0.5571436261390177
1.8952507753548835 12.740106150375706 67.06402506695414 130.3016602938358 0.5678228571814995
1.9102554579584463 12.708584181896889 62.12572879410529 135.8990011272659 0.5789022420181721
1.9246781397754982 12.675589024145172 57.60273342452151 141.77641148162857 0.590400006568729
1.9385336950406304 12.64125149196575 53.46234849641865 147.9515345087698 0.6023350127948479
1.9517580883751748 12.605385305992419 49.66533736869924 154.44337222363814 0.6147427296514708
1.9643336096147321 12.567928457963303 46.18176424612244 161.2707952916626 0.6276492180277635
1.9762736236082423 12.529052813251173 42.98559826985235 168.4434743130847 0.6410284834112314
1.9875635311448308 12.48869172791797 40.04732555403635 175.99772544017492 0.654968709001269
1.9981900255681408 12.446903441807466 37.348406346965575 183.95937512658804 0.6695094055456331
2.0080978674204992 12.403561206990474 34.8686735374908 192.3489947162571 0.6846496671709518
2.0172985009340016 12.35879565607665 32.58999215284953 201.1894083961971 0.7004185378714385
2.0257845184496266 12.312511761889311 30.4909797551763 210.52610594759338 0.7169079151495749
2.033500811995302 12.264594399474872 28.556867255122683 220.38203558735128 0.7341077475134867
2.0404794983721524 12.21530054387597 26.779745901365935 230.79347703842296 0.75207886482284
2.0466661715968426 12.16435626399037 25.13888563771421 241.81120075729064 0.7709086689743779
2.0520906220946844 12.111980882699312 23.625647625366923 253.45697583514436 0.7905637996012215
2.0566870847781122 12.058111073966527 22.23297908171343 265.80243600816107 0.8112030712857135
2.0605126240084117 12.002829068239414 20.945880853068385 278.8716797752378 0.8327925340630798
2.063500747553208 11.946037901125484 19.758666927090314 292.7432953644466 0.8554721200948557
2.0656619467297195 11.88777748822154 18.66353990634692 307.4610166201116 0.879272178547884
2.0669899356438246 11.82812288559764 17.65281482065195 323.09652449702753 0.9042726858458523
2.0674610031993637 11.766970754818889 16.719197474570535 339.72725616551537 0.9305940301826737
