M[M_sun], R[km], Lambda[1], P_c[MeV/fm^3], rho_c[fm^-3]
0.23841724892012095 16.20908015294055 2780876.1263280716 3.453507347168396 0.169602847481901
0.24842796984308807 15.86583813389079 2281443.766310479 3.635800018394688 0.17198166470468543
0.25872466597837646 15.562116693384562 1880691.967612683 3.8252834885485427 0.17438123924315468
0.26930291280514457 15.292579167212931 1556996.1670543493 4.021098965364522 0.17677667007099
0.2801704755605535 15.052733250009767 1294297.9669637983 4.223517502599069 0.1791584927930768
0.29131682231099676 14.838503035821809 1079945.0477914638 4.433930149846023 0.18156411169560524
0.30275618026170387 14.647027376073542 904355.0639342491 4.652685287315554 0.18399733061071796
0.31447468603079226 14.47556806571573 759842.9828620234 4.880150784665531 0.18645978921119985
0.3264784422894593 14.321698788828401 640458.1403866265 5.113747670453587 0.18889389437718976
0.338768408656595 14.183415156258771 541427.7543003071 5.356471002288524 0.19134768921382034
0.3513406210354723 14.059247869087962 459045.62914586364 5.6089105241182144 0.19383153540793743
0.3641932635604304 13.94741420743737 390255.9976883336 5.871480066093319 0.19635090181453912
0.3773402268190331 13.846681809364938 332575.01260483864 6.141262963556743 0.19884913833594337
0.390767834496314 13.75617794962796 284121.74902981974 6.421321994638175 0.20137429766462198
0.4044766458747006 13.674533299853742 243293.05189058103 6.712641476859954 0.20393383474132046
0.41847271001396585 13.601191036245242 206215.41210350528 7.015585382395012 0.2065238596290444
0.43275233466508145 13.535170339252375 179579.2851826956 7.326264629119579 0.20908634361753556
0.44731798267898115 13.475912846026157 154746.48916117847 7.649513827912733 0.21169324604115267
0.4621700862692313 13.42272473942691 132116.95619006097 7.985867900224845 0.21434449099367303
0.4773051071311402 13.375247911139454 115583.55912797936 8.333774809983598 0.21700815481811997
0.4927201045598496 13.332553392863712 100159.31871403367 8.692450709912196 0.2196635674975494
0.5084185163030792 13.294546222142317 86941.29294479439 9.065759910196466 0.2223673641769332
0.524392662633258 13.26069030544881 75595.19382313186 9.454310312927415 0.22512211926087233
0.5406519589032175 13.23072686899111 65829.71097943951 9.853201207617893 0.22785744378413592
0.5571909008829988 13.204364526783994 57422.4135350305 10.267597840003228 0.2306327088695709
0.5740066249858631 13.18103155808683 50154.38376387132 10.698958882176417 0.2334584551752527
0.5911041729827655 13.160831474586368 43874.11487488435 11.14493889188579 0.23629597166641003
0.6084597195639871 13.143021139370997 38101.17155095276 11.605117495000083 0.23914373171813375
0.6260990571295941 13.127937846975605 33707.34817480751 12.084190265376604 0.24205085996443385
0.6440014150004424 13.114977673034304 29605.51281694699 12.582608266352304 0.24501447705609258
0.6621734253486837 13.104015143514694 26032.74143023924 13.093831208525096 0.24794851934658832
0.6806034518048253 13.094951743551976 22921.25058881084 13.626067860923703 0.25094119602765513
0.6992901546432634 13.087568067409624 20206.26853472373 14.180229121696325 0.2539946565550349
0.7182422195747425 13.081687544204074 17829.974270602772 14.75125064841702 0.25705385713388157
0.73744074099022 13.077253745018748 15753.641531242394 15.342880077031403 0.26015207628421433
0.7568841786379449 13.074077942609234 13934.344171561388 15.958837358036806 0.26331584689880677
0.776568909264996 13.072030233141398 12338.414323167208 16.59732648207618 0.26651565646672176
0.7964844324760567 13.07085631888883 10936.381656418103 17.255276362276128 0.26971838029209566
0.8166542778852512 13.070783975412382 9703.607681504694 17.94036175663893 0.27299349405962664
0.837034439456584 13.071341647389827 8618.133852869483 18.65362055090544 0.27634228453781134
0.8576260003015288 13.072701382691484 7662.568956493935 19.3868712726759 0.2796865952019863
0.8784360333853172 13.074598542401187 6819.058816491413 20.149264091292675 0.28309257316200576
0.8994598127705061 13.076969848903383 6073.804694843513 20.943049487508954 0.2865716316065682
0.9206850819930166 13.079907382961816 5415.493471622655 21.764503361435978 0.2900865060500075
0.9420907799661679 13.083005117293627 4832.411927822517 22.613622012924026 0.2936357244795261
0.9636813460976583 13.086529951790514 4316.621109165499 23.497688719191494 0.29726858461934136
0.9854445658153645 13.09017104040612 3837.8811211661396 24.418020071905335 0.3009851651554837
1.0073830047604886 13.094037746832322 3452.923920362873 25.365596365756815 0.3046986271409382
1.02947070598271 13.097886957454238 3092.1752183868134 26.35108750433324 0.3084909117505219
1.0517063993589852 13.101756439566168 2771.4222292530394 27.37709311228803 0.31237214665384616
1.0740689928597347 13.105605410085536 2486.294245880011 28.4422572491069 0.3163250023116726
1.09656426337814 13.10929300406343 2232.1536874766466 29.54204559407256 0.3203112345609601
1.1191637498423042 13.112772652069536 2005.6995260755277 30.68704910830511 0.32438586663346236
1.141881593064931 13.116122015512078 1803.5935326076092 31.879131960949643 0.328551657139883
1.1646705039846994 13.119032439592852 1623.1890556388662 33.11544820083119 0.33278628685406514
1.1875463691170993 13.12175991814202 1462.100217442457 34.395050519360126 0.337077933379056
1.2104797318187397 13.124057152798953 1317.9288417039013 35.727408914627226 0.34147577069711554
1.2334719828343663 13.125937778212116 1188.9725342110225 37.114552730350184 0.3459774548046231
1.2564934820013243 13.127321081260563 1073.44954702006 38.55605707459638 0.35056088057764245
1.2795382211136992 13.12819884084082 969.8790203276172 40.047662074737104 0.3552048583271112
1.3025987289382062 13.12853344706666 877.0484999796042 41.601060829891644 0.3599667277530623
1.3256470057711123 13.128244837892717 793.6468009994396 43.21873548620229 0.3648485523533446
1.348677562440766 13.127351787959809 718.7458944364254 44.90329116929179 0.3698509661538987
1.3716768425389634 13.125795204693953 651.4146637699984 46.650941529913915 0.37492993727678264
1.3946105928013373 13.123530091088677 590.8847339734778 48.46687421298611 0.38011763484173666
1.4174625651293264 13.12032588198053 536.3594328760466 50.35873670007036 0.38544157887711944
1.440232807807273 13.116470919286227 487.2378420200305 52.32975364175273 0.39090441503903123
1.462917129670258 13.1117959467864 442.9536645587392 54.38333644851051 0.39650679511402714
1.4854596384118968 13.106217005507341 403.01025520231263 56.52275850831015 0.4022432367880458
1.5078617483573564 13.099846372224045 367.04365403475833 58.74343055611495 0.4080921046542024
1.5301119539509536 13.092369755473362 334.3695283284388 61.058662334102515 0.4141029146361659
1.5521870480840831 13.083969260167015 304.8972824470973 63.472752434552575 0.42027842761244016
1.574067847519856 13.074656199859223 278.2774304732394 65.99026131845659 0.4266189635498145
1.5957292488341888 13.064277593800266 254.14182006423664 68.61611318248538 0.43313248131609805
1.6171430120264652 13.05280997336108 232.30627871605387 71.3554341471604 0.43983268107936374
1.6383312421683731 13.04036389716635 212.50470251043498 74.21372658221482 0.4467262008065434
1.6592287032130648 13.026741381660758 194.54738698536917 77.19687713437342 0.45381637151864435
1.679854676758542 13.012081722613914 178.24994467372997 80.3100668221568 0.4611017697428354
1.7001233124778123 12.995995153711402 163.4381315928128 83.55845982648609 0.4685973859767295
1.7200718277612723 12.97885034842092 149.98270807994538 86.95256403778227 0.47632705561361416
1.7396824361447327 12.960501368923746 137.75194458321053 90.49999618232175 0.484294842642487
1.758911550887534 12.940968143084413 126.62341021455136 94.20891105156639 0.4925090301990104
1.7777534526132588 12.920121090359961 116.4854861387913 98.08808953849183 0.5009905095197187
1.7961614010635252 12.897926434239622 107.24623772433732 102.1469058652785 0.509754254157971
1.8141353449319169 12.874403564433198 98.82729174324238 106.39537334313842 0.5188065501287035
1.831670808686489 12.849664756504126 91.14869360927527 110.84424830871127 0.5281614561970935
1.8487277879373638 12.823493565940197 84.13745599473795 115.50511025556408 0.537843977389613
1.8652914503599904 12.796121520022806 77.73767964211429 120.385677380235 0.5478554939873398
1.8813271756074987 12.76713668774157 71.88065061646854 125.50211334930052 0.5582146623887968
1.8968390355459288 12.736878034447432 66.53161313046377 130.86931085075688 0.568949461993697
1.9117993956616792 12.705168593666706 61.62915422193267 136.50263952255636 0.5800882167163629
1.9261640484178106 12.6718618832598 57.14223272413855 142.41865759828897 0.5916479907489105
1.9399450316234028 12.637303096869749 53.03615044112051 148.63522108631543 0.6036501380440233
1.9531305327300308 12.601208978014855 49.26759560164026 155.1715749205571 0.6161303626876415
1.965678223387063 12.563735445587426 45.8172919134662 162.0378465258795 0.6290827784724016
1.9775641962023836 12.524556871023398 42.64148195945997 169.26158301666834 0.6425435896867342
1.9888002841204815 12.484096280498106 39.73192074647263 176.8707901964291 0.6565717106347897
1.9993475600165866 12.442011877784555 37.05530306463194 184.89163401496018 0.671206686885443
2.009178894427696 12.39853068290179 34.59792420079894 193.33501118938733 0.6864131625754045
2.0183100131422025 12.353478680189879 32.33836542710255 202.2437286494467 0.7022892359125231
2.0267192949173225 12.306954081245474 30.25593111232588 211.65415552671666 0.7188938375163394
2.0343559341203714 12.258826363404664 28.341344056664546 221.57887405089497 0.7361802443098144
2.0412534030779814 12.209303453308234 26.576604955179764 232.07581632431263 0.7542830038518196
2.047369857534057 12.15808156953432 24.94613075160254 243.17480580629552 0.7732159768857557
2.0526864883533396 12.105538014112076 23.449741741810215 254.92009152254133 0.7930220398375407
2.057214189090134 12.051442578457735 22.068627126460775 267.3616658819845 0.8137863049642612
2.0609236286507824 11.99587324946525 20.793177108005217 280.5471627090395 0.835546980807501
2.0638150975234435 11.938816395743215 19.61775798888451 294.5326493583884 0.8583749610135895
2.0658750328243287 11.880322251723884 18.531340041207933 309.3867022694599 0.8823750266903966
2.0664252801630636 11.826430016848253 17.660403110677304 327.41658575917756 3.0269958600303584
