M[M_sun], R[km], Lambda[1], P_c[MeV/fm^3], rho_c[fm^-3]
0.23841724892012095 16.20908015294055 2780876.1263280716 3.453507347168396 0.169602847481901
0.24843272428494242 15.865740693233779 2281375.8746571653 3.63587009863914 0.1719825561518994
0.25873202720565924 15.561852218865665 1880414.151597422 3.825427658460284 0.17438300288848368
0.269314972564721 15.292311768820003 1556669.8032854125 4.021331260533072 0.17677951176163134
0.28018864998723847 15.05237190986491 1293901.1888651736 4.223835637967174 0.17916221289263098
0.29133796092093495 14.8381865938247 1079572.907597512 4.434338527573082 0.18156870676988546
0.30278170745198635 14.646600569924226 903955.9623154285 4.653188541291719 0.1840027811147917
0.31450690562606043 14.475136511742413 759473.931328968 4.880753737567177 0.1864660720465544
0.32651624568938975 14.321222078244853 640137.2161390171 5.114485531667746 0.18890158297195467
0.3388113243480877 14.183004188565137 541120.9557703406 5.357322538366746 0.1913561859361933
0.35138731008976526 14.05870759941918 458754.3811860053 5.609881088241486 0.19384086354271013
0.36424783960020607 13.946881133689539 389986.2779163565 5.872575401833221 0.19636104481387062
0.3774007204161593 13.84625221039129 332325.82015151746 6.142540106064539 0.19886096489754534
0.39083521948067285 13.755662931536554 283905.29187790165 6.422740424047661 0.20138694001646865
0.4045513932274847 13.674191728452596 243107.09930161017 6.714207567948792 0.20394722406793314
0.41855265955237025 13.600841710217228 208629.6858232313 7.017377408360428 0.20653918059033483
0.4328427882703962 13.53485919244391 179420.88551790421 7.328222938780276 0.20910248658342417
0.4474131090829369 13.47554857727311 154596.13934995752 7.651646110752568 0.2117101987778053
0.4622712344955997 13.422445546610604 133486.48522629013 7.988182146185694 0.21436220944959866
0.47741410214166113 13.374830252136892 115460.14652615137 8.336379787539046 0.2170280991891092
0.4928361263225233 13.332206155523211 100044.65717064653 8.695259716005413 0.2196842338990054
0.5085429609941515 13.294303644774303 86844.7070435397 9.068782083283795 0.22238882659414067
0.5245328140660739 13.260480390224258 74760.41001624237 9.45755563349726 0.22514437347890215
0.5407961537783744 13.230472480660955 65752.57511656174 9.85681450857534 0.22788222136329453
0.5573463780159271 13.204135643676457 57350.94430610795 10.271461101998561 0.23065823810637776
0.5741726128678388 13.180926708831457 50091.83103983851 10.703083247493607 0.2334846961599343
0.5912731767485906 13.160607073610038 43813.9810431541 11.149504731775577 0.2363250215020556
0.6086438286925057 13.142931015304393 38377.91733155954 11.609975312185142 0.2391736049292959
0.6262890363581277 13.127717916343684 33661.04636234465 12.089353954299416 0.242081563503868
0.644210997676826 13.114976011317315 29562.864054920097 12.588298726178548 0.24504831280032222
0.6623839143635449 13.103926106780303 25994.972389463783 13.099863617614186 0.24798311943989623
0.6808278605151 13.094934604731037 22886.861281240428 13.632457810092355 0.2509765598980872
0.6995229381055857 13.087506872333972 20174.469913656387 14.18699359298391 0.25403089665021555
0.718488883054544 13.081646918703564 17802.47755883745 14.758666102902366 0.2570935848176771
0.7376940458749762 13.077292910788037 15729.934114165839 15.350714785439349 0.2601927267254644
0.7571462202492394 13.074013224446686 13911.874097628617 15.967111481980645 0.2633573129472715
0.776837524972987 13.07200574853815 12318.241733797542 16.6063710516239 0.2665609836290599
0.7967753724113117 13.07089546063431 10917.811715149546 17.26481178968093 0.26976459940870806
0.8169517257081647 13.070826147232646 9686.986469039502 17.950412355897907 0.27304073858800154
0.8373339224455476 13.071376441168075 8603.219917643037 18.664212662699402 0.2763905944969794
0.8579447296826177 13.0726621101152 7648.68782382976 19.39840891953878 0.27973921768744375
0.8787661306256839 13.074590688972542 6806.402269754165 20.161407850853656 0.28314615877854177
0.8997990921473167 13.077086466025499 6062.876560809531 20.955829476628924 0.2866263152091063
0.9210301564983504 13.079915662167384 5405.352496289853 21.77839819662176 0.29014595990693176
0.942453817468095 13.083144625306517 4823.414259766748 22.628230316623764 0.2936964663368382
0.9640615938892099 13.086648655773793 4308.30277341875 23.51304843826763 0.2973306811692678
0.9858231204224984 13.090216839882215 3851.391918060058 24.434170199684388 0.30104845598067304
1.0077779638457023 13.094144535297291 3446.1840799369957 25.383112801373944 0.3047672723974805
1.0298807044292257 13.097970252245561 3069.722351659207 26.36949064071401 0.30856103584342925
1.0521227282090997 13.101810028914851 2765.8150821277045 27.396431065577044 0.312443910371218
1.0744988646511318 13.105634518752982 2480.987450364985 28.463205921098883 0.3164027434538545
1.0970043271727985 13.109362245807992 2227.4315940846514 29.56404674185865 0.32039079616809685
1.119611758020118 13.112800894157727 2001.4173717291449 30.710159557306397 0.3244670530229298
1.1423388269871875 13.116144846700369 1799.7229463595577 31.90341197586764 0.32863482103380903
1.1651435616282717 13.119150761763661 1619.7259604717817 33.141707708538824 0.3328762309056204
1.1880307968195036 13.121851125547305 1458.8755433572394 34.42262932498246 0.33717014328218486
1.2109640690780898 13.124062443201037 1315.0537991994577 35.75638263475278 0.34157038773695925
1.2339695618813884 13.12595867838755 1186.3267027090883 37.144999556673284 0.3460742639256174
1.2570019930819518 13.127353076938881 1071.0161140823589 38.58894522311391 0.35066545215811934
1.280054384880252 13.128183936800744 967.7197206361257 40.08221364354048 0.35531226585629405
1.3031228972549052 13.128531973510695 875.012755454744 41.63737356177435 0.36007717168664216
1.3261906523195124 13.128235802692213 791.7966861092 43.256913532146186 0.36496220600995677
1.3492161179830264 13.127331319800865 717.1097209052737 44.94344300453478 0.36996765426058453
1.3722229893774343 13.125718993306492 649.8380826168478 46.69425597261762 0.3750558164621465
1.395154556906953 13.123295977462705 589.471520291166 48.51242527607914 0.3802473742287393
1.418020669050962 13.120220866232904 535.0787711045945 50.406660183451486 0.38557542470276024
1.4408350513920376 13.116475358070245 486.03604382501624 52.38019405167382 0.391042565797388
1.463491849414447 13.111634444828393 441.8844157202518 54.436445564484536 0.396649196817678
1.4860492644977303 13.106075536859745 402.02949325854706 56.579117523851345 0.4023925322236042
1.5084328079482792 13.09958020635268 366.14857176798154 58.80371371654674 0.40825085629229935
1.5307080416231604 13.092140472771103 333.5335454300514 61.12217118467467 0.4142672555300082
1.5527927816127784 13.08384110640792 304.1503411384156 63.539689517917914 0.42044860002553913
1.5746733743962817 13.074424653259499 277.56859021848476 66.06084086911316 0.42679507250283666
1.5963239443460842 13.063994980795298 253.51472866619193 68.69056539612839 0.4333152926256927
1.617751552527803 13.052540045706083 231.7220500798232 71.4340080519347 0.44002262194162994
1.6389319019027877 13.039981338091705 211.96670630230247 74.29668789450707 0.44692356072097356
1.659825858040495 13.02633775479982 194.05349025390737 77.28450854109307 0.4540214440516172
1.6804155521057547 13.01150233598829 177.7933443516814 80.40375718964492 0.4613198182036363
1.7007266333948896 12.995541559689585 163.02305394000604 83.65819636266966 0.4688274676944334
1.7206684662386527 12.978311655765816 149.59938617185105 87.05800759266907 0.4765669371994239
1.7402486920713152 12.959860127224692 137.39707522874707 90.61152743804243 0.4845449205873024
1.7594998270288391 12.940396444074684 126.30188842034578 94.32693709073261 0.49276987243677284
1.778348739549591 12.919572969280235 116.18757605038397 98.21304970881731 0.5012631656540286
1.79675480419471 12.897340298471459 106.9744002681377 102.25911717901855 0.5099653987601864
1.8129247682872929 12.87503685135675 99.3034942165944 107.00869944363366 1.6198286553351617
