M[M_sun], R[km], Lambda[1], P_c[MeV/fm^3], rho_c[fm^-3]
0.23841724892012095 16.20908015294055 2780876.1263280716 3.453507347168396 0.169602847481901
0.2484161194802408 15.86620830557054 2282280.731522374 3.6355791715084607 0.17197885544876773
0.258697164901543 15.562974367964467 1881551.7376959238 3.8248291848508993 0.17437568169938833
0.26926463924767186 15.293462501754494 1558045.92828582 4.0203670071631885 0.17676771595117946
0.28011783423250913 15.053836262524772 1269218.7749327738 4.222515117044029 0.17914677144917646
0.291248577388274 14.839771600392258 1081135.4948265299 4.43264349417968 0.1815496342205419
0.30267108810768273 14.648380696447246 905486.1461434906 4.6510997896956265 0.18398015884130206
0.31437661219002555 14.476884567890176 760985.3790512154 4.8782512795527095 0.18643999615962578
0.3263590527923365 14.323207629212103 641499.8985042674 5.111423298445092 0.18886967416597217
0.33863266482049326 14.184842817070432 542407.6340109489 5.353788665279746 0.19132092455468586
0.351185582675358 14.060632983201835 459942.76726417243 5.605853390553694 0.1938021531618558
0.3640220948594404 13.948751852576066 391087.6791734044 5.868030076150611 0.19631895430802782
0.37714923296721975 13.848136988754064 333347.1520273821 6.13724058254288 0.19881189038862604
0.3905545454852867 13.757437680114798 284823.1261681835 6.416854824559242 0.20133448212250252
0.40424260517435207 13.675863610467577 243935.75477494538 6.707709475771286 0.20389166850086293
0.41821772118458544 13.602463623561224 206786.76708740942 7.00994221319721 0.20647561324282934
0.43247775943265876 13.536461252024433 180092.99151241095 7.320098082510014 0.20903551082353639
0.44701718670304075 13.477061181151658 155215.33650277602 7.642799729253868 0.21163986553069833
0.46184389608959453 13.423818512376663 132540.50150683612 7.978581130605701 0.21428870163138342
0.4769517059399199 13.376176420668996 115959.23209500436 8.325573153992417 0.21694536085297736
0.4923452167918004 13.33350424362644 100502.84033995659 8.68360702444213 0.2195985027920237
0.5080156701115276 13.295417209322395 87251.58062459675 9.056245468358346 0.22229979593569577
0.5239673841080901 13.261517854077155 75869.31537267733 9.444093740140072 0.22505206090040109
0.5402035304150183 13.231559359518002 66077.76833809672 9.841826945994585 0.22777944677501294
0.556714486215349 13.205014538098323 57640.74415630563 10.255437178165037 0.23055234869307503
0.5734974309340539 13.181735175027269 50359.31799178663 10.685976797775036 0.23337585757496448
0.5905679344619873 13.16141789861882 44053.899165973315 11.13056816400172 0.2362045389194859
0.6078937588588929 13.143571433513815 38594.23147400016 11.58982832898697 0.23904971078910256
0.6255031332742208 13.128327699183389 33854.648713246774 12.067938991089479 0.24195422911614128
0.6433714755724969 13.115335822031978 29736.970502644075 12.564700359713838 0.24490799579320544
0.66150977919071 13.104337044890316 26154.176651378144 13.074847843475816 0.247839636445528
0.6799131264583693 13.095234241589997 23028.698599563835 13.605960042083971 0.2508299134053132
0.6985641412477149 13.087762094090635 20303.05973227288 14.15894348190572 0.25388062050118854
0.7174829461939658 13.08191834230603 17919.871880394934 14.727918212346975 0.2569288555383352
0.7366526683614697 13.077446915466808 15834.073971062695 15.31822930251067 0.26002417556229246
0.7560595722611476 13.074176890109307 13908.612462362877 15.932804893861123 0.26318538433521793
0.7757087315629125 13.07205330313921 12403.419566821574 16.56887205187503 0.26637305613951306
0.7956018843436493 13.070983586825191 10995.486462386029 17.225278671576767 0.2695729786540067
0.8157266298971442 13.070736969859194 9756.243526132306 17.90874441636504 0.27284487144606706
0.8360715945777518 13.071363493650617 8666.6540941146 18.6201385329615 0.27618889886784176
0.8566286712766644 13.07260759498301 7706.11260369055 19.350579821153097 0.2795210721622639
0.8774188827831452 13.074503156490106 6858.09982553235 20.111067375759717 0.2829240261365803
0.8983955753815055 13.076830629810871 6109.339465830742 20.90285290479693 0.28639963662818596
0.9195815208558451 13.07976346863152 5447.597174207688 21.720803582151323 0.2898995214337475
0.9409517889157709 13.08284169481436 4861.532761422521 22.56767985564914 0.2934446953210994
0.962508100560761 13.086318751295696 4342.93961035152 23.449385004126242 0.2970733014869277
0.9842419261556014 13.09005946087657 3882.9802767440265 24.366673387897233 0.30078173154593046
1.0061428440752003 13.093867040971 3474.598996494477 25.310516237754246 0.3044827733222867
1.0281843787760745 13.097666216984987 3112.0418413050206 26.29322108890267 0.3082704151021295
1.0503903371968275 13.101578716138725 2789.543430390748 27.316289323586716 0.3121465019931997
1.07272321787506 13.105329592578725 2502.4430542100977 28.376394167844705 0.3160805824664958
1.0951864713777404 13.109123626279452 2246.946346553176 29.47287586499047 0.32006109966506785
1.1177425553705567 13.112489754612412 2019.0420931677838 30.614394331993854 0.3241306323467575
1.140428860917243 13.115899387718876 1815.7831554843392 31.80280294947711 0.3282902150511932
1.1631795734721428 13.118813581470794 1634.3368331093932 33.032903035916135 0.33250355319997604
1.1860278788073644 13.121551910360612 1472.1508098756788 34.30836129456054 0.3367880874324784
1.2089319407256602 13.12388048595911 1327.134532343564 35.63633829824196 0.3411783690482499
1.231895327602294 13.125822000606945 1197.3629747279604 37.01885532133865 0.34567317409078036
1.254895040191107 13.127261837047836 1081.100425390664 38.452695105580034 0.35023222953012356
1.2779158950408076 13.128202416307994 976.8475421422785 39.9390763061164 0.3548673069650197
1.3009271033683913 13.128481552907585 883.3891241078236 41.486944568792296 0.3596196470431353
1.3239524121977637 13.128222562992478 799.4678703777452 43.098761953336336 0.3644913986444584
1.3469616017173114 13.127453183801023 724.1056994479769 44.77712003796228 0.3694842912474053
1.369926846828697 13.125910052730042 656.3177160593825 46.5148443734148 0.37453441564194057
1.392856509513496 13.12371791482046 595.3212281015977 48.32375524500615 0.37971000072930683
1.4156718278318032 13.120598196656193 540.4209923894163 50.208169970787914 0.38502106002554576
1.438438885123521 13.11684040210129 490.9557254128594 52.171285924834535 0.39047038931835265
1.461084870268181 13.112157491750246 446.3402462054771 54.216491737856984 0.39605943366568713
1.4836317218687927 13.10674546444515 406.11598467604784 56.34292911591133 0.4017610594560673
1.5060178310082115 13.100346240863198 369.7955787151071 58.55407419948102 0.4075934474573271
1.5282614143072326 13.093032527164166 336.9737387010267 60.859182871338064 0.4135867246418807
1.550319610954476 13.084833195444517 307.3163639324102 63.262514876380465 0.4197439461143009
1.5721892359376675 13.075561006640145 280.46757066249955 65.76859407131138 0.4260658630206825
1.5938315221402846 13.065239516404684 256.17322466406654 68.3822946745324 0.4325583591301373
1.615251098205625 13.053920812055614 234.17155458951973 71.10868384116289 0.4392361984936983
1.6364253666243709 13.041544606600967 214.21057914447744 73.95321170377836 0.4461064517609295
1.6573288130630879 13.028028071196815 196.1218290962643 76.91962657555595 0.4531633722589561
1.677933902203549 13.01335494532365 179.68654556519724 80.0137235098653 0.4604082755270503
1.6982203977391628 12.997500220025861 164.76530748136574 83.24533259883958 0.46787503433756517
1.718189408284834 12.980625393729131 151.2208540470451 86.62153808008436 0.47557397941315793
1.737774763848638 12.96223435848485 138.8867995292408 90.1498789854388 0.4835098018171572
1.757052919155975 12.942860339025545 127.65574960825603 93.83842752256018 0.49169024687422197
1.7759071826207427 12.922275266541886 117.44831920378361 97.69586365388083 0.5001346944772472
1.7943328229338567 12.900153416053934 108.13197178492334 101.73145062652176 0.508858976337561
1.8123486922029381 12.876902301805291 99.64738716956562 105.95509383842999 0.517870188622365
1.8298980923268373 12.852260429784133 91.90225531279013 110.37743189475462 0.527181250468509
1.846991152379026 12.826385168676664 84.83628126160419 114.99447966791578 0.5367617497082339
1.8617154549131611 12.800348763303706 78.97525755651907 120.11881408768268 1.0372094237255725
