M[M_sun], R[km], Lambda[1], P_c[MeV/fm^3], rho_c[fm^-3]
0.23841724892012095 16.20908015294055 2780876.1263280716 3.453507347168396 0.169602847481901
0.24841145423411942 15.866369366784923 2282481.229611163 3.6354942634516103 0.17197777538617212
0.25868850858582104 15.563145218640285 1881818.942243482 3.8246545308115802 0.17437354513859757
0.2692488824334384 15.2937791314054 1558397.6841689409 4.02008562808217 0.17676427381199855
0.2800974206055368 15.054260164162674 1295891.4715255378 4.222129802075108 0.1791422657884175
0.29122304953061784 14.840179327829095 1081550.9674440217 4.4321489333552435 0.18154406941234158
0.30263860532998477 14.648940715588445 905918.027322337 4.650490393214223 0.18397355875831867
0.3143355721747893 14.477474277907627 761371.7282808749 4.87752122985304 0.18643238896169848
0.3263179237081182 14.32360770441015 641900.0227724485 5.110530013238409 0.18886036603616146
0.3385806483206319 14.185421448916184 542784.1511332828 5.352757861202987 0.19131063907614285
0.35112749552054034 14.061093831733169 460288.37346403743 5.6046786118499705 0.19379086231170622
0.36395806597863406 13.949350022809812 391377.95457102964 5.866704395637326 0.1963066782760586
0.3770741382700798 13.848588127081246 333625.9110453147 6.135695057086161 0.19879757855426944
0.3904724666289744 13.758001261339485 285091.6167071241 6.415138476408876 0.20131918444391292
0.40415624257959026 13.6763899812097 244177.6938134707 6.705814618515837 0.2038754683814328
0.4181193778390194 13.602972364390276 209600.90909809349 7.00777427129159 0.20645707838080338
0.4323694840295957 13.536949144741076 180301.30877070499 7.31772917806896 0.2090159831950143
0.44690506997431245 13.477568489068114 155402.7024157786 7.64022059117653 0.2116193600668832
0.4617172490198359 13.424266848426013 134198.2094500731 7.975782125786668 0.21426727173829482
0.47681923690593236 13.376548518535547 116104.57241911266 8.32242293481741 0.21692124197341453
0.49220137413689696 13.333868148986678 100632.72233679432 8.680210344006666 0.2195735127566989
0.5078593536341232 13.295771202465644 87372.80015111151 9.052591310998645 0.22227384538702455
0.5238063835822228 13.261919584750142 75982.21266496154 9.440170074599454 0.22502515505041254
0.5400288931402223 13.231878128178892 66178.15481114089 9.83745897293018 0.22774949416391288
0.5565273837302527 13.20531458223508 57731.13509271658 10.250767390783116 0.23052148976917738
0.5732981610851333 13.181993834890124 50439.16301534028 10.680991767793083 0.23334414067179673
0.5903502541751331 13.161509833877654 44125.2930936635 11.125050294699212 0.23616943186356176
0.6076512508513029 13.144192150829744 38686.367290263064 11.583958030354166 0.23901361130985865
0.6252693498558564 13.128592506978974 33913.025449176974 12.061699520214585 0.2419171289261571
0.6431361455429632 13.115547071630115 29789.04857668062 12.557825343116331 0.24486711661818783
0.6612582976257572 13.104583029776835 26201.765579548315 13.067560213435339 0.24779783678047382
0.6796488573116811 13.09533988300906 23071.72590810642 13.598241016620905 0.2507871940331972
0.6982845487711821 13.08787404773655 20340.81815535534 14.150772603252605 0.25383684569492365
0.7171963748753528 13.082035964976043 17952.86909234519 14.718962295731018 0.25688087495614426
0.7363492161918918 13.077468404685746 15864.20074892896 15.308767688956099 0.25997508391192026
0.7557446628187959 13.074217745176565 14033.9724894842 15.922813301527356 0.2631353111365611
0.7753786416964737 13.072089407323121 12428.44719526965 16.55795170431028 0.26631832845299963
0.795252844961947 13.070907000120725 11017.131162304086 17.213766444947016 0.26951717780497486
0.8153730832223346 13.070772917522868 9776.839314920348 17.896611035426513 0.27278783645290267
0.8357029395476105 13.071318767275908 8684.60339382745 18.606908924675565 0.27612671087407653
0.856248501719478 13.072570628854931 7722.533659410436 19.336654276069286 0.27945755862242616
0.8770212086238942 13.074485385024278 6873.25798087787 20.09641125865966 0.2828593544781135
0.8979860711919663 13.076821539602504 6123.13600234623 20.887429967015418 0.2863336442559158
0.9191582700428929 13.079698233897894 5460.045946783713 21.704037841623496 0.28982778341561033
0.9405181905609026 13.082846316717543 4872.892611501676 22.550054418006226 0.29337140811127854
0.9620572162400859 13.086201365889554 4352.871776201517 23.430854211437392 0.2969983848632788
0.9837702238328114 13.089868404914913 3892.0676962055977 24.346560705386548 0.30070041962951527
1.0056649841166176 13.093759084634636 3482.994630305251 25.289388261392716 0.30439997477872116
1.0276991625260679 13.097564283880192 3119.4440493627194 26.27102510812381 0.3081858385937506
1.0498927930347777 13.101517087611722 2796.293796229488 27.29296747035817 0.3120599539051644
1.0722019795268498 13.105249473476247 2508.6767281895472 28.35113389056305 0.3159868408293907
1.0946359575618518 13.108922068476012 2252.6105793112847 29.446348349242644 0.31996516958874804
1.1171954080902882 13.112441538445564 2024.258242056167 30.586531261855196 0.3240327501262992
1.1398720121787331 13.11582907887563 1820.5001330144426 31.77353188125228 0.3281899558041881
1.1626215118990555 13.11881636275569 1638.6261741520088 33.00125089209151 0.3323951382941182
1.1854416328243957 13.121469324618102 1476.036918016831 34.27512133893965 0.3366769494401453
1.2083385133261673 13.123821427932125 1330.6912628745686 35.60141967214429 0.3410643382292024
1.2312857426982922 13.125762843444605 1200.605314706361 36.98216408206874 0.34555651015398064
1.254269426620018 13.12720511430152 1083.996104511434 38.413068734622705 0.3501062330108193
1.2772826376912418 13.128138970005928 979.5644830331345 39.89744889481404 0.35473790336486166
1.3002874463553225 13.128518939050204 885.8976637883438 41.443198738671676 0.35948659559517915
1.3233052760003061 13.128300410989404 801.7152167623161 43.05277264680283 0.36435449135328196
1.3463135263030837 13.127578905104114 726.173177417469 44.72875702097656 0.36934374004092796
1.3692584172438746 13.125943854551204 658.1572492608749 46.462681414948335 0.3743828211550198
1.392170850180818 13.123756771487075 597.0299681481721 48.2689033264705 0.3795537704724587
1.4149923874316566 13.1206828143346 541.983098000273 50.15046613443796 0.3848598985849744
1.437746227384251 13.116961082312955 492.384173111044 52.11055679041876 0.39030405887046343
1.4603830964969815 13.112308150747515 447.66086713206147 54.152555223640725 0.39588800041203737
1.4829270448674368 13.106945126669657 407.31584817116317 56.274023420728604 0.4015763023158795
1.5053010264105844 13.100505438583195 370.89124476550927 58.48152144913272 0.4074023846815249
1.5275419194426476 13.093355604433057 338.00646846226516 60.7827550938064 0.41338895363578027
1.549576041587134 13.085005972073416 308.25021653365593 63.181969263636695 0.419539177089479
1.5714607972976893 13.075850327701716 281.30591994561786 65.68367383891051 0.4258539714305633
1.5931127473500843 13.065674963674478 256.963547233597 68.29272395201072 0.43233842556088115
1.6145248956730966 13.054331124071064 234.8818885893218 71.01416424136 0.4390077112581564
1.635698283506782 13.041969434587681 214.87221818433977 73.85342489797232 0.44586906502112283
1.656589396143276 13.028466479747637 196.7184237915586 76.8121611584658 0.4529077185700848
1.6772009980229274 13.01388726963695 180.24767363804094 79.90023134160269 0.46014268437326855
1.6974972052858357 12.998134640204121 165.28078061762145 83.1254195458642 0.46759840751394144
1.7174579191137467 12.981218823714714 151.6954867191239 86.49477817903234 0.47528560364553435
1.7370801723918883 12.963001345012149 139.31298113142125 90.01581663026103 0.4832092041233238
1.7563403074953774 12.943646813640056 128.0609451300767 93.69657560263323 0.4913767484929661
1.7751757212917723 12.92295279857709 117.81354916838745 97.5456965543769 0.4998070382269026
1.7936400655989972 12.901068436807062 108.475929559214 101.57240040171965 0.5085162339063363
1.8116543267511496 12.877843284050444 99.96480978177478 105.78655138937964 0.5175117420905891
1.8292228353365823 12.85325292253283 92.19057368292978 110.19874322945908 0.526806045895321
1.8463214656288645 12.827438214846017 85.10358018660496 114.82036285559316 0.5364225752193252
1.8629340515657486 12.800231505261555 78.63020619997167 119.6636298805576 0.5463811924094477
1.8790175946511882 12.771501095696184 72.70837613287438 124.74127763165063 0.5566889267739048
1.894578466872745 12.741436665105788 67.2901190399031 130.06068752914322 0.5673446033103438
1.9095801237871644 12.709877833282068 62.33335511860849 135.64277134434428 0.5783988246712325
1.9240381644188167 12.677185315754194 57.803163246641276 141.50381563081675 0.5898703103968546
1.9378756679575837 12.642651774486827 53.641617865854556 147.6613735793707 0.6017768652794367
1.9511343358224564 12.60694583197297 49.830225908211695 154.13434454835564 0.6141538592543584
1.9637607340901215 12.569655490739626 46.333915078747225 160.94315802199736 0.6270333417143918
1.9743087107103003 12.532665290856242 43.39790673701772 168.57020087999666 0.96022662196077
1.978721608515469 12.495756249730999 41.49968899015882 177.25651407171844 1.4060483237715113
