M[M_sun], R[km], Lambda[1], P_c[MeV/fm^3], rho_c[fm^-3]
0.23841724892012095 16.20908015294055 2780876.1263280716 3.453507347168396 0.169602847481901
0.24841609370466206 15.866235727867636 2282146.1028483505 3.63558427070598 0.1719789203124887
0.2586985644508762 15.562835303600933 1881606.5528787205 3.8248396739696706 0.17437581001385494
0.2692651533018614 15.293488905534357 1558042.3109405607 4.0203839061269875 0.17676792267793826
0.2801192708908637 15.053773317343396 1295352.164925243 4.2225382585354625 0.17914704205301554
0.2912507856357781 14.839726673280255 1081064.1937637716 4.43267319730543 0.18154996844070168
0.30267338063004107 14.648324091714189 905425.3953875978 4.651136390376339 0.1839805552458389
0.3143785036228463 14.476842918490366 760896.465793407 4.878295127395969 0.18644045305896087
0.3263653267480815 14.323049446552774 641480.7587991707 5.1114769514478455 0.1888702332361444
0.3386353849930498 14.184816569748886 542402.987855993 5.353850578930199 0.19132154233602533
0.3511895612113125 14.060559314059077 459925.4789518376 5.605923952827751 0.19380283133899678
0.364025367889671 13.948764589590983 391070.0170202517 5.868109703350042 0.1963196916697345
0.37715277134363995 13.84814622923935 333325.3994070715 6.137333416528828 0.19881275004747137
0.3905588831176408 13.757452460549462 284808.3803996494 6.416957920632579 0.20133540100984681
0.40424862206302625 13.675927411761005 243929.0504967529 6.707823295879564 0.20389264160812068
0.41822293327158155 13.602451446417717 209373.20091340557 7.010072439467158 0.20647672661488944
0.4324820933678709 13.536433423615401 180078.9843186134 7.320240382250376 0.2090366838453014
0.44702427561667224 13.47704847888506 155205.78329878987 7.64295465965549 0.21164109730645017
0.4618510093272408 13.42378165144274 134026.2657230821 7.978749270618059 0.21428998895410048
0.4769617377286445 13.37610668407049 115953.63513093084 8.325762395695008 0.2169468097356041
0.49235422139653556 13.333451314988093 100488.67373897915 8.683811074164979 0.21960000402532454
0.5080241757971559 13.295409867728036 87245.30853190689 9.056464988162155 0.22230135488863412
0.5239777293409994 13.261554462139328 75866.05584440751 9.44432945311903 0.22505367726091563
0.5402153311346578 13.23151072125872 66073.69961752261 9.84208935594399 0.22778124620533163
0.5567223758615422 13.205007288044241 57637.853842839846 10.255717723084826 0.23055420259211187
0.5735103066039939 13.181680308009794 50349.947361815925 10.686276284754054 0.2333777630398359
0.5905764479841455 13.161334796487862 44051.52938461616 11.130899669406373 0.2362066480993418
0.6079059464474255 13.143608960678025 38591.70787878221 11.590181011704184 0.2390518796161463
0.6255138121098873 13.128364765437764 33852.82373351948 12.068313857449123 0.2419564580893091
0.6433871307078667 13.115304006462772 29734.69347704794 12.565113418342996 0.2449104518594206
0.6615252667284856 13.104461657302254 25947.128055025198 13.075285697068107 0.24784214784270361
0.6799275518641484 13.095242826840574 23026.972371661264 13.606423819572974 0.2508324800872378
0.6985786883170739 13.087778035942192 20301.911439822597 14.159434412953823 0.25388325062365547
0.7175008088933105 13.081944976322664 17918.064502942223 14.728456322543641 0.25693173841918665
0.736673358276994 13.077455763835449 15832.004253147137 15.318797803065154 0.2600271252315319
0.7560795237899597 13.074186045097104 14004.43230825727 15.933405244347398 0.263188393011729
0.7757286588263377 13.072045668647064 12401.838111255154 16.569528221749298 0.2663763445567512
0.7956258146501352 13.071073257753374 10921.079511811015 17.22597041268702 0.2695763315884566
0.8157457936817284 13.070745958144752 9755.415323657096 17.909473488505565 0.2728482985720068
0.8360959927063952 13.071345255287342 8665.47005734514 18.620933493469078 0.2761926357131073
0.8566524290232033 13.072575978517575 7704.556750376636 19.351416608643294 0.2795248886976508
0.8774421987202671 13.074488566921751 6856.579431526047 20.111948072322008 0.282927912302807
0.8984188090314554 13.076851278112164 6108.328136302327 20.903779689534584 0.28640360219715133
0.9196094360779629 13.07974796672406 5446.8658690856955 21.7218110812058 0.28990383236682693
0.9409784788194242 13.082857677463382 4861.217320374916 22.568739026985096 0.2934490993939802
0.9625368243403151 13.08630108105033 4342.155746623205 23.450498592623948 0.2970778035226357
0.9842709294357532 13.090008557429337 3882.218076470605 24.36788206734922 0.3007866180170673
1.006174435766379 13.093842310648883 3473.9926127658537 25.311785944694407 0.30448774918384586
1.0282115136541394 13.097570025612969 3111.359508353006 26.294554992370067 0.30827549786458597
1.0504228535440594 13.101535660480593 2788.9530133917656 27.31769090274522 0.31215170329496633
1.0727505413667213 13.105358157884735 2502.035311631737 28.37791227831466 0.31608621621941047
1.0952160145260623 13.109130584645792 2246.6572318291137 29.47447015167578 0.3200668650011382
1.117772585354611 13.112516525984248 2018.7827592246456 30.616068902450692 0.3241365150680015
1.14046860585925 13.115950403141206 1815.5210293867367 31.80456215951071 0.328296240696446
1.1632196641216914 13.118885821743136 1634.0832571394603 33.03480539835324 0.3325100691707637
1.1860589911856212 13.121553619235229 1471.9134154512847 34.31035910980435 0.3367947671398096
1.2089639435252204 13.123894882858824 1326.9699676594344 35.63843702968796 0.34118522269893703
1.231935649525651 13.125881610992765 1197.17958583709 37.02106061791839 0.3456801860801796
1.2549306124814639 13.12727461972044 1080.885904295251 38.4550768781831 0.35023980264495874
1.2779505877850394 13.128202130058233 976.6828336782551 39.941578381591704 0.3548750849546723
1.3009664769026548 13.128481910948556 883.2420290449372 41.48957400579056 0.3596276443859441
1.323997857658941 13.128309853675447 799.3550642519313 43.10152627244697 0.36449962784967826
1.3470022738475025 13.127473430984343 723.9517301266113 44.780027071213986 0.3694927395836809
1.369978100495153 13.12601684220716 656.2176272377168 46.5179799012094 0.37454352802247304
1.392891667393326 13.12366687749169 595.2084943710456 48.32705244819747 0.37971939188489834
1.4157159961699226 13.120547877555735 540.320833663386 50.211638650088865 0.3850307477237714
1.4384744357634138 13.116780906221623 490.86584548936685 52.1749365080216 0.3904803878658769
1.4611251286042575 13.11214207656988 446.26246840527955 54.220335176275626 0.39606973909383547
1.483676646228604 13.106709255881015 406.0336796582158 56.347071386427544 0.4017721661440186
1.5060620089020471 13.100323643578802 369.7215013236485 58.55843577333068 0.4076049333679588
1.5283014878053789 13.09306171843086 336.91652176716644 60.86377746107918 0.41359861399238995
1.5503529131650942 13.084711497605621 307.2510470258196 63.26735708730806 0.4197562563417093
1.572247525873473 13.075678035841836 280.4319362113948 65.77369934978428 0.4260786016289392
1.5938753113656963 13.065193115753251 256.1287282171592 68.38767961540202 0.43257158141117225
1.6153056325279511 13.05391321390459 234.12552065174532 71.11436639423641 0.4392499352302619
1.6364794073567095 13.041609640899862 214.18298345278208 73.95921101896225 0.446120723766743
1.657369950769638 13.02799129001073 196.08335493928496 76.92608773711169 0.45317874296918864
1.6779830715150583 13.013339948776547 179.6525989255711 80.02054713206071 0.4604242439742092
1.6982585911206904 12.997439350159945 164.73762460845182 83.25254239400954 0.46789166657807074
1.7182332414498211 12.980525681936621 151.18029875638913 86.62915967628392 0.4755913183636961
1.737816839620879 12.962201568806766 138.86038674331346 90.15793979494734 0.4835278759494927
1.7571145153063177 12.94301050361534 127.64140156429053 93.84695685401441 0.4917090970357529
1.7759413801362989 12.922192995003273 117.42685779764489 97.70489313359266 0.500154396299249
1.7944085870773707 12.900302489438248 108.11141320870063 101.74101442890947 0.5088795856821011
1.81238734454618 12.876811221208895 99.62310643562748 105.96522861530116 0.5178917426916233
1.8299549126162054 12.852296660971852 91.88566100076129 110.3881770005188 0.5272038126876372
1.8470531969304447 12.826422189668746 84.81983344654289 115.0213028738409 0.5368396875413978
1.8636177312738351 12.798921640692543 78.36348223542895 119.87688691293603 0.5468189468072211
1.8797013943146395 12.770231594002812 72.4590093311237 124.9645295473389 0.5571366231569171
1.8952429163467075 12.740099098287565 67.06954832059225 130.2979489054175 0.5678154912624477
1.9102324280774527 12.708439350973844 62.12259700506298 135.89505466380436 0.5788944883599402
1.9246627291736733 12.675486053603358 57.60160687455798 141.77221284779887 0.5903918479696159
1.938520882246005 12.641272944113657 53.46451198531539 147.94706522189423 0.6023264157677759
1.951748785804897 12.605412670599861 49.6652983051375 154.4386122178545 0.6147336591806999
1.9643201545376079 12.567908287846564 46.181310095152114 161.26578151403916 0.6276398476585384
1.9762674891544973 12.529000362855582 42.98294943323654 168.43812713933943 0.6410185806483563
1.987557113363134 12.488700090976113 40.04806202037707 175.99201944195113 0.6549582324307648
1.998198440168902 12.447015364854064 37.352916929830265 183.95328266381605 0.6694983135372807
2.0080850837504087 12.403581238215837 34.86988670888832 192.34255120952332 0.6846381429268613
2.0172928684488656 12.358842991671976 32.59257399657242 201.18251901389593 0.7004063139253126
2.02577690709894 12.312562522255629 30.493790263176106 210.51873531484617 0.7168949392088886
2.033492901257107 12.264644186072283 28.560953187162866 220.3742158740511 0.7340942065626763
2.040473539585342 12.215322724578957 26.77937730917147 230.78509932647142 0.7520644648570205
2.0466639017192856 12.164362713360294 25.13823698107962 241.80229260724667 0.7708935958085171
2.052089033176381 12.112065170976368 23.62690770975492 253.44741836321882 0.7905477417035124
2.056686041714669 12.058141554542567 22.2329665520362 265.7922512983098 0.8111861979010152
2.06050991849162 12.002902206481314 20.947272590908234 278.86073663077843 0.8327745438418596
2.0635035199316776 11.946042172365988 19.758430245798607 292.7316092483802 0.8554531618920554
2.0656631208643006 11.887849993990837 18.66463838216198 307.4484412432014 0.8792519159027838
2.0669873517826582 11.8281195629132 17.653068099481718 323.0830670613007 0.904251295065728
2.067457768286823 11.767008320767998 16.71992062645204 339.71283656342587 0.9305714033829148
