M[M_sun], R[km], Lambda[1], P_c[MeV/fm^3], rho_c[fm^-3]
0.23841724892012095 16.20908015294055 2780876.1263280716 3.453507347168396 0.169602847481901
0.24841702560142245 15.866143421042358 2281933.4548418503 3.6355943287723087 0.17197904825489638
0.2587002518889356 15.562818038099495 1881578.2467688979 3.82486036360877 0.17437606311233378
0.269267416074427 15.293396392897039 1557993.2963342897 4.020417239197277 0.17676833044480866
0.2801224269641097 15.053681055590639 1295338.5235753064 4.2225839050687215 0.17914757581840302
0.2912535465418057 14.839686158720118 1081053.0936478463 4.432731786804325 0.18155062769090466
0.30267821914314585 14.648284866388053 905413.1719270565 4.651208585511451 0.1839813371569547
0.31438172789748586 14.476823351385082 760864.000067021 4.878381617838134 0.18644135429885272
0.3263705540662881 14.323011948718017 641429.7719540813 5.111582783026502 0.18887133601279943
0.3386422540337397 14.184753307185398 542402.8666878653 5.353972705097882 0.19132276092460637
0.3511966140230284 14.060518001991472 459886.75005615 5.606063138949669 0.19380416906297876
0.36403387099467244 13.948618476839213 391021.8566577889 5.868266770668256 0.196321146140401
0.3771609106332044 13.84809646987934 328652.05379076593 6.137516535262881 0.1988144457587765
0.3905688977936965 13.757345683031788 284769.8273573863 6.417161282208171 0.20133721355587378
0.40425751353195555 13.67584664207346 243899.60359729003 6.7080478115908395 0.2038945611096167
0.4182348989250745 13.602390583069704 209345.42218402406 7.010329317975381 0.20647892280275545
0.43249492090652697 13.53636573611251 180063.44765181743 7.320521076955677 0.20903899770053264
0.44703722103039567 13.477003842956309 155186.81199338174 7.643260269742082 0.21164352706258738
0.46186501206205516 13.423768456145778 134007.8162652774 7.979080938194793 0.21429252828545928
0.4769776615394349 13.376051604707659 115931.86608450864 8.326135689038535 0.21694966776442492
0.49237124392695597 13.333445895342694 100475.00235098552 8.684213578249173 0.21960296532576873
0.5080422335339777 13.295356336570642 87225.81179938582 9.056898009057864 0.22230443005172196
0.5239963796350685 13.261530695234049 75856.06611441211 9.44479441729836 0.2250568656714286
0.5402353060231536 13.231487337983978 66063.25942786931 9.8426069839725 0.22778479574897667
0.5567483996963867 13.205048559983439 57629.24204443629 10.256271125092507 0.23055785958739733
0.5735336699494556 13.181683045027727 50344.72336366256 10.686867052922626 0.23338152176081953
0.5906018070420949 13.161366541551054 44040.64111718381 11.131553599428793 0.23621080868318475
0.6079312132541855 13.143561862231941 38584.32166121788 11.590876717540235 0.23905615786840556
0.6255409287530196 13.128397853185666 33847.038846494215 12.069053324338928 0.24196085499453535
0.643417872699547 13.11537460163965 29729.050451872197 12.565928226785417 0.24491529674909485
0.6615487940155079 13.104282004345025 26146.568321437804 13.076149418152749 0.24784710188837247
0.6799602403859102 13.095223958120211 23021.560316725674 13.607338680422098 0.2508375431980197
0.6986119186136417 13.08771233271333 20295.577178685515 14.160402839404659 0.25388843888823104
0.7175357865611793 13.081924639346296 17913.825702823 14.729517819995024 0.25693742530394625
0.7367069480427239 13.077395473353363 15827.764479871215 15.319919251698273 0.2600329438758772
0.7561169401365524 13.074172791235622 14001.597210953265 15.93458952358033 0.2631943280666547
0.7757661210452635 13.072039269839479 12398.900056720528 16.570822617750622 0.2663828314655391
0.7956618134295488 13.070952116232892 10991.213157451095 17.227334980766976 0.26958294577873204
0.8157880822270293 13.070747608479014 9752.897010937486 17.910911700373802 0.2728550591282351
0.8361361143268644 13.071379704999336 8663.409067541921 18.622501686742304 0.2762000072687415
0.8566990146508369 13.072629760027954 7703.023100400576 19.353067315494737 0.2795324174683193
0.8774867862527808 13.074559227107503 6855.478497211104 20.113685400314456 0.2829355784453334
0.8984664700053859 13.076842415328265 6106.891034197467 20.905607937627714 0.28641142498879285
0.9196586883606263 13.079756806888083 5445.3500689196 21.72379856049348 0.28991233648419357
0.9410328763509707 13.082976767921338 4859.866627996917 22.570828443028258 0.2934577872617688
0.9625898826254727 13.086305771220829 4341.015821418035 23.45269536059869 0.2970866846559132
0.9843193831788299 13.090017528702381 3881.2882960852403 24.370266430182504 0.30079625756222994
1.006228031720936 13.093841650137529 3473.0790437802048 25.31429070082211 0.3044975650865055
1.0282708653750292 13.097584430545004 3110.389948016584 26.29718639381578 0.3082855246684762
1.0504831086390696 13.101558109442337 2788.12063790151 27.320455813377247 0.3121619639602079
1.0728047514881347 13.105251248471037 2501.2602583770786 28.380907083965276 0.31609733003187457
1.0952711290286676 13.108993163918573 2245.792883171499 29.477615237191227 0.32007823841040867
1.1178374256436434 13.112533840252421 2018.2270721263164 30.619372371503115 0.3241481200664621
1.1405205594146202 13.115866336208471 1814.983014387723 31.808032605555884 0.3283081276663573
1.1632873335930976 13.11890083307934 1633.5936143274848 33.038558261439164 0.33252292347536977
1.186130962937152 13.121584306896999 1471.5252960802939 34.314300283561636 0.3368079444780653
1.2090334035141854 13.123887348386658 1326.5514511228162 35.64257729282755 0.3411987432078929
1.2320019355710867 13.125787493544015 1196.7312098260868 37.02541111522477 0.3456940189774297
1.255005397466602 13.12727198397508 1080.5546837908523 38.459775539171 0.3502547425679333
1.2780237994724233 13.128144276445596 976.3492533388572 39.946514380624315 0.35489042907589463
1.3010439815849104 13.128495846430015 882.9947959685976 41.49476126905073 0.3596434212699532
1.3240710147401864 13.12829723770716 799.0937583743668 43.10697963753797 0.3645158621767139
1.3470777641172262 13.127410895993224 723.7062452636962 44.78576199023464 0.36950940624009815
1.3700495280098515 13.125903782233094 655.9639011852894 46.52416561665684 0.374561504770477
1.3929607619844224 13.123632326742186 594.9899842327837 48.333557127846326 0.3797379186347256
1.4157986552102622 13.120608581666458 540.1338331960251 50.218481630374576 0.38504985953037574
1.4385569901236477 13.116794153844014 490.6881511242892 52.18213836262742 0.39050011295686893
1.4612139014102523 13.112203793888813 446.1340880244041 54.227917511945336 0.39609006964344484
1.4837575433001928 13.10670407484472 405.9038322739577 56.35524329729832 0.40179407752417884
1.5061487815741408 13.100312011164585 369.5965247101331 58.567040347982015 0.40762759293509565
1.5283889612448374 13.093011405875728 336.789753090491 60.872841754438284 0.4136220695274731
1.5504465474417028 13.084796094980158 307.15022533271303 63.27690991579096 0.4197805422501045
1.572317291852091 13.07549644513209 280.3172599182979 65.78377118935659 0.4261037327201063
1.5939660922794747 13.065187662270674 256.03029020709 68.39830320816242 0.4325976667726424
1.6153945904669251 13.053870304304464 234.030075945906 71.12557715580735 0.4392770355980693
1.6365534724027504 13.04144742434014 214.09966640860995 73.9710467329701 0.4461488802102619
1.6574531445409428 13.027910177854585 196.00939183277558 76.93883466789318 0.453209067141972
1.6780721073435185 13.013307176160257 179.5875466268116 80.0340091825515 0.4604557474830139
1.6983447906781497 12.997412833571786 164.67802918917883 83.26676635043955 0.4679244797521912
1.7183189153477096 12.980412555705497 151.12362020993632 86.64419610498813 0.4756255258822718
1.7379128842812581 12.962219716370674 138.81620487972592 90.17384278294611 0.4835635339946699
1.7571762779740823 12.942745904023392 127.58801384591062 93.85241932488076 0.4917082045764117
1.7749827781652603 12.92246513972587 117.85788707461914 97.89814704012564 0.8197784394017362
1.7771510915482465 12.90082891310834 115.02255606496503 103.70896664816411 1.8614761209832928
