M[M_sun], R[km], Lambda[1], P_c[MeV/fm^3], rho_c[fm^-3]
0.23841724892012095 16.20908015294055 2780876.1263280716 3.453507347168396 0.169602847481901
0.24841512506716534 15.866189229171626 2282004.5304262955 3.635559676005737 0.17197860745859983
0.25869577269148125 15.562928105001216 1881638.5759176875 3.824789082523828 0.17437519112350489
0.26926046020193606 15.293530224567572 1558180.4892963294 4.020302398837178 0.17676692559089552
0.28011408841922336 15.053874380597883 1295506.4252551203 4.222426642610221 0.17914573687793803
0.291243020826449 14.839836667286997 1081339.1402858587 4.432529933837083 0.18154835643731587
0.3026648736951678 14.648492451676912 905588.7954651449 4.650959859368177 0.183978643322586
0.31436671636499036 14.477003737240317 761006.5106153424 4.878083642844675 0.18643824936674513
0.32635190527343966 14.323222379449527 641569.0907631872 5.111218176223441 0.188867536769929
0.3386213638260235 14.185032005632424 542501.5237397137 5.353551962508278 0.191318562707918
0.3511722596213251 14.060688742277668 460047.4547968986 5.6055836241881405 0.19379956042536917
0.36400741648480706 13.94897095273464 391179.9351288539 5.867725654864703 0.19631613531400893
0.3771315734053552 13.848295269836246 333420.83180202154 6.136885672479563 0.19880860385975288
0.39053576554534497 13.757557411249692 284876.4087125603 6.416460683365922 0.20133096917246784
0.40422173015680757 13.675980881964177 243992.0250755905 6.70727433765854 0.20388794827899673
0.41819554711575796 13.602592025651768 209432.2007343196 7.009444356427075 0.20647135680656634
0.4324515911003286 13.536517572248062 180134.14920357853 7.3195540706197715 0.20903102636147022
0.44699172273076343 13.477213139285356 155261.65972749618 7.6422074323925795 0.21163515646840977
0.4618172917131423 13.423956768492722 134070.4110132774 7.977938335752757 0.21428378023043304
0.47692236032169316 13.376235111451939 115994.90182818467 8.324849691868375 0.21693982184287403
0.4923101336075903 13.33364759815258 100533.9167887221 8.682826954527318 0.21959276366669314
0.5079765051203855 13.295557406816728 87275.92710596877 9.055406259962016 0.22229383617091542
0.5239313489405051 13.261624515187949 75897.22594790415 9.443192629268516 0.22504588169025125
0.5401643302642519 13.231573156203739 66102.08742721588 9.840823780426891 0.2277725677426391
0.5566669539136633 13.205145238094214 57666.352047958215 10.25436468786223 0.230545261454636
0.5734543943007641 13.181846238941201 50377.80931114252 10.68483189771078 0.23336857322871055
0.5905178770993651 13.161437577570219 44070.75399280761 11.129300868833283 0.2361964758429773
0.607841478980189 13.143677350010185 38609.063937261366 11.588480080201164 0.23904141971532533
0.6254453838244339 13.128459288631676 33870.710010703784 12.066505942099392 0.2419457081388253
0.643318410929226 13.115363234545812 29750.142951594757 12.563121317493492 0.2448986067332126
0.6614529126160877 13.104406936355849 26164.84477083495 13.073174019868322 0.2478300358942151
0.6798529824059728 13.095247229338813 23038.285041678246 13.604187121910911 0.2508201015402057
0.6985004455397141 13.087734423952266 20310.50340897061 14.157066764969883 0.2538705661454983
0.7174171192331807 13.081941552667349 17927.376809089088 14.725861152556483 0.25691783501072407
0.7365829035757814 13.077417936884087 15840.408608807891 15.316056074197844 0.26001289975147046
0.7559883908842582 13.074186648122131 14012.914461441575 15.930509918085708 0.2631738829874771
0.7756336719145407 13.07200757315304 12408.72990072632 16.56636370909829 0.26636048549591956
0.7955221417628143 13.070938210388684 11000.063946747798 17.222634357889028 0.2695601614159842
0.8156467220466378 13.070749847041712 9760.979875046109 17.90595740536303 0.27283177063317293
0.8359881792594915 13.071353131469051 8671.013229332439 18.61709967061053 0.2761746141854195
0.856549695303968 13.07267733299368 7709.713249759288 19.347381077412518 0.2795064828922012
0.8773257377451075 13.074506259150926 6861.352892678248 20.10770079242924 0.28290917073348393
0.8982993680155918 13.076850133290522 6112.667367878913 20.899310152891083 0.2863844777391375
0.9194847370359852 13.079742776465606 5450.450693809963 21.716952314135987 0.28988304245184526
0.9408476192006185 13.082820724950524 4864.471704754012 22.563631076281123 0.293427860349448
0.962402338846122 13.086294978371885 4345.295780638156 23.44512822204378 0.29705609209137823
0.9841407897018187 13.089979254705833 3884.8845211326866 24.362053143199795 0.30076305273715115
1.0060313339795979 13.093799713856004 3476.406148903898 25.305662725669855 0.3044637528669014
1.0280768608775523 13.09765791017198 3113.505401228919 26.288122197041528 0.3082509860679042
1.050275888986963 13.101549034184115 2790.9741860236686 27.310931754282922 0.3121266198948426
1.072601511771355 13.10534620386557 2503.9685377059536 28.370591193901003 0.3160590474583288
1.0950585809118232 13.109048599670032 2248.2797731199626 29.466781725183203 0.32003906174405133
1.117614879436928 13.112535201877778 2020.3136836171586 30.60799332713792 0.3241081457878339
1.1402995921747927 13.115860143163893 1816.8010868657966 31.796078431639565 0.3282671822363439
1.1630502743506628 13.118853220897911 1635.3704346757006 33.02563137349479 0.3324786463057951
1.1858936122909933 13.121540761331365 1473.077458795056 34.300724792564864 0.33676255474194394
1.2087957447673456 13.123854082249219 1327.950834684254 35.62831607588989 0.34115217155173816
1.2317638757689595 13.125811914663934 1198.052951100757 37.010425788836706 0.345646371440703
1.254752859251374 13.127276346616693 1081.7288248588568 38.44359107573736 0.35020328223961705
1.2777670756701065 13.1281512366726 977.4474678555227 39.929512463635895 0.3548375766596848
1.3007849380559784 13.128487836722854 883.9388764420709 41.476893936548 0.35958907838849347
1.32379979394085 13.128257402228963 800.002717544609 43.08819578889452 0.36445994383331004
1.3468212801797839 13.127454758736118 724.5246536803535 44.76600840877032 0.36945199895080766
1.3697748063245896 13.125936699460853 656.7331050394461 46.50285945277038 0.37449958541088596
1.392692581860942 13.123695837148084 595.7067532594841 48.31115239609402 0.3796741050601101
1.4155221212607436 13.12062007019742 540.7711982004515 50.19491173788782 0.38498403101588596
1.438280637799983 13.116856997955386 491.26051823121014 52.15733245599216 0.39043217229542804
1.460924063821907 13.112240167946288 446.6704565642939 54.20180118042673 0.39602004381015515
1.483470990116014 13.106798043999545 406.38813166489047 56.327096472695054 0.40171860732094994
1.5058529527863096 13.100396731658092 370.0485178622874 58.53740339513145 0.4075495460181867
1.5280923921821588 13.093122707223262 337.21167564679297 60.84162150189339 0.41354128135129
1.5501509172040915 13.084876434846361 307.5255036888911 63.24400712655572 0.4196968943413469
1.5720115075444694 13.075578174677924 280.67505500944344 65.74908091200477 0.42601717410124795
1.593663708126227 13.065337933537554 256.3630986267629 68.36171268804623 0.43250782174891667
1.6150957878676784 13.054059504242373 234.33606401857915 71.08696443229282 0.43918369501610555
1.6362642541222077 13.04163018446181 214.3629399358589 73.93028169165422 0.4460519026571887
1.6571631871693828 13.028224504823061 196.26676868496364 76.89493154510727 0.45310462428400805
1.6777735597602428 13.013469306166147 179.808323436471 79.98764324677293 0.46034724323494003
1.6980575212097517 12.997679103276246 164.88328256806867 83.21019553428525 0.46778108389557405
1.7158087683003236 12.981120510177881 152.60079792450196 86.81555525496303 0.8213402608179037
1.7205858968704297 12.959074850825257 147.4801369253972 91.55043939283703 1.4440198984130364
