M[M_sun], R[km], Lambda[1], P_c[MeV/fm^3], rho_c[fm^-3]
0.23841724892012095 16.20908015294055 2780876.1263280716 3.453507347168396 0.169602847481901
0.24842241139433757 15.86597886837521 2281769.3079131977 3.6356847386448674 0.17198019830266859
0.258709203842004 15.562590040757021 1881122.5674114653 3.825046342038707 0.1743783382055574
0.269283208997815 15.293058698978442 1557574.1777223372 4.020716875064505 0.1767719959211293
0.2801440455745012 15.053237687455601 1294892.9081752854 4.22299423605277 0.1791523740026474
0.29128146777642155 14.839182227029603 1080604.4954145825 4.433258475607004 0.18155655400375306
0.3027106146886335 14.647756901613503 904902.5176251037 4.651857593140116 0.18398836624940398
0.3144240181106853 14.476193835676 760376.9945478302 4.879159148173198 0.18644945625020753
0.32641750907094624 14.322465948870935 641012.1418651969 5.112534205750453 0.18888124994191538
0.3386982222095127 14.184164599671615 541927.9050564815 5.355070633730978 0.19133371617949144
0.3512606622194142 14.059919671916107 459487.371192194 5.6073144585886965 0.19381619555144736
0.36410411039060103 13.94809595089211 390696.3236012194 5.869678868955913 0.19633422241598114
0.3772404100774675 13.84744264499796 332973.9112323695 6.139162881228225 0.19882969120856656
0.39065620206143326 13.756774066721881 284487.52990448126 6.418989651064318 0.2013535096663678
0.4043542188043398 13.675283895377158 243643.72225606377 6.710066401429479 0.2039118190832041
0.4183380063526926 13.601842200019531 209102.9672170755 7.012638927529962 0.20649866885513674
0.4326096163000554 13.535876327828403 179840.80060169369 7.323044855682272 0.20905980200677263
0.4471614434099573 13.476513445814854 154989.60615181405 7.646008106103046 0.21166537376384187
0.46200235497735254 13.423440065534674 133843.27188703738 7.982063106855333 0.21431536052752365
0.4771244115043882 13.375757156811263 115777.62055918678 8.32949220784853 0.21697536612648521
0.49252325394562674 13.333039687737338 100334.13722031272 8.687832798272876 0.2196295926279124
0.5082076826195538 13.294960508312805 87100.30527669335 9.060791680385783 0.22233208154490047
0.5241740714248317 13.261200078768224 75740.37952707168 9.448975373106075 0.22508553584441013
0.5404168083530831 13.231207854860987 65963.1411921475 9.847261598547558 0.22781671395408729
0.556937051143113 13.204714331122362 57540.63627215987 10.261247489840137 0.23059074443813563
0.5737406611559535 13.181405503331925 50262.12026035843 10.692179492442149 0.23341532178417648
0.5908223884197433 13.161073598524228 43965.78906837889 11.137434153887604 0.23624822329794495
0.6081630665223918 13.143335978018776 38515.540309094606 11.597133023559445 0.23909463110518808
0.6257874729869576 13.128153057185896 33785.962113755566 12.075703243190265 0.24200039572766976
0.6436743785564814 13.115135719237488 29673.805883926103 12.573255855462353 0.24495886717702037
0.66183029486851 13.10415125500396 26094.99954933422 13.083917014517 0.24789165449662764
0.6802509090001057 13.095181803278656 22977.688488771782 13.615566282878703 0.2508830771857812
0.6989094035978247 13.087609452635075 20255.038207831447 14.169112274319186 0.2539350989651023
0.7178472150648602 13.081818983127546 17877.064918227898 14.739064510337528 0.2569885709074922
0.7370298026262867 13.07736105898286 15682.462207407685 15.330005236271571 0.26008527507979673
0.756454417481594 13.07410972716311 13971.369588680518 15.94524071095027 0.26324770684786303
0.7761241640828281 13.07208651571105 12372.658280896898 16.582464464267535 0.26644117496814623
0.7960260736436434 13.070912474486835 10966.755387296631 17.2396080974368 0.2696424347336031
0.8161642670533059 13.07072239678148 9730.922895886713 17.923847326468774 0.2729158652093795
0.8365286937000928 13.071342501971667 8643.348119569877 18.636216710545327 0.27626290671084736
0.8571079000114199 13.072646922661498 7685.055938047989 19.367914719228203 0.27960013554777957
0.8778962533721726 13.07450592381098 6839.5254018963215 20.12931210108559 0.28300453290635025
0.8989012679989579 13.076929584598078 6092.429403132945 20.922052620929158 0.2864817892525711
0.9201099867994124 13.079809634737432 5432.041762621615 21.741675959084905 0.28998883111574697
0.9414910455461919 13.082901159269616 4847.70371876385 22.58962297675196 0.2935359356155515
0.9630683807658827 13.086430288180239 4330.365001953935 23.472455762240834 0.2971665723648651
0.9848232705862552 13.090144085298332 3871.366893575342 24.391489191255364 0.300881193140382
1.0067383180170064 13.093952173132912 3464.2246166420146 25.336822383104245 0.30458586462097675
1.0288006706901438 13.097751638773536 3102.4500872718268 26.320857593782367 0.30837572241473754
1.0510181964368825 13.101657809456919 2780.8415523228027 27.345328305638148 0.3122542665156163
1.073362694761139 13.105438565950523 2494.6678279714747 28.407848399059244 0.3161973100500871
1.0958344270154359 13.109090867584177 2239.7828448687355 29.5059088052227 0.3201805549698038
1.1184328940600061 13.1127013870954 2012.629036206639 30.649091130044894 0.32425252127066745
1.14111347024633 13.115976138317784 1810.0420650920346 31.839253901757633 0.32841506683317107
1.1638884336088005 13.118933216760372 1628.9894185418327 33.07232123233682 0.33263856838497313
1.1867532135120489 13.12163452588955 1467.2918575752296 34.34975784223046 0.3369264970395798
1.2096739364372844 13.123983222603538 1322.7474818723358 35.67982646233228 0.3413203846864431
1.232652367118853 13.125876766123309 1193.295457520196 37.06455221561602 0.34581847252419395
1.2556610166193802 13.127290977091091 1077.4123115678042 38.50205027903241 0.35038915987510405
1.278688496926812 13.128228098364593 973.5658933840361 39.99092506787429 0.3550284848097451
1.301723490178779 13.12849271712528 880.3503349530358 41.54143327022375 0.35978537256720733
1.3247722290361448 13.128311155679514 796.6832695942331 43.15604652692325 0.3646619312396883
1.347788945251858 13.127470883602937 721.5436636596927 44.83736287691517 0.3696593672501896
1.3707641272117375 13.125848737312644 653.9816588301272 46.57982431262793 0.3747232584690108
1.3936879350780127 13.12358675303451 593.1968189435174 48.39208666523364 0.3799046235541403
1.416527182759371 13.120440366593137 538.4578807081358 50.28005610213114 0.38522183129513893
1.4393044296090158 13.116697995620099 489.16953725927397 52.24694300559326 0.39067760577631233
1.4619590337644093 13.111982455532665 444.73015928823185 54.29614686871044 0.39627301331449194
1.4845036766602158 13.106502403340299 404.6376483714584 56.42878026404825 0.40199125251296286
1.5068940307026693 13.10002929613162 368.4390999671221 58.6444719448483 0.40783150382422184
1.5291552910671233 13.092739545900788 335.72410241344727 60.95441160078293 0.4138331465874119
1.5512136335386848 13.084457243307858 306.1668576070914 63.36287749943689 0.41999909541110003
1.5730904198153435 13.07516901003775 279.41979607090053 65.87441094928938 0.4263298955827975
1.5947375995316155 13.064767827235388 255.20994310881278 68.4939099982687 0.43283242141122535
1.6161560533360788 13.05341152200027 233.28000200610953 71.22646991541393 0.4395209290104068
1.6373440066379148 13.040977483235661 213.3865500767511 74.07756573651416 0.44640228243888846
1.6582391828064802 13.027458493304266 195.3657722655019 77.05305631439862 0.453479806114179
1.6788335428206203 13.012672344879364 178.99985772413856 80.15517128086297 0.4607392875895938
1.6991197812604757 12.996813567297332 164.13758566523276 83.3947882423864 0.46821981281598063
1.7190951799078444 12.979787554090448 150.62635883477978 86.77953324604603 0.4759334146674211
1.7387005284526924 12.961461537742148 138.34186540895175 90.31698235511841 0.48388448483306323
1.7579350550652377 12.941932577321548 127.1566594216655 94.01524713743966 0.4920810252511911
1.776784370275236 12.921177140302445 116.98062713181803 97.88305566012727 0.5005431370126883
1.7952137955981986 12.899106578761469 107.70447397728958 101.92972405986046 0.5092862421190105
1.8132011392378975 12.87569503249031 99.25602764675243 106.16520916031749 0.5183170499847572
1.8307628846657786 12.851160773262897 91.54705006487909 110.60020566914167 0.527649023501556
1.8478192968894105 12.825050590738194 84.50496161330625 115.2462201050149 0.5373065718852293
1.86439141527772 12.797563392949902 78.07042297487888 120.11487496376475 0.5473062540720848
1.8804683408581562 12.768829311619042 72.19054165664873 125.2144371357058 0.5576377732727147
1.8959936700369402 12.738598738254666 66.8185941017259 130.56355131390768 0.5683426270996065
1.9109621114314626 12.70692521042787 61.89393497843757 136.1774872127256 0.5794493865565749
1.925361746852827 12.673811728082368 57.38744771890837 142.07270006154806 0.5909757414013983
1.9391797874919465 12.639364015790942 53.26513482535173 148.26693105186138 0.6029417030107235
1.9523776007520963 12.603401285862839 49.48013253084482 154.77929408063866 0.6153828484924446
1.9649538312557373 12.565887233602247 46.00831425338323 161.6246317629088 0.6283105114934688
1.9768825498757991 12.527038766046749 42.82729837404705 168.8208505710951 0.6417273699213404
1.9881388725244378 12.486603486178353 39.901368542035534 176.40043782328723 0.6557081141866733
1.9987238854718952 12.44464471705579 37.21301480724417 184.3893763020441 0.6702922706706547
2.008610833036818 12.401227857521748 34.74090205938177 192.80378117655115 0.6854630550347365
2.0177662977184387 12.356244001429458 32.4704474738669 201.675680835202 0.701281339184679
2.0262128773296375 12.309912920043784 30.38207145026555 211.0463637849548 0.7178238249595883
2.03389363319096 12.261883311090077 28.456272371042488 220.93400446609027 0.7350635604888418
2.0408315476971266 12.212475202376233 26.68591251811907 231.384854063222 0.7530953486782005
2.046993661327079 12.161513449348304 25.051189740151266 242.4400369092943 0.7719727004030802
2.052369461442308 12.109000896210329 23.544821936607306 254.1316733049621 0.7916973862901863
2.0569491652643728 12.055088304071916 22.156279169976166 266.52143243700596 0.8123942592054223
2.0607004946369516 11.999628287429477 20.876751926680445 279.6442485095243 0.8340626152988037
2.0636478675100878 11.942682051324855 19.69318162235394 293.56834163105526 0.8568105797124992
2.065758634792472 11.884327399303425 18.602460372292082 308.3468493912856 0.8806945718221829
