M[M_sun], R[km], Lambda[1], P_c[MeV/fm^3], rho_c[fm^-3]
0.23841724892012095 16.20908015294055 2780876.1263280716 3.453507347168396 0.169602847481901
0.2484216408307226 15.865952238289616 2281863.8357406897 3.635678566121021 0.1719801197858308
0.25870835365099865 15.562640595434573 1881137.081775197 3.8250336445903494 0.17437818287636828
0.26928187000855025 15.293113102592756 1557648.7295380908 4.0206964174462625 0.1767717456609854
0.28014282370689736 15.05328105373234 1268811.67441653 4.2229662202986145 0.17915204640186802
0.2912804256987159 14.839148812142325 1059852.5674166572 4.433222514866797 0.1815561493727914
0.3027095901854228 14.647751334246491 904952.2276005105 4.651813280188103 0.1839878863169307
0.31442206351253654 14.476215262576762 760446.6075767261 4.879106059192084 0.18644890305720263
0.32641416159774345 14.322493573592123 641007.6213736474 5.112469242442396 0.1888805730171216
0.3386937303813704 14.184198326720955 541973.5487534718 5.354995665941287 0.1913329681424884
0.35125557971641425 14.06001642115651 459531.52305067744 5.607229015944901 0.1938153743584138
0.3640993124177128 13.94812524969666 390713.2969719846 5.86958244675931 0.19633332952968147
0.3772348941646679 13.847435645482182 332980.8071158233 6.139050461913053 0.19882865018616847
0.39065063829309005 13.75691101488632 284510.4033130034 6.418864800884478 0.20135239688635131
0.4043485591236053 13.675294333919577 243658.73088642137 6.7099285602980725 0.20391064060773595
0.4183314314461318 13.601871141762086 206524.126476392 7.012481210990931 0.2064973204544796
0.4326019590990597 13.535875338557316 179857.35030336905 7.322872512069642 0.2090583813238665
0.4471519373848278 13.476561895308654 155005.16987632075 7.64582045983985 0.21166388188029603
0.46199190090184133 13.423377526032176 133843.68438311684 7.98185945597673 0.21431380132457903
0.4771131926598891 13.37584697475981 115795.9414485246 8.329262988504077 0.21697361116486027
0.4924859449008421 13.33357113892376 100425.24471537571 8.687585636059627 0.21962777420767612
0.5081963397667688 13.294985252833087 87109.66476161222 9.060525772515742 0.22233019316012545
0.5241646475148265 13.261186745530804 75743.35428541832 9.448689842798963 0.22508357787028344
0.5404050692287269 13.2311656223342 65969.18008288227 9.846943714578954 0.2278145341203873
0.5569245942914072 13.204730385989297 57544.176222946444 10.26090762851573 0.2305884985639902
0.573725501249942 13.181424141553558 50266.54658239454 10.691816675049655 0.23341301338399698
0.59080701409784 13.161144549394551 43974.33308605616 11.137032528801042 0.23624566798653732
0.6081487355714716 13.143382871768443 38521.39331086713 11.596705731311332 0.23909200346584522
0.6257706893952771 13.12818950116278 33790.667590306264 12.075249063406726 0.24199769515311878
0.6436553486385848 13.115157635046083 29681.515599372473 12.572755379113229 0.24495589132089293
0.6618101035634039 13.104186903326289 26098.133842926312 13.083386483096163 0.24788861152716177
0.6802297097509863 13.095219885724912 22981.473923998437 13.615004327207117 0.2508799671567287
0.6988892032153221 13.087615880576175 20259.159474562486 14.16851740304861 0.2539319119914943
0.7178254288203033 13.081810991699953 17879.564150759816 14.738412439627274 0.2569850774926192
0.7370084574553365 13.077364333969188 15797.329805865644 15.329316323277709 0.26008170064974456
0.7564320196383197 13.07410951141646 13973.898307431868 15.94451318533215 0.2632440608289316
0.7760999564893608 13.072074443404473 12374.232680167746 16.58166925545303 0.26643718975261577
0.7960009568843509 13.070910686151002 10968.937667130047 17.238769761030483 0.26963837123791706
0.8161383549498801 13.070758672720485 9732.487016142346 17.922963727803296 0.2729117117055786
0.836503476153783 13.07134065546616 8644.67656736692 18.63528553709126 0.2762586596869847
0.8570785948789359 13.072681364196818 7686.623601462254 19.36690050076976 0.2795955097608479
0.8778775264488409 13.074545123398186 6840.296584905824 20.12824463912365 0.2829998226181506
0.8988755856916766 13.076903222972772 6093.428815218532 20.920929271836222 0.2864769826150433
0.9200797899597083 13.079785026486983 5432.774859605772 21.740454713397916 0.2899836055937906
0.9414579924983179 13.082932708252113 4848.649086455768 22.588339067291763 0.2935305970733884
0.9630374398604805 13.086404305602674 4330.913613413963 23.471105858630345 0.2971611149501475
0.984789499168886 13.09013070590035 3871.8652622911727 24.390069871428658 0.3008756309600532
1.0067016420077908 13.09394939189787 3446.215813393689 25.33528311412149 0.3045798323712361
1.0287602244576126 13.097758734312638 3103.0676878205077 26.31924046219455 0.3083695604278152
1.0509850405393586 13.101634098972015 2781.2881944200967 27.343629089531802 0.3122479606743213
1.0733288954687044 13.105457392329004 2482.5751004197386 28.406007804590864 0.3161904795495036
1.0957951105351955 13.109081622301828 2240.220455846826 29.503975807573532 0.32017356477088077
1.1183835665480248 13.11264472208409 2013.043244870484 30.64706074410885 0.32424538857915797
1.1410871654874275 13.116041951900996 1810.3242420942113 31.83712084097317 0.3284077606745292
1.163850997093694 13.118972014044592 1629.3569324482787 33.070014467793584 0.332630667256311
1.1867108388703997 13.12163763635708 1467.5672261912448 34.347335274670044 0.3369183971703132
1.2096270973948782 13.123946554692854 1322.9674934917252 35.67728145996841 0.34131207368637057
1.232609044571427 13.125852822482562 1193.5020716414397 37.06187792119983 0.34580996930323543
1.2556160248520607 13.127259279678363 1072.9077536195969 38.49916180957284 0.35037997566042
1.2786377382612526 13.128155090261343 973.7402120210502 39.987890624619595 0.3550190518935644
1.3016796257411762 13.128507956927235 880.5356617545403 41.53824428335177 0.3597756733725719
1.324721660045144 13.128307223852369 796.839219876949 43.152693865375625 0.36465195057580546
1.3477394436140449 13.12750346364904 721.701195484415 44.83383703111563 0.3696491205387174
1.3707080327544046 13.125806004283964 654.1072793371148 46.576021103089694 0.37471220569103286
1.3936412437263213 13.123621571873679 593.327492048937 48.38808724147327 0.37989323232083416
1.4164779632476368 13.120486380391288 538.5807988324076 50.275848562210754 0.3852100800280183
1.439257841425332 13.11667363598186 489.2557604252248 52.24251468546083 0.3906654770924753
1.4619172147201442 13.11206074925285 444.82643251062905 54.29148446785144 0.3962605119987903
1.4844540156940509 13.106513400848252 404.71727703406316 56.4237550376912 0.40197777835167525
1.5068423644945643 13.100051102516982 368.514678215662 58.639180506219205 0.4078175691773944
1.5291031782779971 13.09274044239297 335.7895915184578 60.948837292792426 0.4138187220347793
1.5511547355646294 13.084382923911322 306.22005014096663 63.35700257961854 0.41998415975463
1.5730357981259528 13.075202810297183 279.4779280897588 65.86821665248185 0.42631443967360944
1.5946825590436038 13.064804230419758 255.264526370595 68.4873761629454 0.4328163781140058
1.6161013276624707 13.053437229516906 233.33503200252528 71.219574732593 0.4395042609197188
1.6372877995763004 13.041007948841731 213.4360553148765 74.0702859377639 0.44638496424057744
1.6581778933322293 13.02748403770156 195.42140657747774 77.04536714736325 0.45346181214353054
1.6787819357428724 13.012684936402229 179.04140882346712 80.14689036658491 0.4607199088288287
1.69906937725025 12.99683773444501 164.17789694232147 83.38603835095674 0.4681996277350976
1.719045253003687 12.979827458723808 150.65583979759128 86.77028322926574 0.47591237109869466
1.7386500512689969 12.96150642090219 138.37311588861547 90.30719889415707 0.4838625481320498
1.757883660293439 12.942000238088522 127.18882080967765 94.00489460625022 0.4920581457457782
1.7767289045765358 12.921238351429247 117.01326573114832 97.87209561287322 0.5005192227997965
1.79516216586327 12.899118651753884 107.72911235188755 101.91811495031516 0.50926122527647
1.8131478287639506 12.875800497592225 99.27834206676134 106.15290642744058 0.5182908852294926
1.8306976622011184 12.85108196189759 91.55938729162352 110.5871614628018 0.5276216337067738
1.8477865240022318 12.825215832348379 84.52559513577411 115.23238268051668 0.5372778480883755
1.8643394387674728 12.797617015841734 78.08522362252901 120.10040100558734 0.5472768980727315
1.8804094286827024 12.76889154964094 72.21170146285165 125.19906175693971 0.5576069403840481
1.8959572740479858 12.738746940053991 66.83349408134526 130.54720993707335 0.5683101946928115
1.9109252882579717 12.707137218338254 61.91660380376482 136.160109928649 0.579415245223951
1.9253347817059965 12.674054788727945 57.40599288791421 142.05421146540968 0.5909398151810663
1.9391376861140517 12.63940382450172 53.27150343514051 148.2472496131956 0.602903844205564
1.9523417838692056 12.603505307238398 49.48843573135756 154.75833127823844 0.6153429026404664
1.9649139229862451 12.566072589410677 46.0204004949023 161.60255070350914 0.6282692436720784
1.976843801349043 12.527187722157702 42.838269019406866 168.7972998795187 0.6416837549341834
1.9881021424848684 12.486696175596103 39.908798740416564 176.3753052964989 0.655661969291684
1.9986845756342189 12.444791116696916 37.2215493327174 184.36253996738174 0.6702434121286558
2.0085741768131573 12.401323072614044 34.74934785880849 192.77539748237677 0.6854122906554366
2.017734131069395 12.356404183305207 32.477384994359795 201.64533115620847 0.7012274892421537
2.0261891839939974 12.31006270125114 30.38831594357954 211.0138919774977 0.7177666585992512
2.0338652921617753 12.2620520192217 28.462218572469485 220.89955269346834 0.7350039023222958
2.0408119697585385 12.212645448992566 26.690457384684933 231.34794138744525 0.7530319016090521
2.046990730642644 12.161770538870796 25.056780112428804 242.4007851884815 0.7719062839535132
2.0523495231689433 12.109183214071384 23.548606354071485 254.08955749778804 0.7916266258078319
2.056933936429534 12.055265232237279 22.161119382735222 266.4765502629171 0.8123199012511404
2.0606845708073624 11.999804621598797 20.87909546058897 279.59602043601177 0.8339833297045453
2.063637271818535 11.942885214250104 19.69694532065115 293.51683617920696 0.8567270232258177
2.065748579820411 11.884542523291502 18.606470328997126 308.29345245901385 0.8806134784622147
2.0670363651580472 11.824756187431182 17.599027697988213 323.98737623496066 0.9056887069984928
2.067475262385134 11.763596876082207 16.66950428872518 340.68183185817105 0.9320919212422486
