M[M_sun], R[km], Lambda[1], P_c[MeV/fm^3], rho_c[fm^-3]
0.23841724892012095 16.20908015294055 2780876.1263280716 3.453507347168396 0.169602847481901
0.24842034956493977 15.866060658724798 2281981.540587433 3.635651775664342 0.17197977900108963
0.25870652350792367 15.562654471816629 1881370.4056408 3.8249785345063976 0.17437750870905439
0.2692765463157092 15.293231250311967 1557738.617105842 4.0206076268864175 0.17677065947695272
0.2801361311851765 15.053414858639481 1295026.8943737296 4.222844626505429 0.1791506245511052
0.2912730912094772 14.83941468513748 1080764.4578473864 4.433066439215547 0.1815543932064696
0.30269937196848745 14.64800163204237 905106.3306572479 4.651620955634407 0.18398580334130993
0.3144067709296823 14.476498469561754 760567.7635008454 4.878875646696589 0.18644650213373268
0.326401139989911 14.32262358641029 641167.7077394379 5.112187295876452 0.18887763510298639
0.3386768320727313 14.184383121032758 533522.6303003889 5.354670300784639 0.19132972161250972
0.35123753789027823 14.060232297469371 459663.7235979141 5.606858191175259 0.19381181034512984
0.36407814199403904 13.94833365920237 390808.98450590885 5.869163972396506 0.19632945438434699
0.3772122948304206 13.847632258400436 333094.3050147995 6.138562563120394 0.1988241321585469
0.39062540935106477 13.757066915482891 284599.1953013205 6.418322954951574 0.2013475674553732
0.40431981464042616 13.675407078468886 243718.66488001624 6.7093303369408845 0.20390552608535994
0.41830069442435885 13.602031470068296 209188.73941609138 7.011796734283665 0.20649146850738812
0.4325670739481681 13.536076938805886 179920.43566183504 7.322124558611339 0.20905221570695415
0.4471159226928523 13.476663596096307 155063.5464981603 7.6450060982303105 0.21165740728994215
0.46195248558651736 13.423547747110801 133898.77241012504 7.980975640320369 0.21430703460703104
0.4770683769397294 13.375805080111995 115832.9918558258 8.3282682166229 0.2169659949382228
0.4924679030505167 13.333284015929022 100391.59843379082 8.686513000009509 0.21961988261666765
0.5081471565976788 13.295162757576763 87149.8154679281 9.059371788957074 0.22232199797213623
0.5241128680640884 13.261354761490614 75781.26612666692 9.4474507073253 0.225075080715563
0.5403503428533146 13.231239366569293 65997.56099480037 9.845564181975607 0.22780507421691293
0.5568657499962286 13.204813143229968 57572.52027860141 10.259432726149702 0.23057875210314577
0.5736721927975414 13.181646378437966 50294.134108389284 10.690242156285807 0.23340299561893846
0.5907401214867501 13.161133364438804 43995.17911012971 11.135289609556926 0.23623457878524967
0.608085523785766 13.143537185150866 38540.912394864186 11.59485143260354 0.2390806004313659
0.6256962940911107 13.128199336926333 33807.26413926131 12.07327809006808 0.24198597565209318
0.6435799374636636 13.11520020538322 29693.450502245516 12.570583512629492 0.24494297729969103
0.6617351149752759 13.104284409069992 26113.854459948805 13.081084198700198 0.24787540631283608
0.6801399572716077 13.095120985569057 22993.03876384157 13.612565684159158 0.2508664709841455
0.6988006761304839 13.087662538771712 20270.740334072798 14.165935930531093 0.2539180819660919
0.7177340840725166 13.0818454046518 17889.778406777274 14.735582769930748 0.2569699177713679
0.7369130118317032 13.077363000291868 15807.269577487174 15.326326787360465 0.26006618942101195
0.7563336408467173 13.074119531217804 13982.177233521528 15.941356101965033 0.26322823900020426
0.7759949202805047 13.072011361367949 12381.777617240548 16.578218490307766 0.26641989612784955
0.7958885154090711 13.070913280649657 10976.217433260996 17.23513185965983 0.2696207379866178
0.8160251061309285 13.070703319424844 9738.933244987407 17.919129428354225 0.27289368793759705
0.8363861763576861 13.071334614187347 8650.392637744455 18.631244806039266 0.2762402301654759
0.8569597971603305 13.072623600759316 7691.407599406145 19.36249944123601 0.27957543680367875
0.8777576425181164 13.074588383899648 6845.214223270346 20.12361255403331 0.2829793830554133
0.8987461802129894 13.076881802615532 6097.656963493318 20.91605469130579 0.2864561250367023
0.9199465201647717 13.079783989447701 5436.844669978796 21.73515537275376 0.2899609305324287
0.9413230379182276 13.082904433158317 4852.045198171706 22.582767830994076 0.29350743167053245
0.9628990830975952 13.086396356540313 4334.081072708441 23.46524827746239 0.29713743381511887
0.9846437382457554 13.090108830123818 3874.989552098448 24.383891558903866 0.3008513414789153
1.0065492983370001 13.093906453688614 3467.3189039791764 25.32860391131651 0.3045536572063756
1.028606252599486 13.097690803531899 3105.2442014454055 26.31222342410697 0.308342822407697
1.0508191110698875 13.101564504310751 2783.495189287367 27.336255899361845 0.3122205985472349
1.0731680621836808 13.105397734132245 2497.0736815438163 28.398021221510298 0.3161608411031595
1.0956010407794676 13.109134035081315 2243.04306092379 29.495588307259627 0.32014323348947116
1.11821968698609 13.112640517825687 2014.6585823190364 30.638250699108983 0.3242144391266162
1.140902398504985 13.115929687842923 1811.7375360118565 31.827865316117762 0.32837605865581526
1.1636788829404652 13.11899224227844 1630.7140969060297 33.060005321173236 0.3325963839327366
1.1865295313482067 13.121660716528487 1468.83939353887 34.33682369618022 0.33688325164415983
1.2094377810595451 13.12390120451778 1324.059718183767 35.66623867901748 0.34127601220580506
1.2324061279094012 13.125779261934815 1194.5235214143538 37.05027418925329 0.34577307392773465
1.255423345940318 13.127302074373334 1078.5539417926743 38.48662889494431 0.3503401258436999
1.2784475602249827 13.128167124730611 974.5947359794584 39.97472439316005 0.35497812314738314
1.3014767640457827 13.12853627004395 881.317602884457 41.52440755787534 0.35973358944469724
1.3245149032124601 13.128271353005903 794.271872925352 43.13814703425754 0.36460864556875716
1.3475280122501476 13.127416096962822 722.3722932066088 44.818538840950296 0.3696046613792466
1.3704945562460198 13.125841223741512 654.6967533165453 46.55951963218715 0.37466424959175376
1.3934296999179332 13.123597535090582 593.8174163733021 48.370734510711316 0.3798438079496119
1.4162604267050933 13.120491997709525 539.0668306377315 50.25759294133633 0.3851590937791872
1.4390198331414434 13.11665904081274 489.72071162730145 52.22330123863087 0.39061285356593456
1.461694350464501 13.112044568345665 445.19998457957746 54.27125549872727 0.396206271975895
1.484230453936224 13.10655677849035 405.1038997451817 56.40195208886013 0.401919318010146
1.5066159478689434 13.100143174183115 368.86490096052245 58.6162226587773 0.4077571112342064
1.5288800178959734 13.092938916543584 336.1379273804762 60.924652292092546 0.4137561388735854
1.5509499265973625 13.084654939491793 306.52234798308655 63.331513463568164 0.4199193594351662
1.5728115980556556 13.075303882621752 279.74844063264396 65.84134202350681 0.42624738253414585
1.5944496282756107 13.064945249215993 255.5216870940066 68.45902856725606 0.43274677291574165
1.6158666659209124 13.053522100341764 233.55134985077405 71.18965957122101 0.4394319454154537
1.6370456748237792 13.04113238771559 213.65259377852954 74.0387022821624 0.446309828645507
1.6579489557249707 13.027602952998993 195.60285999706622 77.01170061007603 0.4533824107851321
1.6785633547321241 13.01289668049781 179.20245062222986 80.11096395969977 0.46063583487022935
1.6988490604015007 12.99703257582073 164.33514327513507 83.34807754276164 0.4681120561360711
1.7188169598490939 12.979997822505265 150.79936989308135 86.73015291813535 0.4758210755929302
1.7384239554934993 12.961729886019807 138.50682479886495 90.26475456510724 0.48376737848198836
1.75765452346451 12.942266822950582 127.32326957920263 93.95998173873025 0.49195888652339814
1.7765189027131565 12.921539658376776 117.12499790220572 97.8245474579077 0.5004154753729749
1.7949481405761485 12.899528100577324 107.84345657022263 101.86775131380816 0.5091526950606642
1.8129364512305306 12.876051250313656 99.3710899706561 106.09953404162555 0.5181773758631828
1.8304873011634109 12.851430423162606 91.65515692979926 110.53057279699121 0.5275028106903972
1.847561919569314 12.82548743787919 84.60941317170568 115.17235331556876 0.5371532388242563
1.864143753085914 12.797983097054303 78.15939126601057 120.0372022717437 0.5471480274127513
1.8802059582580342 12.769284692480174 72.28406783202702 125.13236119926086 0.5574731829722666
1.895749495632878 12.739092382571714 66.897242537935 130.47631932943625 0.5681694995085474
1.9107208930299162 12.707523796063477 61.97499100767341 136.08472608542874 0.5792671377950513
1.9251451776179822 12.674499492802592 57.46422317380815 141.97400737137755 0.5907839661413581
1.9389486652126746 12.639881450925387 53.32612248424507 148.1618716920738 0.6027396130161898
1.952162805306811 12.604002598726971 49.540670347816494 154.66739564192608 0.615169619441096
1.9647549500078492 12.566604038627416 46.06531928643088 161.5067646099005 0.6280902267448923
1.976676367041206 12.527626536014557 42.876246116809774 168.69513960827246 0.6414945579883566
1.98794590296783 12.487264730264341 39.949993954291074 176.26628427750938 0.6554617998652166
1.998535443302686 12.445370890666348 37.25783486111743 184.24612927211308 0.6700314734673052
2.008445900511094 12.40205612494639 34.785858217825805 192.65227543751126 0.6851920862610639
2.0176195039600464 12.35713767550517 32.51008953545652 201.51368251930288 0.7009939028660866
2.026067585966431 12.310764113813674 30.41967561010048 210.87303966737895 0.7175186892207309
2.033770455884217 12.262879126291882 28.49330282283401 220.750113046078 0.7347451262218488
2.0407053322874025 12.213358761200265 26.71569295125576 231.18782905566832 0.7527566937577652
2.0468871053678512 12.1624215698157 25.07898594233748 242.23052842973323 0.7716181985091889
2.05227816917542 12.11005180410021 23.57288540124801 253.9068798060049 0.7913197015802487
2.056865174423161 12.056124484864151 22.181415010627653 266.2818751979165 0.8119973758860703
2.0606294410592585 12.000642044228728 20.89896418076341 279.3868353085005 0.833639435247711
2.0635964617044746 11.943756505577563 19.714819375480158 293.293437917556 0.8563646077298958
2.065725303193416 11.885469805737912 18.623095197489366 308.0530388581062 0.8802261011686967
2.0670235892483833 11.825694121430281 17.613875039630962 323.7300861510376 0.9052797408533012
2.067464056810713 11.764543437038235 16.683145182175053 340.4061312175368 0.9316593002066383
