M[M_sun], R[km], Lambda[1], P_c[MeV/fm^3], rho_c[fm^-3]
0.23841724892012095 16.20908015294055 2780876.1263280716 3.453507347168396 0.169602847481901
0.24841320948607773 15.866262298636109 2282216.8893086854 3.6355259869826018 0.17197817892148426
0.2586923603427739 15.562947873428332 1881637.1935058224 3.824719784769571 0.1743743433969638
0.2692542818419643 15.293761466512283 1558276.4991275175 4.020190755346591 0.17676555984461526
0.2801045044427335 15.054104685612678 1269578.2632173514 4.222273759870066 0.1791439491514841
0.29123303106449583 14.839988700108238 1081365.2630652315 4.4323337048163065 0.18154614846448422
0.3026522883863639 14.648627332801455 905745.9260577552 4.650718065998333 0.1839760245737837
0.31435011055622114 14.477262899120975 761218.7440982903 4.877793976681141 0.18643523101355652
0.326334403801345 14.323442503080507 641761.441562335 5.110863741240664 0.18886384351854135
0.33860212940705603 14.185127538920886 542622.4684498265 5.353142962389512 0.19131448165891896
0.35114920907030767 14.060909293995117 460168.68117795873 5.605117497234607 0.19379508045857513
0.3639821943364395 13.949094121698293 391275.6198305287 5.867199652317041 0.19631126443899322
0.3771030979904156 13.84836893148744 333519.78813998937 6.136272438430343 0.19880292520587106
0.3905029342681223 13.757785842120688 284991.1307142473 6.415779668980552 0.20132489934381448
0.40418783522364654 13.67622828573516 244081.377801489 6.70652249289323 0.20388152036736595
0.418156308722975 13.602776068844275 209525.71886876287 7.00858415438115 0.20646400249223054
0.43241167344666415 13.536812428433496 180227.12835423197 7.31861412845051 0.20902327812089308
0.4469466849335067 13.477417977319542 155335.68770691287 7.6411840712316685 0.21162702022497276
0.4617670457837817 13.424132352310512 134135.7709318827 7.976827733082751 0.21427527717380365
0.4768688279917876 13.37642129619996 116056.67292299304 8.323599729288167 0.21693025181131267
0.49225519466750334 13.333744842083048 100585.1248331197 8.681479197382426 0.21958284795654612
0.5079183078121166 13.295631495251673 87325.10677130212 9.053956337103855 0.22228353932543327
0.5238645769816433 13.26180367826407 75942.69122835662 9.441635766553894 0.22503520577656322
0.5400931092375332 13.231786268490485 66144.23735985372 9.839090617112385 0.22776068287843163
0.556596816233578 13.20525407608267 57702.04185288408 10.252511765100415 0.23053301695658532
0.5733736043529083 13.18182934556276 50406.690634066705 10.682853886973925 0.23335598827431053
0.5904326199951713 13.161461536385287 44098.08443994576 11.127111426526353 0.23618254567006122
0.6077602203211038 13.143775955018821 38634.79862031596 11.586150793537072 0.23902709573611353
0.6253568594109663 13.128518748850793 33611.27596899422 12.064030167242317 0.24193098706401023
0.6432236124321766 13.1155038747093 29771.61237504146 12.560393355020327 0.24488238613886198
0.6613513588241983 13.104538418243475 25978.913119606485 13.07028233082482 0.24781345003121327
0.6797460518391263 13.095317592048296 23054.675767923793 13.601124253287669 0.250803150718488
0.6983883426015893 13.087848301799466 20175.285776146255 14.153824598774936 0.2538531965083897
0.7173001985128309 13.081946484236342 17940.809952062133 14.722307476506456 0.2568987964853436
0.7364609564638847 13.077430081994335 15853.401404468957 15.31230173410336 0.2599934203307317
0.7558631623432659 13.074204094018453 14023.867980934037 15.926545278446364 0.2631540140635226
0.7755051634257399 13.07205659179728 12418.893656850461 16.56203052854419 0.2663387696168631
0.7953842723665603 13.070983470255163 11009.692128221395 17.21806631412331 0.26953801967670654
0.8154976569916464 13.070714630348844 9769.43556716193 17.90114288134578 0.2728091391551204
0.8358418634547997 13.07129248533551 8677.591280065188 18.61185014748449 0.2761499379210603
0.8563948220824886 13.072619906346722 7715.949201240764 19.341855398191495 0.2794812806150032
0.877166074638954 13.074487435756245 6867.664084521343 20.101885213035324 0.2828835088776334
0.8981392348419825 13.076800783242218 6117.803726856899 20.89319028897273 0.2863582917852249
0.9193160435946514 13.079726899934037 5455.387877926458 21.710299601336835 0.2898545765197467
0.9406853360366799 13.082898704703021 4868.835839429841 22.556637222613176 0.2933987796519014
0.9622264117205197 13.086252100083296 4349.101006636239 23.43777510920918 0.29702636479389416
0.9839569388907984 13.089948544329829 3888.5332150931868 24.35407230249968 0.3007307876501054
1.005841391857711 13.093751452570576 3479.908674956277 25.297278998239648 0.3044308978310478
1.0278833762912014 13.097606522337793 3116.599278060178 26.279314665759106 0.3082174254764292
1.050075737012329 13.101480566665717 2793.589524209151 27.301677455345068 0.31209227691740726
1.0723981128923838 13.105305486175748 2506.3717158867503 28.36056767924059 0.3160218498985658
1.094847267678761 13.108945294200765 2250.329404210686 29.456255343382974 0.3200009957367001
1.1174051003506182 13.112494653658828 2022.3225725741709 30.596936968137058 0.32406930509426346
1.140081236899597 13.115851511026632 1818.7575250148032 31.784463347282248 0.328227398255704
1.1628293257643965 13.118828853238966 1636.9961764615575 33.013071408752005 0.3324356259213715
1.1856611076054007 13.121535840004318 1474.6819829277663 34.287534744742956 0.3367184537374052
1.2085607111399486 13.123882106226052 1329.3976578443464 35.61445988881287 0.34110692256751846
1.2315210493330806 13.12583062889136 1199.3663509818207 36.99586618239206 0.3456000775285897
1.254508114032716 13.127239746015059 1082.913053220217 38.42786671138513 0.3501532848482641
1.2775180578913838 13.128159329524545 974.3771500375984 39.912994029319655 0.35478622720501973
1.3005220997698013 13.128491831872736 884.9624928664649 41.45953485149235 0.3595362813242823
1.3235618638322786 13.12832378688077 800.8363503163505 43.0699464247892 0.3644056166169705
1.3465529181267135 13.127487377241371 725.3559328679509 44.74681708293764 0.3693962256726336
1.3695096155620088 13.125945831440594 657.4649618372283 46.48216016452615 0.3744394297358004
1.3924204907219708 13.123702964007164 596.3625608967395 48.289386038557325 0.3796121097148353
1.4152403712074841 13.12063922134074 541.4045984698522 50.17201364149043 0.3849200787653048
1.437989874878292 13.11686663069483 491.84913797569 52.13323381480545 0.3903661687565884
1.4606471840473743 13.112289512436096 447.19279641916955 54.1764297351369 0.39595201524355045
1.4831922602879737 13.106839926795011 406.8592815124064 56.29975303918312 0.4016452912537485
1.50556671177786 13.100446051700363 370.48125679958997 58.50861266858182 0.40747372758118017
1.5278207040514422 13.093335906482212 337.6300462294138 60.81129301037708 0.41346280077165776
1.5498688110009866 13.084956714343495 307.880269787455 63.212044510081114 0.41961563660944434
1.5717279198756666 13.075708604105808 280.99519726691744 65.71538226362411 0.42593308977895666
1.593377536623133 13.065463202594875 256.66785181277623 68.32616852600687 0.4324205459717045
1.6147973918862233 13.054181647905203 234.61378603142904 71.0494563384569 0.43909302471397893
1.6359811107199074 13.041839358685467 214.61635406236596 73.89068333342182 0.44595770057218803
1.6568647273549475 13.028374820747905 196.50865221117544 76.85228590941765 0.4530031729113384
1.6774831240903938 13.013758845180488 180.04377360593756 79.94260590657377 0.4602418481285651
1.6977419643252778 12.997846881870302 165.13331963648977 83.17019102599693 0.46770169061808015
1.7177592180031653 12.981153975666139 151.51705822249252 86.542105552507 0.4753932722973879
1.7373479411118917 12.962796693122092 139.16197337227237 90.06586993566616 0.48332143479504047
1.756604167115099 12.943381422093228 127.91302164635871 93.74953663345241 0.49149379447612945
1.775443907020534 12.922646562708467 117.67165993402989 97.60176147070844 0.4999293687528418
1.793902507734149 12.900760191373845 108.35056639092294 101.63178115774582 0.5086441954022329
1.811920547603402 12.877507695058776 99.84427725371502 105.8494752933351 0.5176455650845335
1.8294793116417454 12.852987712176912 92.09340344916428 110.2654543386526 0.5269461236848688
1.8465949333401266 12.827162841115577 85.00616222080593 114.89112505895963 0.5365694637645665
1.8631577435374727 12.799717059231986 78.5357057915396 119.73872855526383 0.5465353480532404
1.8792505269192066 12.771067937458392 72.62532571615489 124.81989555183135 0.5568465825700325
1.8948015548452928 12.740871196198501 67.21072098543814 130.14423764640586 0.5675104235725105
1.9098206714423183 12.70939001659168 62.26007604447965 135.73161001572998 0.5785733669424107
1.9242613395741528 12.676596799810813 57.734448488779634 141.5983271758242 0.5900539610409832
1.9381179975031655 12.642266413880858 53.58045361943905 147.761973481908 0.6019703771549607
1.9513334453489766 12.606288852843068 49.77442074856658 154.24148385407915 0.6143580194980973
1.9639630417348806 12.56910147495297 46.28458989625646 161.057326036842 0.6272489016547084
1.9759232539327294 12.530299120804848 43.07893732744026 168.21668800865638 0.6406084837809471
1.9872357792659978 12.490087190414897 40.13668061580752 175.75572475928035 0.6545243805777378
1.9978822353554713 12.448360793368282 37.431854613433615 183.70098847450194 0.6690389838113792
2.0077898279316835 12.405000900719253 34.94560757906226 192.07572307469036 0.6841609194702766
2.017015046384687 12.360226183809404 32.659468506370544 200.8972325031922 0.6999001253027605
2.0255279704820515 12.314031048274607 30.55552839066402 210.21352645899722 0.716357621430856
2.0332507387033485 12.266177695407475 28.620073141893712 220.05041552257043 0.7335334999915435
2.040249147891899 12.216897789910279 26.835922367672847 230.4382004789894 0.751468200438347
2.0464759634508853 12.166123460011923 25.191797271000908 241.4334352419582 0.770269465296738
2.0519270737682818 12.113868053282642 23.675610022416805 253.05168338814562 0.7898828512597673
2.056548993775529 12.060004741094637 22.27682826615991 265.36948077646434 0.8104840867601794
2.06039301118575 12.004756732906328 20.988830822185836 278.40764465598613 0.8320296733990087
2.063411240433576 11.948039028978087 19.79802062143859 292.2477638028989 0.8546682270148643
2.06559621210176 11.889829090301577 18.700502822914096 306.92779000367983 0.8784129930328995
2.0669630439410325 11.830204151728603 17.68620411621077 322.52590726652227 0.9033656818697122
2.0674638834513965 11.769196099620661 16.751340246910594 339.11585365192445 0.9296346360079052
