M[M_sun], R[km], Lambda[1], P_c[MeV/fm^3], rho_c[fm^-3]
0.23841724892012095 16.20908015294055 2780876.1263280716 3.453507347168396 0.169602847481901
0.24842694994122475 15.865864690732034 2281678.904556436 3.6357714192291875 0.17198130091248398
0.2587202689484464 15.562235743788538 1880889.1454354585 3.8252246551097318 0.17438051952765862
0.26929781976267114 15.29272031619231 1557193.1903735946 4.02100417130617 0.1767755104455438
0.28016494289150284 15.052815346011903 1294400.91893312 4.223387681582941 0.1791569747377059
0.29130876777801096 14.838788023608183 1080097.8497076049 4.433763506703589 0.18156223662366316
0.3027454970222522 14.647220723430914 904461.8374726281 4.652479932362794 0.1839951065090524
0.3144604726570107 14.475755987599637 759994.3162048544 4.879904751230569 0.1864572255158277
0.32646339383895534 14.32189925986796 640585.5130026276 5.113446594159999 0.18889075712919476
0.3387506675463007 14.183589873291325 532975.3736585566 5.356123547804219 0.19134422227405598
0.35131861400672015 14.059322195389457 459171.7599156719 5.6085145085313615 0.19382772928459363
0.3641716263266093 13.947552760594304 390335.6749109941 5.871033147264337 0.1963467632685039
0.37731572463709007 13.846849917524558 332672.14216119837 6.140741874818817 0.19884431296365987
0.3907391907512351 13.756340563107017 284222.787744472 6.420743267858482 0.20136913951750302
0.40442118328851223 13.675387468105404 243580.2627547825 6.7120025126180725 0.20392837190394825
0.4184386653122274 13.601369568840253 208883.66822883234 7.014854252490703 0.2065176088195258
0.43271939146633226 13.535428841039577 179643.2444218747 7.325465668327691 0.20907975753104033
0.4472784654227975 13.47608523279834 154809.58239240068 7.6486439007495 0.21168632967629256
0.4621277992066338 13.422883239503498 133662.53976029417 7.984923748705254 0.21433726232940398
0.4772608355135057 13.37537338479811 115631.31998257732 8.332712070831773 0.21700001821676446
0.4926730758864968 13.33265661705133 100197.48388085603 8.691304749480768 0.21965513644487714
0.5083662571067292 13.294696285634622 86982.15045145749 9.064527002302095 0.22235860849589087
0.5243377141850154 13.260806599059903 75630.95702693916 9.452986388017294 0.22511304067742555
0.5405967561140284 13.230922354341907 65866.04948068778 9.851727198404426 0.2278473360238366
0.5571294951297507 13.204454297961076 57452.502157510615 10.266021881474238 0.2306222946086347
0.5739432994030608 13.181136638614245 50180.86905080614 10.69727643125179 0.2334477506994012
0.5910324280562419 13.16078208381232 43893.41922375689 11.143076392907563 0.23628412164746204
0.6083905677839105 13.143245279785857 38454.02113500948 11.603135916480214 0.23913154597476313
0.6260203371108884 13.127949479523666 33727.58220124203 12.082083942210458 0.2420383356669094
0.6439229390342268 13.115085483404865 29385.073197514044 12.58028712199357 0.24500067542156034
0.6620890822435429 13.104106546357025 26048.997419470626 13.091370611646658 0.24793440609923895
0.6805177712925566 13.095063110323421 22936.44974243597 13.623461455052096 0.25092677140594
0.6991951059267385 13.087542485189987 20217.20001332508 14.177469983158938 0.2539798746986324
0.7181546798453963 13.081882533475454 17842.847399053255 14.748226054614172 0.25703765312286014
0.7373386367930805 13.077261077504525 15763.476582883362 15.339684515580961 0.2601354960905124
0.7567775637319889 13.074115693081286 13943.680601389693 15.955462609287386 0.263298934232747
0.7764566138228185 13.072035655430788 12346.914267225615 16.593637583513093 0.2664971694283795
0.7963708594622128 13.070866949439422 10944.226371786883 17.251387307054166 0.2696995296743745
0.8165343971344344 13.07075950569204 9710.189213535476 17.93626263265291 0.2729742254394698
0.8369054398961805 13.071307968164033 8624.072119629775 18.64930061993841 0.2763225816029589
0.8575012492549703 13.07270249935901 7668.122879536895 19.38216582844444 0.2796651339652555
0.8782994603870649 13.074551593820432 6824.248037427133 20.144311508829208 0.2830707193708945
0.8993254974840209 13.077019102360874 6078.449051167606 20.937837489808174 0.2865493302721912
0.9205390429793116 13.07980079666358 5419.3582140093295 21.758836847057818 0.2900622599088627
0.9419372595983816 13.083037239241849 4836.51612309458 22.607664602141003 0.29361095334913545
0.9635282161460842 13.086553936168306 4320.162730639233 23.49142494396973 0.29724326131564954
0.9852882942824216 13.09012794647642 3861.9156208633576 24.411434037876493 0.30095935511025595
1.0072143460516343 13.093937258480434 3455.6657687377706 25.358453338388014 0.30467063429142605
1.0293023938713066 13.09782605073419 3094.719316118564 26.34358297413444 0.30846231616974706
1.0515440543623396 13.101787555391384 2773.790799493005 27.36920746742604 0.31234288279222067
1.0738950914430605 13.105512732699182 2488.259393519577 28.433715015145513 0.31629330182845355
1.0963858325738334 13.109256888509005 2234.034679687545 29.53307429624319 0.32027879212294064
1.118992645989346 13.112835137039593 2007.3986133472845 30.67762558641773 0.3243527620530165
1.1416924478262132 13.116019534560376 1805.09280017347 31.869231653466183 0.32851774661206123
1.1644789321508349 13.119037560655155 1624.672107680205 33.10474104269435 0.33274961270182307
1.1873423518018826 13.121675199932133 1463.3423623021026 34.38380556068918 0.3370403357918387
1.2102740088693726 13.123998732829321 1319.1325636885583 35.71559533926536 0.3414371920981001
1.2332675467709713 13.12587444725508 1190.0216239639185 37.10213867327432 0.3459379829089078
1.2562814280987051 13.12727176906658 1074.41802360711 38.5426480052362 0.35051824492805667
1.2793352051423688 13.128258132116612 970.8201206508086 40.03357497859459 0.3551610669670534
1.3023860436474262 13.128529015467127 877.8340374739995 41.586255877410096 0.3599216989958262
1.3254348248076593 13.128254581948203 794.3815456204492 43.20317023745168 0.36480221558065634
1.348455131732269 13.127319939070501 719.4377569540144 44.886921423164296 0.3698033928693654
1.3714374549481436 13.125768247003299 652.0707671141502 46.63328292960568 0.37487861836136516
1.39437721354747 13.12347967878385 591.4778617530268 48.44830403478081 0.3800647429140123
1.417236472295496 13.120388095779715 536.877982853708 50.33919961330876 0.38538701361341715
1.440008695679385 13.116512805179822 487.71376556365783 52.30919076984098 0.3908480955849854
1.4626762802324098 13.111839360235162 443.40865266807464 54.3616859528991 0.39644874354597887
1.4852277815617505 13.106314014610959 403.41724734808827 56.49942164336621 0.4021806635505716
1.5076105481804583 13.099912206544538 367.3585612545038 58.76177937442651 0.45703258953052034
1.5172162567719019 13.087659622878055 350.52644008660786 61.95286540943751 1.5224305117584565
1.509253225318391 13.063872001769417 355.4642574138308 65.93851325680333 2.6863499056478775
1.4918003008001972 13.030720248305594 371.7683950684703 73.00529379816247 4.038819283535915
1.4689637750547107 12.989408067840047 395.25482055909487 82.58027751839373 5.166398762396048
1.4406686680183416 12.935536367946973 426.13862175747187 93.53447324850691 5.386516138301132
1.4070154614342445 12.862518338845167 464.10022081762776 105.10808204250841 5.435199903032067
1.370957901506948 12.773792998895939 506.01024068599315 117.11889949750676 5.482755237527046
1.3339087532775775 12.671143613745912 550.1741037559698 129.5774025216178 5.531875944957115
1.2965884085210928 12.55533892933577 595.1632277276933 142.49948414672332 5.582681261887953
1.259625100012994 12.427377036411007 639.3682995443093 155.90524058726015 5.635236935449301
1.2234417672826183 12.287739158994226 681.1983147534481 169.8158097813506 5.689624185210286
1.188393417426457 12.13724280978431 718.7946208221539 184.2544280759953 5.745914887793778
1.154837946091545 11.976504007258306 750.0871109209129 199.24706424718175 5.804187611207182
1.1230060478132375 11.806250375920134 773.2371409598809 214.82159088424245 5.864544670067875
1.093199026409906 11.627660572174298 786.7089631959733 231.00751926107418 5.927079781434083
1.0654690155103554 11.441331973194162 789.3884697389216 247.83761333866548 5.9918958292754665
1.0400855397594166 11.248906563374879 780.5205341945101 265.3461142733662 6.059116812499614
1.0170797318206386 11.05149550424392 760.6028812032142 283.5702174794762 6.128854737966554
0.9965248427954798 10.850544745227957 730.0993182177573 302.5504206042973 6.201255367592393
0.9784210830095301 10.647527574097179 690.6670653707625 322.32897122723386 6.276437698539622
0.9627148294965262 10.443827185295886 644.3084420244654 342.9475995650229 6.3545633373359545
0.9493604794726993 10.241055455145188 593.213742651969 364.36521015134576 6.43538525715468
0.9382292393766208 10.0403343779025 539.5885805171116 386.7209164222658 6.519465029299878
0.9291859696610243 9.843079135223752 485.52007455860905 410.0724841274174 6.606966667100117
0.9221254628160012 9.650144609873553 432.67715027452005 434.4806533912375 6.698098082117255
0.9168555392873863 9.462648770904535 382.46992755642924 460.01192554964206 6.793074271335131
0.9132173578456888 9.281078274316531 335.8469764481747 486.5926676476077 6.891525070447697
0.9110888971513758 9.106708631533309 293.40542177171227 514.4306853166179 6.994238511735026
0.9101670920761975 8.93804877140683 255.198429376653 543.6108206408478 7.101487454225419
0.9104350458097141 8.777000291079476 221.38157901352807 574.1207320000221 7.21313853179464
0.9116814162568568 8.623036790424832 191.7821193800558 606.0733055953787 7.329569430263223
0.9137657694941995 8.47610628167813 165.98344002644285 639.6433416249488 7.451396142212766
0.9165567955279987 8.336084895775072 143.70169922870974 674.7633923021903 7.5782389890121875
0.9199207655526991 8.202633201418797 124.52763478594515 711.6972882735889 7.711058151036686
0.9237435001610227 8.075571929875286 108.0615038075462 750.4590442279025 7.849791815380988
0.9279226112747967 7.954625051298994 93.99394221497542 791.2328272139464 7.995053459879773
0.9323485405718905 7.8392860960185 81.93594574083134 834.0947354676141 8.146986163283879
0.9369494811952461 7.72950595483562 71.652240707412 879.2683490357294 8.306370185700198
0.9416510216749119 7.624582011444396 62.82611795165174 926.7858903537531 8.473114967179198
0.9463494237666529 7.524435243603018 55.28713421981015 976.9444006511002 8.648250783769168
0.9510089222264281 7.428686346486184 48.80444523967411 1029.8616899479457 8.83203602203305
0.955549410004462 7.3369654434018265 43.249252687271294 1085.7138338369668 9.024930451594315
0.959937660611055 7.248994491172402 38.45598081915596 1144.7772238139437 9.227807307835645
0.9641163179508132 7.164546583525405 34.32561582213907 1207.2764309847898 9.441270680808758
0.9680202306325126 7.083172340282158 30.752408454206247 1273.4599931831112 9.66599527703481
0.9716583479884753 7.004778582913847 27.64397609626432 1343.5661930309934 9.902562471283806
0.9749634488566561 6.929086468132825 24.90304964967537 1417.952411659798 10.15203701399717
0.9779071092605953 6.855972766675299 22.598734859459917 1496.9533314713237 10.415319994042214
0.9804563966508358 6.7851407668275225 20.53760840115079 1580.9389148043524 10.693404129179168
0.9826073462323506 6.716413901024491 18.74125418377002 1670.3176206627224 10.987376626871585
0.9843329520497703 6.649547075793285 17.15922139827109 1765.5409881062683 11.298426553667248
0.9856048451229353 6.5845202106826894 15.768097696710342 1867.0635340126132 11.627656027970094
0.9863973381759295 6.521175804652592 14.542223718240324 1975.4689232092885 11.976672101393229
0.986723520477251 6.459337390146243 13.45734475919758 2091.36992722544 12.347060879927971
