M[M_sun], R[km], Lambda[1], P_c[MeV/fm^3], rho_c[fm^-3]
0.23841724892012095 16.20908015294055 2780876.1263280716 3.453507347168396 0.169602847481901
0.24841048668009863 15.866398952076771 2282298.078883502 3.6354824873636007 0.1719776255898789
0.2586868150062983 15.5632179402749 1881914.1508178434 3.824630308098344 0.17437324881966015
0.26924679751354585 15.293907153329222 1558503.3370644068 4.020046604469344 0.17676379643213716
0.28009565519373125 15.054245457122903 1295821.3748839414 4.2220763648597375 0.1791416409230897
0.29121917455339974 14.840279843257838 1060922.0722832617 4.432080346616423 0.18154329767299676
0.30263614407841427 14.648931236459944 905974.2186202145 4.650405882240961 0.18397264346022693
0.3143325881350793 14.477479827364984 761430.3351987075 4.87741903913607 0.18643131481714315
0.32631134466647005 14.323707647196628 641991.0729729524 5.1104061371328875 0.18885907523355777
0.338574462517235 14.185458978857259 542860.3226041148 5.3526149169623345 0.1913092127624978
0.3511182300774292 14.061208634347084 460372.70919909613 5.6045157047855465 0.19378929660469527
0.3639497007649774 13.949395062208337 391435.6947332217 5.866520565712512 0.1963049759790034
0.37706226005488647 13.84875811556722 333672.9320132934 6.135480746008487 0.19879559399644084
0.3904605069548914 13.75809309713661 285127.1086728571 6.414900481590107 0.20131706321446263
0.4041417002860417 13.67646826474316 244215.4827080859 6.705551874743871 0.2038732220483789
0.41807697609391326 13.603664376387323 209812.73898507917 7.007473667483967 0.20645450836262885
0.4323548095219901 13.536966874208114 180315.59729227534 7.317400713629282 0.20901327555875443
0.44688478435668283 13.477590795708679 155423.61666613992 7.63986298129186 0.21161651688581645
0.4617020762184843 13.424306603186006 134216.47267641197 7.975394035482245 0.21426430042017633
0.47679978514110005 13.376612549758558 116125.19258741727 8.321986156945389 0.2169178978908902
0.49218151205991956 13.333859426904247 100645.45098964038 8.679739400390327 0.21957004793337156
0.5078389350351414 13.295790860816016 87382.82439319557 9.052084675113662 0.22227024743600665
0.5237833714007782 13.261918350884443 75990.7697829029 9.439626079169706 0.22502142469692657
0.540004686597454 13.231873363581252 66193.92902916516 9.836853389844169 0.227745341483849
0.5565019096109779 13.205385749401673 57744.03611630051 10.250119971591666 0.23051721148883508
0.5732738068401713 13.181996696055323 50447.365440812486 10.680300651700176 0.23333974349419181
0.59032527566617 13.161654292706881 44135.97856253196 11.124285323761324 0.2361645647896924
0.6076478231661328 13.143853327648289 38666.81653789212 11.583144209924939 0.23900860671034324
0.6252388380769925 13.128620564166432 33641.310960070354 12.060834530228895 0.24191198565464467
0.6431020536318788 13.115587674351266 29796.151251283365 12.556872267978582 0.2448614495881802
0.661219317222958 13.104495691374098 26000.82396394158 13.066549949824765 0.24779204221072976
0.6796119295211699 13.095371042380902 23076.31245405555 13.597170962032333 0.2507812720343164
0.6982461031169835 13.087895967197545 20193.2732797289 14.149639922981594 0.25383077745409804
0.7171562014726455 13.082052623060996 17958.32087421739 14.717720819316527 0.2568742238489826
0.7363040323376403 13.07749158578879 15868.554279211527 15.307456127042869 0.25996827886344576
0.7557012874155559 13.07424603409212 14038.042282452143 15.921428289673559 0.2631283701034023
0.7753351827083769 13.072083557425247 12431.89790903657 16.556437986708374 0.26631074240668606
0.7952123189730851 13.070962586708657 11020.42340800872 17.21217070185931 0.26950944308761793
0.815322481947233 13.07076014755309 9779.710619220525 17.894929210704948 0.2727799307535775
0.8356517762028516 13.071311988029947 8687.680404534349 18.605075195265997 0.2761180911212747
0.8562006056971955 13.072535515019261 7724.592374677826 19.334724105299237 0.27944875523431034
0.8769667181002313 13.074463018886654 6875.179962927245 20.094379847982847 0.28285039066480605
0.8979303071307189 13.076794235374404 6124.798111397177 20.88529229440415 0.28632449748448
0.9190999289858623 13.079688485485331 5461.733814405869 21.70171411018904 0.28981784052716386
0.9404567175748717 13.08280116228848 4874.413703391518 22.547611559169177 0.293361250615517
0.9619939885550344 13.086202053971615 4354.352369956242 23.42828589990939 0.29698800164700806
0.9837171212026209 13.089977413157104 3893.5533080347795 24.34377322046821 0.3006891503351003
1.005600498458998 13.093696430793077 3484.1899872648005 25.28646009568948 0.30438849957393116
1.0276245790886263 13.097510783692593 3120.5294797754104 26.26794895971079 0.30817411710711656
1.0498138836051059 13.101398061883279 2797.1500739927424 27.289735322977908 0.3120479593105124
1.0721270636269902 13.1052460058712 2509.682512656769 28.3476331919117 0.3159738496330182
1.0945795676292602 13.108942775352558 2253.3086877931446 29.442672071807674 0.31995187525774993
1.1171200077227619 13.112438527956987 2025.0357223669312 30.58266994266353 0.3240191854152139
1.1397923188528538 13.11575590205416 1821.1242837243399 31.769475485717013 0.32817606184040116
1.162533194888215 13.118735389655436 1639.1577108552137 32.996864645686976 0.3323801145253128
1.1853601512267373 13.121453862687751 1476.6217685041483 34.270515113168976 0.33666154849646707
1.2082531787133404 13.123827510882133 1331.174098247893 35.5965808825402 0.34104853660114837
1.2312026333395576 13.125770549607404 1201.0173589144183 36.977079717236855 0.34554034384209753
1.2541770529288014 13.12718785838482 1084.5036016650704 38.40757779827957 0.3500887739589242
1.2771981360180575 13.128146060495142 979.9230236747107 39.89168075030231 0.35471997242362135
1.300218182615971 13.128686191864904 886.2491436392473 41.437137129863586 0.35946815941905363
1.323212681267107 13.128273865357647 802.0003917964534 43.046400254432406 0.36433552113947554
1.346217918458779 13.127490803742946 726.3939456462409 44.72190042707193 0.3693233804331277
1.3691653391597582 13.125952398637553 658.44058024928 46.45545389226165 0.3743618167368348
1.3920686198378427 13.123718090807689 597.2628907403118 48.261303333044005 0.3795321240295126
1.414908577982226 13.120789515373216 542.2174333008888 50.14247110448296 0.38483756921094203
1.4376506921214096 13.116958894709697 492.5521919918741 52.10214271543643 0.3902810136406269
1.4602876200834565 13.112331895783019 447.84868893643227 54.14369689077246 0.39586424852558977
1.4828302649310952 13.10700003827673 407.4959823957332 56.26447690546467 0.4015507052029812
1.505203192473138 13.100552897774657 371.0446646385878 58.47146980337017 0.40737591435019277
1.5274513170632775 13.093442449012063 338.1424514531324 60.77216675305896 0.41336155434627864
1.549476571421032 13.085042855909329 308.3710227693425 63.17081061012001 0.4195108087336977
1.571348826031736 13.07585802445245 281.44170184882984 65.67190932063764 0.42582461679488526
1.5930135279220783 13.065715594324631 257.0653022382097 68.28031537553785 0.432307957318176
1.6144255037197641 13.054401592121016 234.98684154671147 71.00107029704965 0.4389760585729562
1.6356021225158546 13.042061690028303 214.96363007198138 73.83960151663511 0.4458361800379606
1.6565038477678782 13.02862755618289 196.80516773650336 76.79727455601284 0.4528723042485765
1.6770916067632946 13.013936247694676 180.3314000551625 79.88451016630137 0.4601058941246461
1.6973960989497279 12.998259724056538 165.35901315628604 83.10880923957679 0.4675600892812412
1.717348652120995 12.981206033626316 151.74849110716676 86.47721977938191 0.4752456587028876
1.7369990801534685 12.963254913492378 139.38167740211657 89.9972470736094 0.48316756703662944
1.756241190102774 12.943798644133894 128.11800901603837 93.67692746663279 0.49133332533144664
1.7750872656127854 12.923080493387818 117.86764873391091 97.5248970895321 0.49976165495265185
1.7935413309026744 12.901181142862617 108.5222813312569 101.55037100218489 0.5084687620466494
1.811558587122073 12.877970182656153 100.00639249897765 105.7632077563116 0.5174620961743263
1.8291336397797227 12.853461628806881 92.234322615789 110.17399485385441 0.5267540800714647
1.846199996488432 12.82742249330092 85.14017783099287 114.79411187538464 0.5363680832997616
1.8628270236673288 12.800256479157614 78.65962411062912 119.63577046654876 0.5463240051698725
1.8789438204886415 12.771712024303088 72.73655860420995 124.71205295208549 0.556630224225782
1.894497587860675 12.741676322987345 67.32295488753266 130.0296933501176 0.5672830897773883
1.9094983337117373 12.71012312290118 62.36403488294831 135.60981566401736 0.5783340762997996
1.9239390651570574 12.677261761013632 57.827997117380924 141.4687559368663 0.5898021839539269
1.937790374706715 12.642882192474243 53.66806371162034 147.6240558058257 0.6017050815881315
1.9510518612664687 12.607144751653424 49.85317613909439 154.09460144554262 0.6140781264362067
1.9636751107498833 12.569818913943678 46.35467499206413 160.90080815645595 0.626953381188662
1.9756625117549922 12.531079560128463 43.14370410027157 168.030226087671 0.6402316902112936
1.986345161836816 12.492033221504984 40.32134841891151 175.80342359207714 0.8808399287099304
1.991463270927386 12.454356270896328 38.43926091531913 184.89199411909766 1.3444239664378377
