M[M_sun], R[km], Lambda[1], P_c[MeV/fm^3], rho_c[fm^-3]
0.23841724892012095 16.20908015294055 2780876.1263280716 3.453507347168396 0.169602847481901
0.24843731446904288 15.865485629019178 2281206.922870502 3.6359601950682454 0.17198370221255233
0.2587404356395181 15.5616380320097 1880101.1659822995 3.8256130115521745 0.17438527033188278
0.26932973875425176 15.29199140203977 1556260.333146167 4.021629922168239 0.17678316532007116
0.28020919684146733 15.051989092279705 1293500.590277907 4.224244676310814 0.17916699596145128
0.2913695480275891 14.837626909217782 1058401.3565127875 4.434863608852959 0.18157461499485542
0.3028157534182204 14.646116874775254 903469.7384666252 4.653835629918512 0.1840097894234459
0.3145474074600522 14.47456539046723 759050.1226763283 4.8815290409366785 0.18647415079268387
0.32656404059564936 14.320612494929916 639681.7234380913 5.115434337507432 0.1889114696328496
0.33886508975474977 14.182529935707748 540729.3736077662 5.3584175458834356 0.19136711204385168
0.35144858064044004 14.058167922192736 458386.7690036064 5.611129188160947 0.1938528590863114
0.3643192073201766 13.946343867367649 389631.54051333683 5.873983987222242 0.1963740885593988
0.3774797481291791 13.845715287509185 332009.28688190226 6.144182547899443 0.19887617419440895
0.39092333422899284 13.755216842292 283633.902033145 6.424564609035404 0.20140319883646648
0.4046437535979771 13.673643509353942 242849.83249114183 6.716221702228954 0.20396444394863558
0.4186587380281919 13.600317855731886 208392.81252190855 7.01968219525791 0.20655888541131426
0.4329569689061381 13.53449541636106 179210.06337308043 7.330741646807379 0.2091232490902845
0.4475358038690474 13.475117137049573 154407.2307352831 7.6543886386010485 0.21173200327367667
0.462405650509871 13.42201242955468 133308.07459934126 7.991158779401332 0.2143849993108884
0.47755453389765046 13.374406490748951 115301.12171937939 8.339730484847536 0.2170537529802727
0.49298959354974853 13.33182523056717 99906.6742688888 8.698872926252898 0.21971081698606237
0.508709533312666 13.29390145786984 86714.8659305134 9.072669571132375 0.22241643417440962
0.5247058803900098 13.26008318617358 75388.96140676492 9.461730247455675 0.2251730001637616
0.5409791154132666 13.230176082383856 65652.57113240434 9.8614626419844 0.2279140951249432
0.5575409388393223 13.203756775854147 57252.198828047374 10.276430885158709 0.2306910794646204
0.5743710473234194 13.180628912360618 50009.20811988189 10.70838902557035 0.23351845380032943
0.5914925279981516 13.160315347715775 43739.114554039676 11.1553786612516 0.23636239396582806
0.6088755014950858 13.142689772174695 38310.29615107087 11.616224991515153 0.23921203741516534
0.6265334104294485 13.127535380689674 33599.195693363676 12.095997272550347 0.2421210649895191
0.6444589203424002 13.114595588422006 29270.305337692564 12.595461766159394 0.24509002136460636
0.6626532907599474 13.103744074856403 25944.7721159505 13.107625025937027 0.24802763655539764
0.6811081442880117 13.094698547623977 22842.651551125753 13.64067939099553 0.25102206056078935
0.6998183700843977 13.087339872016628 20132.590787449677 14.195697212455894 0.2540775255713346
0.7187945779041319 13.081597648517763 17767.044327156327 14.768207690448673 0.25714470308341464
0.7380155009235787 13.077197864078629 15697.184741073896 15.360796020427532 0.2602450332861272
0.7574874616735655 13.074012996618274 13882.382664665029 15.977758326205075 0.26341066996266105
0.7771854569921236 13.07189654830166 12291.292420768106 16.618009739201597 0.2666193113005376
0.7971390282868708 13.070864711019729 10893.78556336682 17.27708234368309 0.26982407594208707
0.8173203305919466 13.070753971482189 9665.598735319501 17.963346087253704 0.27310153576260654
0.8377198694371971 13.07137778835474 8584.363061640555 18.677843492800914 0.27645276386022255
0.8583516206044179 13.07276664438038 7631.168537166849 19.413257147552 0.2798069395263924
0.8791830359960621 13.074643599286619 6790.908930637916 20.17703639028813 0.283215121352854
0.900241464391607 13.077087188469534 6047.987144504921 20.972277115077517 0.28669669211750354
0.9214656763730057 13.079935745441814 5392.371518744993 21.796281368383966 0.2902224792409926
0.9429221975855816 13.08321562902805 4811.654348861133 22.64703208905894 0.29377464478944615
0.9645367669591237 13.086651438071792 4297.48225924904 23.532817687543623 0.29741060464759383
0.9863169663783184 13.090293894732897 3841.811608931941 24.454957151006315 0.3011299180793223
1.0082867334035928 13.094174989392071 3437.1025153536716 25.405659301352046 0.30485563000110255
1.0303901737837322 13.098073719709937 3078.094294264045 26.393178903776807 0.30865129860763746
1.0526569785863007 13.101926206879952 2758.620740531422 27.42132307347492 0.31253628534973316
1.075044219053963 13.10567902245267 2474.3877058033468 28.49017244616859 0.3165028170270336
1.0975639846357965 13.109453526049837 2221.588566519608 29.57124689394074 0.32034771374874904
1.1202173219954727 13.112917113711568 1995.6852829499505 30.71574441631888 0.32440989924130037
1.142959822712953 13.116249929057007 1794.5842849307357 31.93104282097638 0.32872337956956044
1.144017382057767 13.105745144239178 1772.68539998995 34.29394179090229 2.242095239417351
1.1272400396253752 13.077160733419797 1882.1000405840832 37.97888099068152 4.186799848079323
1.1057631945439126 13.04336648660955 2038.6995815244193 44.08941372281893 5.700968802784261
1.0790834211341518 12.998633998522612 2251.634359031408 52.2770596167093 6.663557433454926
1.0457514113493729 12.935576084350094 2544.951957480351 61.64631684019968 6.710864948118274
1.0088177804115943 12.855098658317814 2906.7662877117705 71.01367589537061 6.747116369475185
0.9702875808663702 12.758840929250082 3329.1219076472394 80.73332574256813 6.78465628843099
0.9314737755145195 12.647804222170201 3802.978302739009 90.8436399979003 6.823628632686934
0.8928463786542951 12.521705114316513 4323.451168113058 101.32817640800349 6.863961370147146
0.8550038611591861 12.380641319011046 4877.438132708458 112.18246689357065 6.905628974947474
0.8180781137757221 12.223300223932652 5452.236673702533 123.22119339614373 6.9478940197242895
0.7829136770646818 12.050626600191178 6010.35022258312 134.6290361437984 6.991473235875118
0.7496259558908458 11.861547448411429 6522.672868633779 146.458369786831 7.036563116965718
0.718249828221223 11.654887495543434 6955.622989479059 158.7120795749968 7.083164930665297
0.6895980808084754 11.43298359523025 7253.121802173214 171.39723643554726 7.131295731098744
0.6637722368488788 11.196327041803835 7380.958777563255 184.52410022382878 7.180984412859142
0.6407200297465574 10.945276594107149 7322.530441597172 198.0369242008904 7.231999372453521
0.6208016966363539 10.683329965598489 7067.5080799425405 211.96828011562235 7.2844555251080205
0.6037761132806241 10.411215400270713 6636.1067631884625 226.4036555660021 7.338675414543294
0.5898930997068934 10.134574863374965 6063.880861750325 241.35829107604374 7.394700687564124
0.5789986129611979 9.85666235567031 5399.300140835193 256.849744545216 7.452576209884378
0.5708759984281985 9.580586609600257 4696.958782379659 272.8981354183396 7.512366611294628
0.5653534488725368 9.30962041857153 4002.078419330497 289.5249684129114 7.574146197363288
0.5621994551768802 9.046573844265641 3351.130045449127 306.7538694764892 7.637988785865181
0.5612853772541663 8.795701181477973 2768.7805020852315 324.61027995931994 7.703966333189548
0.5622256294111405 8.555235393219206 2261.0768589191784 343.12257853416963 7.772150773290389
0.564920741807925 8.329602714457911 1834.5011229834172 362.32028908803466 7.842655040197019
0.5691000943294868 8.118139844632763 1481.4725591519427 382.2352955851947 7.91557780468278
0.5745746100942515 7.920889006661536 1189.1465305196905 402.90233611129537 7.991007742231142
0.5811716920219111 7.738312948692184 963.3737623231889 424.3583933883394 8.06906990248865
0.5886776696148563 7.5678403890743215 778.3457427033132 446.6427689638737 8.149892906448825
0.5969926093542536 7.41074766705055 631.1064570114268 469.79832276291705 8.233584895201572
0.60596094499519 7.265419972880702 513.9540346250604 493.8701752627585 8.320307536585213
0.6154810343694155 7.131097944509313 420.5888747428032 518.9071277633003 8.410198088057443
0.6254235080478939 7.007991330507311 346.5680140308951 544.9617769511697 8.503422948124726
0.6356980243015974 6.8923740188992015 286.7678854030646 572.0895317324475 8.600141987089664
0.6462620536849167 6.78647522998425 239.02495897733783 600.3510373034877 8.700557095455956
0.6570061372746524 6.687435799546716 200.31753584640524 629.8100103047609 8.804830470537961
0.6678740028512107 6.595388936042745 168.41655578845743 660.4471672955899 8.912861389377616
0.6788059779052521 6.510054132824749 142.92767372454372 692.3950730286399 9.025062702192733
0.6897495495735383 6.430258548536513 121.98136881349735 725.7528288743501 9.141785071137612
0.7006496960415802 6.355908138740376 104.8969823310284 760.606137912451 9.263272905021047
0.7115161605648967 6.285316549377713 90.38514668148675 796.9988729379277 9.389616686317673
0.7222380864044556 6.219469330616872 78.23556035189742 834.9638217622593 9.520834985456327
0.732809070287808 6.157224674151813 68.26719533891588 874.7083230722968 9.657663375812866
0.7432021191458219 6.098423871068331 59.65880667238152 916.3260164042857 9.800351313604262
0.753397223943007 6.042539293188567 52.44037323342555 959.7886736254501 9.948662651577997
0.7633563025757321 5.989469983687343 46.35523479834418 1005.386279464113 10.103606162395844
0.7730557223349716 5.93874913790502 41.02115227755401 1053.147018219259 10.265165419404465
0.7824629695495726 5.890267265565303 36.54673169664456 1103.2282809622266 10.43377572265034
0.7915784652730108 5.843659877992153 32.636101930216626 1155.8102828037338 10.610006631162104
0.8003589800865437 5.798953434094659 29.212751000701765 1210.9893039724143 10.794028841331986
0.8088318803312348 5.755501619164805 26.28107651741781 1268.9984725710544 10.986555796410732
0.8169307490234127 5.713544572307468 23.70262506770352 1329.9956004253916 11.188002604447876
0.8246510099037407 5.672911492876294 21.447695843228658 1394.1574168432862 11.39880015084442
0.8319991470917769 5.633102062080476 19.45908264919717 1461.7835849362514 11.619867443105415
0.8389519796365259 5.594413895710956 17.70954616156083 1533.0008787329373 11.85139157158893
0.8454919696502917 5.556492171740352 16.150640743916682 1608.1258571707494 12.094309396511497
0.8516070914742061 5.5192925738229315 14.794195126343798 1687.4574937861428 12.34944585196903
0.8572814705994433 5.482657635815961 13.561537516335997 1771.287202549217 12.6175390748872
0.8625274622197714 5.446713303756534 12.48064159430891 1859.9082863308286 12.899282355840855
0.8673406369613096 5.411025053404765 11.509642798672546 1953.6929120936015 13.195666501568226
0.8716604328732399 5.3758360674858885 10.655370719001606 2053.0578454593688 13.50780544496503
0.875561132979428 5.340864657144002 9.875702913225004 2158.431022984898 13.836784634952425
0.8789748688931474 5.306179335954808 9.170328760153934 2270.2841379961533 14.183797191318915
0.8818731963826261 5.271905125329841 8.554457136103567 2389.1367392201582 14.550148013135667
0.8843506604979297 5.237428818494988 7.980098200149834 2515.561733156846 14.937261099267456
0.886323012413634 5.203166532019338 7.474703557565323 2650.149962156203 15.346519083361661
0.8878096664215811 5.169098431068553 7.010039625118781 2793.615820698369 15.77973510560849
0.888792095518114 5.135067857015306 6.59555140698143 2946.7417855915846 16.238851782056148
0.8893101465632318 5.101010779960718 6.22266465734929 3110.3801197184903 16.72595169917901
