M[M_sun], R[km], Lambda[1], P_c[MeV/fm^3], rho_c[fm^-3]
0.23841724892012095 16.20908015294055 2780876.1263280716 3.453507347168396 0.169602847481901
0.24839644847808093 15.866869779760988 2282960.704489633 3.635214310213943 0.17197421427510995
0.2586567654067402 15.563878532285155 1882912.6084773396 3.8240787130136162 0.1743665011003689
0.26919943626181664 15.29499833927021 1559752.9630873394 4.019158016349318 0.17675292624245367
0.2800313779569683 15.055565320727261 1297285.0664665785 4.220859634153351 0.1791274131451933
0.2911396109023617 14.841709132235664 1083022.3234998058 4.430518749132851 0.18152572654715576
0.3025337198718585 14.650575584644074 907436.2633278001 4.648481811783643 0.18395180476969994
0.3142094663676822 14.479257036944743 762781.7572081808 4.875013493368535 0.1864052614968983
0.3261698592325025 14.325398611125985 643204.586051811 5.107586132712106 0.18882969047825343
0.33841205131204255 14.187243225178014 544014.439265757 5.349360980792281 0.19127674462290464
0.35093353647545916 14.062968202016066 461452.8256027291 5.600807506541961 0.19375365694714908
0.36373765835130517 13.951076796528373 392455.768980599 5.8623362892022115 0.19626622885125006
0.37683061767326154 13.850310084399448 334603.4145304741 6.13060295616858 0.19875042481471597
0.3902056391418869 13.759728887298154 285979.2011654655 6.409483871011292 0.20126878538244936
0.40385748363694585 13.67801429494215 244985.7566028633 6.699572240204869 0.2038220990451016
0.4177953422022599 13.604476185742287 210329.6418324517 7.000632812746755 0.20639602234030274
0.4320191146061861 13.538452343563137 180964.75101253935 7.309926133070958 0.20895166022722317
0.44651984022084146 13.478987527075974 155997.92098166575 7.631725482769072 0.21155181962010164
0.4613090848497236 13.425662192105019 134737.626795783 7.966563287493089 0.2141966899666276
0.4763755896686147 13.377915897283525 116595.20084553324 8.31204816946866 0.21684181013009257
0.49172775743012 13.335131599427458 101069.26010954248 8.669024443381282 0.21949121592098556
0.507353534342698 13.296892811112675 87761.73674401305 9.040558068092025 0.22218838950076064
0.5232651089501288 13.26300750170024 76333.85770216171 9.426922803338991 0.22493221684039544
0.5394567529224031 13.232948266827538 66499.41554206023 9.823076978032379 0.22765087215007138
0.5559168461716817 13.206220415728277 58017.38026283634 10.235392352355479 0.2304198883252662
0.5726575089514807 13.182859123888782 50697.89371327659 10.66457955452329 0.2332397191174769
0.5896741662967339 13.16233599093316 44358.75727265889 11.106885345452492 0.23605385864968118
0.6069597203882616 13.144534655505716 38867.46284705011 11.564633737342971 0.23889477631387357
0.624515466576509 13.129252902391414 34104.46950251809 12.041160863111902 0.24179500509613877
0.6423450347381721 13.116148466400684 29959.81354361398 12.535196591518762 0.2447325649870947
0.6604256048082022 13.105074779824307 26354.26869159486 13.04357440722779 0.247660261373934
0.6787720384326573 13.095782055884612 23209.55130286178 13.572836444876415 0.25064659761218633
0.6973689827040032 13.088193347109167 20465.92906129066 14.123882049381866 0.2536927817776852
0.7162385848857793 13.082286915499946 18066.365121340343 14.689490759007324 0.25672298363684076
0.7353390859669455 13.077646359293071 15967.033316841173 15.277633346790152 0.2598135431523697
0.7547003563027672 13.074396748647965 14126.656056873035 15.889936385397144 0.26297054737342684
0.7742977019991943 13.072228974263874 12511.628903971423 16.522021997175273 0.26613826552579484
0.7941338740401991 13.07100028840599 11091.909300044605 17.175890924674928 0.26933359158341447
0.8141967679958845 13.07075145016236 9844.663842963988 17.85669354475212 0.2726001975895645
0.8344814442976828 13.07130176948218 8746.529132966734 18.56338898404889 0.27592213809022237
0.8549883964200771 13.072514196545216 7778.0169685682895 19.290846873412363 0.2792486339249723
0.8757058055834139 13.074363119158845 6923.463953276987 20.048202652609707 0.28264662893257236
0.8966372367478945 13.076667615765514 6168.3570204878215 20.836701122497757 0.2861165833535331
0.9177603229380991 13.079487740557818 5501.029170214789 21.648897489118372 0.2895918463508839
0.9390774845656973 13.082598225810106 4910.013948217394 22.492089012515557 0.2931303858501233
0.9605747780529025 13.086035820228505 4386.790927753172 23.3699138492016 0.2967520140652614
0.9822518631943629 13.089699839024982 3922.6325585656336 24.28042455560491 0.30043304320768743
1.0040728318827614 13.093393916481674 3510.7691934231316 25.21991642260618 0.30412772120498005
1.0260743472134122 13.097270281528685 3144.6875793383924 26.19804455806712 0.307907750404503
1.0482246241202196 13.101209764632419 2819.285532957276 27.21628826850276 0.311775395116134
1.0704891645580457 13.10492269674519 2529.4867487427014 28.26808968079197 0.31567866130747807
1.092890584385461 13.108629808974541 2271.458075175502 29.359141760598458 0.3196498089351629
1.1154042999425875 13.112161225670635 2041.4063964353265 30.494938113707992 0.3237109858456653
1.1380209807860813 13.115504394898716 1836.2206175038066 31.67731446149705 0.3278603919502372
1.1607288782933707 13.118506984337948 1652.8303915091305 32.89721727814616 0.3320388024160673
1.1835271790689406 13.121398116994545 1489.1438246992882 34.16587378082519 0.33631167956991426
1.2063724718554287 13.123611765289496 1342.50682202869 35.48666011084779 0.3406895775862273
1.229287865675397 13.125628256457514 1211.3110445128675 36.861584361849786 0.3451731133230512
1.2522358400895095 13.12709271164176 1093.856342874955 38.28285699086284 0.34969221007382223
1.275205947895162 13.12809770035566 988.5296611986575 39.76066814211497 0.35431270464897163
1.2981950399617859 13.128565408848472 894.0195119240228 41.29946405347877 0.3590494314601357
1.32117196917965 13.128357215374333 809.152325082645 42.90167395597519 0.36390467999449466
1.344129824543537 13.127576546847536 732.9437630894283 44.56575529006064 0.3688585461194592
1.367047715698312 13.126115924819103 664.3652945115612 46.29132643335159 0.3738848342447648
1.3899235494784417 13.12394671864147 602.7246272817698 48.08872427849424 0.37904058114935973
1.4127503565705168 13.12109515595953 547.1705999255371 49.960928872928534 0.3843305386664837
1.4354581842763536 13.117356509056751 497.1290652240095 51.911093054987305 0.38975774954511005
1.4580757518163918 13.11283752857515 452.04325371213633 53.941232127218186 0.3953180781157394
1.4805881088587434 13.107505439773172 411.32073353867634 56.047742264605795 0.4009695736677933
1.5029545120589638 13.101286094765811 374.57410551357833 58.24327698101196 0.4067749839395798
1.5251718874036668 13.094137827715766 341.3633835216598 60.53180043889994 0.4127395620639022
1.54722013729114 13.086006639023864 311.31356660813947 62.91750901866472 0.418866846659275
1.5690644999670151 13.076931542416759 284.15458988634174 65.40486689526199 0.4251582968550738
1.5906921241270813 13.066762570080382 259.56814825874255 67.99866677446532 0.43161639225800946
1.6121273975588897 13.055712242692314 237.27898138057728 70.7038796524364 0.43825764388480465
1.6332983234966436 13.043540623614904 217.07027092942295 73.52039252547159 0.4450661496504876
1.6541935459817867 13.030223328836074 198.752944727004 76.45944518133423 0.4520686287203533
1.6747875190271102 13.015693006268256 182.11295229757687 79.52775977004941 0.4592710369639878
1.6950900500704866 12.999995880871559 166.98988772584104 82.73104956778295 0.4666802540316008
1.7148531881705584 12.983399756750954 153.39121496262305 86.10130316001796 0.5153237646190908
1.733133352127785 12.964831569347536 141.5199874970488 89.68007973643502 0.5879389149930617
1.749885374768961 12.943984491586379 131.10764210126467 93.49244385088815 0.6597643047832691
1.7651947582307013 12.920339546173388 121.87136423410459 97.54882232433484 0.7308802962022919
1.7791323607444711 12.893622780739985 113.60232936980486 101.86041140988065 0.801759133697609
1.7918307117696552 12.864222307795362 106.1622130386657 106.4392803203162 0.8723218721259479
1.8033431416830734 12.831781799699584 99.40498534151781 111.29837191057229 0.9428024937947279
1.8137750409153952 12.796470218914756 93.24108378979209 116.45182286085614 1.013533252831202
1.8231986394460076 12.758437987017444 87.58435665113754 121.91494220633032 1.0844961245188782
1.8316436450553533 12.717582825166344 82.38465845979906 127.70449219423547 1.1561719733034943
1.8392287554081432 12.674078505792536 77.56713893348937 133.83735094109014 1.2283063459172547
1.8459326587501443 12.628036644698538 73.11073774439595 140.32722238847654 1.3012867139278559
1.8518298806758555 12.579442216898853 68.96194705318048 147.2005435447373 1.3752504400413206
1.8569648464419417 12.528366198390223 65.09303029851348 154.48034898787603 1.450703582782529
1.8613889312405671 12.475233221414728 61.48410761941192 162.19207277932819 1.5277541334086668
1.8651066385327497 12.41976815726087 58.105241496282474 170.363140412385 1.60665615259993
1.8681293977815159 12.362137467259647 54.94903091643708 179.01133980450481 1.6873414403194231
1.8705369676592971 12.302549418049097 51.985846189921475 188.17230370927967 1.7701710095940488
1.872238217306625 12.240787842757298 49.2087323626335 197.88760277015214 1.8556316227646252
1.8733636925493458 12.177321179160588 46.60193793340061 208.19220919994203 1.9438046939309521
1.8738478293749845 12.112080727939508 44.160142480603206 219.10605673264072 2.034306243255994
