M[M_sun], R[km], Lambda[1], P_c[MeV/fm^3], rho_c[fm^-3]
0.23841724892012095 16.20908015294055 2780876.1263280716 3.453507347168396 0.169602847481901
0.24842688245931888 15.865942373363046 2281691.2699363995 3.6357824535452257 0.17198144127315718
0.258721182040899 15.562204595146836 1880844.5700424102 3.8252473545338925 0.1743807972120444
0.26930079474566326 15.292682925102836 1557048.8105996437 4.021040745114243 0.17677595785669217
0.2801674245187637 15.052768509878911 1294358.847986493 4.2234377694645815 0.1791575604377721
0.2913126913342629 14.838697428669695 1080092.2424444081 4.433827801192027 0.1815629600665216
0.3027493173182535 14.647186957158096 904425.2994207904 4.652559162454253 0.18399596461242906
0.3144672809032706 14.475655923264657 759921.8137127174 4.879999675621536 0.1864582146383909
0.32646922358653097 14.321830839992492 640528.0863933614 5.113562754713568 0.18889196753490103
0.33875705695673725 14.183557620028191 541512.0294615667 5.356257601498018 0.19134555987682866
0.35132680997780363 14.05926912764058 459116.0920392104 5.608667297475489 0.1938291977459023
0.3641784906046021 13.947576035464198 390329.694185575 5.871205574997183 0.19634835997927966
0.3773249613139256 13.846780787824002 332621.4147692172 6.140942917625717 0.19884617465499496
0.3907502139535289 13.756231269802303 284187.7269190257 6.420966547578382 0.20137112959241285
0.4044570493013977 13.674732365248916 243369.38127280548 6.712249032033944 0.20393047952655016
0.4184519163436745 13.60129108649841 208844.05894179354 7.015136329356867 0.2065200204412494
0.4327347676270971 13.535406827836146 179621.06449607704 7.325773914218249 0.20908229849940527
0.44729393523628647 13.475978514841634 154785.47515434428 7.6489795252434725 0.21168899806228442
0.4621437587936002 13.422852882297175 133648.58418486506 7.985288008638083 0.214340051196134
0.4772777617231392 13.375340185684395 115610.90725880416 8.333122081067273 0.2170031573594527
0.4926873991063118 13.332589596801395 100184.6441843507 8.691746865871815 0.21965838918072905
0.5083845874502769 13.294675539183878 86968.57324709151 9.065002662293132 0.22236198646693406
0.5243604588003431 13.26087215464573 75621.56952935086 9.453497161516136 0.2251165432173326
0.5406161397407598 13.230827206038775 65852.97319003995 9.85229587253991 0.22785123560722956
0.5571542843376458 13.204414523984486 57437.42918782424 10.266629886395968 0.23062631243130513
0.5739667315015584 13.181112654051434 50171.77181111996 10.697925519526395 0.23345188047796372
0.5910579422757979 13.160789886779982 43886.23508651122 11.143794940663582 0.236288693357097
0.6084147530497085 13.143099698132831 38443.01621835642 11.60390040320169 0.23913624719598892
0.626051714657441 13.127949215873768 33718.32837329459 12.082896553294736 0.24204316749098786
0.6439483678025845 13.11497680514627 29616.015728504444 12.581182606515439 0.24500600001503237
0.6621209682730718 13.10400803876747 25837.4310913558 13.092319894184737 0.24793985089980003
0.680552048668475 13.095050257223587 22930.84690412626 13.624466987689871 0.25093233632124357
0.6992310183918311 13.087539143159988 20061.52062190791 14.178534436782797 0.2539855774208415
0.7181895322669605 13.081858730228099 17838.486146836007 14.749392913804094 0.25704390447441555
0.7373727278379573 13.077245755234062 15760.536703274036 15.34091732994449 0.26014189255675557
0.756817859760024 13.07411502459956 13940.508011809125 15.956764549625543 0.26330545895023083
0.7764945581250519 13.071979901722298 12343.598270064851 16.595060713148065 0.2665043014900716
0.7964153304293351 13.070880090473032 10941.216220020564 17.25288765156357 0.2697068019858184
0.8165827717727709 13.070762468433623 9707.704056334625 17.937844015687133 0.27298165899578886
0.8369545589500297 13.071388656728367 8622.027652204146 18.650967183817844 0.2763301826965399
0.8575488570738055 13.07268031611029 7665.83512186239 19.383981109416567 0.2796734133481914
0.8783550044127423 13.07457409538464 6822.253373349684 20.14622212777667 0.2830791501779894
0.8993772341358262 13.077042450851625 6076.675484936715 20.939848182602958 0.28655793371657473
0.9205903670910363 13.079891975328284 5418.154635915406 21.761022874046343 0.2900716135812216
0.9419989225593376 13.083014867964483 4834.976353852999 22.60996284654139 0.29362050953281743
0.9635889088350941 13.086548765418971 4318.612432137207 23.4938413725403 0.2972530304967545
0.9853503959724846 13.090207402336311 3860.934432271061 24.414087971972865 0.30096955638948025
1.007284519082556 13.09400857510524 3454.5748545015012 25.3650337374673 0.30468981633341546
1.0200264825903147 13.090333353007328 3227.930251998705 26.732873216876257 0.9753477525566141
1.017900967835282 13.07021418098122 3218.628947436749 28.215394988328306 1.713690028759832
1.0067065451324184 13.039191426010403 3337.705662793866 30.58970366498429 2.5471554723682974
0.9906255600666952 12.99986355182903 3531.898617206622 34.15750147275347 3.425466411069593
0.9706011981191732 12.949986962376169 3792.078042944114 38.65798748289525 3.9988356467688857
0.9477200316090016 12.888482410803624 4108.518935261776 43.653427834917856 4.271948688701678
0.9220866318997026 12.811486952784437 4481.8266522875865 49.052609949160455 4.379730583600046
0.894847402050061 12.718833118716177 4895.316871666089 54.71908628237759 4.4052642921779634
0.8671550351247757 12.611303097034614 5326.859116209889 60.45255443866647 4.429194615350693
0.839814444959431 12.48965466468491 5751.1186263506615 66.36306852982527 4.453808609785719
0.8133624823641622 12.354570612720385 6146.32034500074 72.50529203821924 4.479342088122421
0.7881747861846228 12.206340735837795 6486.102133300567 78.87524570934549 4.505776861598096
0.7645604077645579 12.045465844480711 6745.815761644064 85.44018050533151 4.532968756004692
0.7427637932435124 11.872532811139774 6902.827476581762 92.13013797736555 4.5606144536699595
0.7229995340554195 11.688545112331171 6940.404303202532 99.07233515362648 4.589249805197219
0.7053833600809631 11.494422295609379 6848.359165750858 106.26762141853041 4.618872713215291
0.6900370798239865 11.291915051802581 6628.777736019282 113.71949922155768 4.649491977555523
0.6770228255084396 11.082739079841772 6292.074017963226 121.42635821445081 4.681094209046943
0.6663558611769759 10.868748206073207 5857.568947340111 129.3077524371572 4.713329446425615
0.6579978161817385 10.652404928690508 5354.93005633504 137.47689349322107 4.746672480211187
0.651896459322327 10.435773482581068 4812.043393183833 145.94034432738306 4.781143433406599
0.6479450889354262 10.220946389124027 4257.856298274069 154.70618817052917 4.81676837978841
0.6460347086137218 10.010206428561043 3716.232918779622 163.78356727750028 4.853577344625053
0.6460383635672643 9.804891048192221 3205.8307312103307 173.18281687911107 4.891604836483165
0.6477863088817934 9.606749291307654 2739.884232269201 182.89730650793126 4.930812326692586
0.651155603365038 9.416744956046845 2324.119309698835 192.9222447081878 4.971164730821918
0.6559922168627144 9.235643176341888 1960.2663207902187 203.31457633266302 5.0128861541828895
0.6621341685185836 9.06389145111176 1647.395079436105 214.0886757093105 5.056032808093095
0.6694370582065278 8.901778935070753 1381.7407689186728 225.2598459566529 5.100658479305044
0.6777870185213843 8.749262251898791 1157.6699280457167 236.84471018906171 5.146819826286961
0.6870349782398752 8.606083344562315 970.5149673735361 248.86102531412106 5.194566700911191
0.6970874807540123 8.472071559622957 814.6087429224906 261.328542535839 5.243964790324543
0.7078260187707857 8.346621607123963 685.0595953348381 274.2679714205979 5.295094660231494
0.7191365801657678 8.229444280922246 577.7432115702748 287.701526283222 5.3480264213106885
0.730944188937227 8.119940808256711 488.8501840798222 301.65335945644557 5.402833676770211
0.7431553214225761 8.017594452191748 414.74604378373516 316.1492817001461 5.459611997520949
0.75570419814507 7.921834009298252 353.4110889629938 331.21669680624655 5.518449644886157
0.7685175038950246 7.832272914911072 302.1898194038444 346.88548654419003 5.579440518866715
0.7815277135804163 7.748383376901868 259.43429516218936 363.18719396253925 5.6427001911540104
0.7946705189135381 7.669624337538735 223.53095867359235 380.1558421714347 5.708331803593707
0.8079057826121726 7.595563086142952 193.35342329801992 397.82821367621443 5.776468586558178
0.8211792093345618 7.525846791230995 167.8561993599385 416.2430990433172 5.847221079172732
0.8344359684387331 7.460084436337649 146.28663863723062 435.442903373233 5.9207558672706595
0.8476394688018021 7.397845900940049 127.91902922009149 455.4169140425165 5.996943288114897
0.8607568844286535 7.33880687352697 112.25522981264685 476.2612679107788 6.076184390286698
0.8737282699809034 7.282762709759712 98.82497494335529 498.0296082311799 6.158633129129955
0.8865474356377779 7.229260540114553 87.30363275732299 520.7773605677667 6.244481636004082
0.8991675968948204 7.178170519137021 77.24111263342088 544.5648015771197 6.33392573045007
0.9115642525916113 7.129144742798895 68.65469493000894 569.3727429374055 6.426804448966733
0.9237065543570925 7.082080416040683 61.29914988333302 595.3418907081052 6.523656278100557
0.9355678974544439 7.036680484494195 54.72063312215729 622.5518737655916 6.624743307515406
0.9471348702466794 6.992782729940538 49.12519007525593 651.023446218478 6.730060977663722
0.9583681221283089 6.950154912318386 44.09739600670131 680.8476326943643 6.83990808829448
0.9692500546522079 6.908764159363743 39.79797404078406 712.165205358135 6.954785049227956
0.9797770131563562 6.868392140894259 35.955545773645774 744.9664244536983 7.074530541405629
0.9898926353077876 6.828886417697756 32.574114456837314 779.4457197118245 7.199856176988813
0.9996193122884691 6.790150179585633 29.57373421490505 815.6510559470042 7.330834033500927
1.0089061697528687 6.752043681338977 26.91510147606112 853.7331304083423 7.467961642542118
1.017765848029765 6.71446466203129 24.523656153986114 893.7842134532259 7.611453212718564
1.0261593667730358 6.6773720792819296 22.451163253503704 935.9877973147547 7.7619501706607545
1.0340819710677667 6.6405795947030075 20.571407818932304 980.413419375368 7.919510126653949
1.0415343825027727 6.6040984024507665 18.897736887736084 1027.3021890291802 8.084973544809152
1.0484822077050602 6.567781077818835 17.377181816006512 1076.78265786521 8.258646775038493
1.0549282275526972 6.531615747621906 16.044281875129105 1129.0301124367372 8.44100349782969
1.060854047435865 6.495501325567951 14.83098163054081 1184.2870049381957 8.632809663714122
1.0662417285374888 6.459410776966573 13.73197531412185 1242.7686786825925 8.834653100220605
1.071104334846168 6.423248799278587 12.757013434951201 1304.7115018464299 9.047181362621826
1.0754253307920771 6.387057250109937 11.860912107953808 1370.3543837444824 9.270998892143327
1.0791768032559124 6.350704248467242 11.06941682447782 1440.020378033321 9.507069595820314
1.0823723542914567 6.314157430429058 10.343045503495135 1514.0265624577542 9.756255503844994
1.0850098459851827 6.277524412086851 9.684832330397326 1592.722823068808 10.019504082454855
1.0870772757810576 6.2406181634603355 9.089559374963613 1676.495000045637 10.297851243388557
1.088562551893155 6.20345060525594 8.547882574753743 1765.7691646126095 10.592428148961849
1.089471737770812 6.166063325275273 8.053350060826096 1860.9866993498983 10.904324006865101
1.0897968407007117 6.1284596680112795 7.6072421277305535 1962.6883944833532 11.235032924364361
