M[M_sun], R[km], Lambda[1], P_c[MeV/fm^3], rho_c[fm^-3]
0.23841724892012095 16.20908015294055 2780876.1263280716 3.453507347168396 0.169602847481901
0.24842158469373973 15.865997280894394 2281905.1470169337 3.635677379711949 0.1719801046942587
0.25870642274171224 15.56272429935101 1881214.4612659034 3.825031204041367 0.17437815302088205
0.26928174661173854 15.293128140569802 1557551.4135169385 4.020692485337723 0.17677169755909805
0.28014267081987737 15.053252096070622 1294792.8643163342 4.222960835466639 0.17915198343461244
0.2912789754656793 14.839213199651082 1080609.8141527341 4.433215602959727 0.18155607159987602
0.302708973602831 14.647792336919013 904968.0989352586 4.651804762938065 0.18398779407065302
0.3144199574196821 14.476307190021165 760448.4181249448 4.879095855142367 0.18644879672988562
0.32641446708203 14.322453524521572 641039.6578427446 5.112456756088306 0.18888044290794273
0.33869329972856455 14.18425772447803 541980.1982457886 5.354981256680601 0.19133282436527124
0.35125499728478804 14.06004848043359 459558.9282154932 5.607212593373403 0.19381521652035183
0.3640976676289639 13.948102489410156 390697.12699161714 5.8695639138752895 0.19633315791195424
0.37723378741167435 13.84750304599486 332994.1310383427 6.139028854327231 0.19882845009616815
0.39064981165520907 13.756893073626976 284512.49179166515 6.418840804047526 0.20135218300439575
0.4043470842238359 13.67531658320768 243656.97597817416 6.709902066563152 0.20391041409902738
0.4183302038122797 13.60187363506015 206528.88092470283 7.012450897154442 0.20649706128573744
0.432600997880689 13.535881852446382 179861.48139537717 7.32283938687804 0.20905810826243562
0.44715014268161557 13.476577755898951 155009.35619004737 7.645784393449544 0.2116635951340889
0.4619896003784543 13.423358377309617 133849.19752989817 7.981820313472557 0.21431350163960744
0.47711149886421106 13.375821932965003 115796.348945765 8.329218931711415 0.2169732738548456
0.49251174842322254 13.333041903323364 100345.77087447241 8.687538130629173 0.21962742470103053
0.5081948538633866 13.2949831002535 87108.56940797497 9.060474664154835 0.22232983020640545
0.5241611480550425 13.261207229570395 75747.11349583528 9.448634962993847 0.22508320154162123
0.5404029406686207 13.231157456860231 65968.37952821823 9.846882616401961 0.22781411515032784
0.5569199926814627 13.20468531548208 57543.87001510606 10.26084230629123 0.23058806690117778
0.5737277363935249 13.181471769969102 50267.70089609802 10.691746940673525 0.2334125697039262
0.590805521718945 13.161114289190323 43971.967105599215 11.136955335624053 0.23624517685036991
0.6081457466604097 13.143439139737149 38522.83514511885 11.596623604926407 0.23909149842855268
0.6257664221874991 13.128204392416487 33790.38138077995 12.075161769263914 0.24199717609800214
0.6436509781752284 13.115182416704025 29679.86009966357 12.57265918685762 0.24495531935717524
0.6618071586035873 13.10418167814449 26099.73346904319 13.083284514303001 0.24788802666467882
0.6802218932867325 13.095151883529676 22981.351353294773 13.614896318727665 0.25087936940582767
0.6988847939425735 13.087614482821726 20259.16039785599 14.16840306825384 0.2539312994522922
0.7178195590482954 13.08182785156689 17879.887698732073 14.738287111271527 0.2569844060563239
0.7370052895308912 13.077373314002672 15797.641000760836 15.329183913926848 0.2600810136428698
0.7564276008968657 13.074128154248386 13974.478752657104 15.944373354737461 0.26324336006323656
0.7760958723052686 13.072071391988631 12374.871575204032 16.581516416410377 0.2664364237946494
0.795990685793611 13.070949091477242 10895.865561132843 17.23860863300416 0.2696375902351657
0.8161349169510977 13.070751557893923 9733.114972498346 17.922793900524535 0.2729109134039566
0.8364967926730628 13.071353477338507 8645.012465045636 18.63510656610765 0.27625784341152626
0.8570746155756124 13.072646687478336 7686.415682311865 19.36670556894903 0.27959462068901003
0.8778737088567594 13.07449531090442 6840.1656030851045 20.12803947412241 0.28299891730600013
0.8988674976270862 13.07691242067019 6093.521054018287 20.920713365569306 0.2864760587854238
0.9200733026384555 13.079788793865031 5433.10966403291 21.7402199919786 0.2899826012570356
0.9414530595633827 13.082943531062819 4848.974119744748 22.58809230220273 0.29352957101518645
0.9630328372772105 13.086450464951797 4331.023002881737 23.470846409800924 0.2971600660457301
0.9847860009852929 13.090116800463667 3872.1811135037437 24.38979708116697 0.30087456192078604
1.0066977709376117 13.09391426631439 3464.9665457279375 25.334987270466428 0.3045786729878979
1.0287521734427862 13.097740781129682 3103.096950994219 26.318929653803124 0.30836837611031276
1.0509749779632045 13.101625904295467 2781.439430594856 27.3433025049919 0.3122467487094216
1.0733228408164783 13.10544295818196 2495.2258344112324 28.405654048241356 0.3161891667492136
1.0957871105839496 13.109066816604493 2240.2697580582194 29.503604291949696 0.3201722212782414
1.1183783218942163 13.112631138724234 2013.0870732186536 30.646670511124725 0.3242440177011179
1.1410674343200005 13.115905083471414 1810.2987188972986 31.83671087460732 0.3284063564579553
1.1638428034434087 13.11897507575556 1629.4169861040584 33.06957111713009 0.3326291486918589
1.1867029491357928 13.121638557237524 1467.6383776672506 34.346869667560085 0.33691684041012954
1.2096178654417942 13.123932528691041 1323.047213292554 35.67679232185936 0.34131047634920597
1.2325992782853326 13.125861086666951 1193.5542790152479 37.06136393420953 0.34580833502358327
1.2556069515015302 13.127268950950674 1077.6488090311982 38.49860666032187 0.3503782105007138
1.2786335493556804 13.128182067892892 973.808785728533 39.98730742049254 0.35501723893639736
1.3016725227666623 13.128523588180396 880.5574038249947 41.53763137733942 0.3597738092398721
1.3247155575273417 13.128298308836658 796.8808728299266 43.152049502609394 0.36465003234812365
1.3477302619037947 13.127435679629304 721.7396354315428 44.83315938398336 0.3696471511801467
1.3706922311395822 13.125788177799507 654.14474673148 46.5752901498836 0.37471008141588635
1.3936306206829714 13.12357690179384 593.3448426122545 48.38731857790445 0.37989104299892906
1.4164686931002874 13.120473842818798 538.6122817281545 50.27503990090158 0.385207821512298
1.4392496044219418 13.116705173089503 489.2823391043686 52.24166359257125 0.39066314604226554
1.4619023151442943 13.112002862472421 444.83259694978625 54.29058838722704 0.39625810933391475
1.4844443437146273 13.106514381240585 404.7329556673297 56.422789226811986 0.4019751887187642
1.5068347685032748 13.10006776457275 368.52813692912275 58.638163532487084 0.40781489104564556
1.5290900021490512 13.09273495320127 335.79863279956106 60.94776595499262 0.4138159497501286
1.5511461443039876 13.084411547917643 306.2393869975005 63.35587346795153 0.41998128924328754
1.5730171299727895 13.075113211171454 279.4907730019163 65.8670261606103 0.4263114691775503
1.5946743113418962 13.064811103308065 255.27141941407896 68.4861204161827 0.4328132947307325
1.61609154381096 13.053416752880812 233.33948505187112 71.2182495396504 0.43950105746061985
1.637280020432256 13.041055066206535 213.44870991884255 74.06888682688205 0.4463816358409139
1.6581600634762381 13.027414717569478 195.426264260902 77.04388936161028 0.4534583538712182
1.6787768207576528 13.01272008872718 179.04402228023537 80.14529885659387 0.4607161844222793
1.6990528751050804 12.996836623177805 164.18356241190705 83.38435671052856 0.4681957483671841
1.7190364251804204 12.97988783515149 150.6709320125253 86.76850547235604 0.4759083267439009
1.7386425981675362 12.96154353183412 138.37510654554626 90.30531861758563 0.48385833213270835
1.757874672983326 12.94205159075866 127.19610120704101 94.0029049634534 0.4920537485561145
1.7767252635773212 12.92122929468927 117.00920650552975 97.86998921540308 0.5005146267577935
1.7951522584712352 12.899148883465475 107.73301515312585 101.91588381391657 0.5092564173290773
1.8131384809520505 12.87581470816395 99.28411911102322 106.15054198849978 0.5182858566747119
1.8306874789319607 12.851112759320774 91.56731311027103 110.58465452564005 0.5276163697227029
1.8477664875243742 12.825169822219998 84.52762965912106 115.22972330103741 0.5372723277347917
1.8643350069424713 12.79762018958519 78.08514148695303 120.09761929423857 0.5472712562216528
1.880408129225341 12.768977184788225 72.21628905240048 125.19610680929304 0.5576010147042199
1.8959424982893303 12.738742649591163 66.83289486615722 130.54406934296665 0.5683039616179195
1.9109061281006348 12.70697921189259 61.90853580704977 136.15677025334165 0.5794086837287817
1.9253313874501685 12.674146316115197 57.41159258358841 142.05065821808114 0.5909329106683893
1.9391285881360278 12.639531363024217 53.28055130826808 148.24346712588306 0.6028965682918151
1.9523356700900198 12.603586605635849 49.49436462305761 154.75430253959823 0.6153352256422145
1.9649152158666288 12.566134456049335 46.0244682195117 161.5983070573462 0.6282613126200066
1.9768282554230798 12.527143550074427 42.838280477825265 168.79277380198084 0.6416753728103275
1.9881029139672362 12.486793089309026 39.913083610412514 176.37047522542827 0.6556531009783535
1.9986809838875554 12.44477461896669 37.22128510853656 184.35738246325917 0.6702340223168596
2.0085713126170703 12.401451201581963 34.75376071284586 192.7699426088972 0.6854025345868766
2.017729273997441 12.356430467072721 32.476589922568515 201.6394984670816 0.7012171402043825
2.026181805405364 12.310110295314935 30.38985360016724 211.0076514668361 0.7177556722295629
2.0338620408698524 12.262085249492863 28.463996204331366 220.8929316793642 0.734992437090406
2.0408164197881162 12.212662979314384 26.690740500597162 231.34084745006416 0.7530197082492893
2.0469694977822868 12.161698153462163 25.057849240900936 242.39324174360516 0.7718935199570357
2.052346032855639 12.109255094675548 23.550456932814903 254.0814636511535 0.7916130270065649
2.0569318513657207 12.055281221772024 22.160086545135293 266.46792479135934 0.8123056111140698
2.060684969548425 11.999833079625079 20.880859640392018 279.5867519748215 0.8339680926154431
2.0636382885965125 11.942952885294169 19.698327791774908 293.5069378940231 0.8567109653930165
2.06574707056018 11.8845632032611 18.60707345299077 308.2828001502484 0.8805963144476844
2.067034961868816 11.824775734938651 17.599222927497458 323.97597606335654 0.9056705862681314
2.06747447000315 11.763619464759424 16.669778851624752 340.6696158332323 0.9320727522285391
