M[M_sun], R[km], Lambda[1], P_c[MeV/fm^3], rho_c[fm^-3]
0.23841724892012095 16.20908015294055 2780876.1263280716 3.453507347168396 0.169602847481901
0.2484157514104672 15.866198230575026 2282017.3240474267 3.635571303950733 0.1719787553704579
0.2586971744091401 15.562873088582867 1881580.230753461 3.824813001217395 0.17437548372333847
0.26926354776981837 15.293475669940301 1557978.7160649907 4.020340933865129 0.17676739699384797
0.28011514225015716 15.053885535633603 1295457.5065729753 4.222479412277105 0.17914635393732195
0.291245933937558 14.839853132740233 1081189.6497819778 4.432597665641347 0.18154911855692013
0.3026683303777043 14.64841931498239 905532.3761650657 4.651043319142983 0.18397954723564805
0.3143717300406702 14.476969318525388 747748.6647024599 4.878183627627091 0.18643929121914218
0.3263562099194314 14.323189251108069 641529.0488566844 5.111340518564714 0.18886881159054103
0.3386284586269238 14.184881499832187 542447.4557652922 5.353693140454536 0.19131997139727974
0.35118019926254296 14.060615121872093 459978.7724096933 5.605744522235671 0.19380110682362978
0.36401687415081324 13.948836987149484 385440.6355913198 5.867907222090966 0.19631781665808226
0.3771424286646639 13.848155413626438 333364.33546976984 6.1370973525805645 0.19881056405428021
0.3905457752970187 13.757517355867824 284840.98103023384 6.416695761931149 0.2013330644095754
0.40423470346247226 13.675902306379486 243958.52499472923 6.707533867812731 0.20389016713716218
0.41820689554374374 13.602551759351348 209405.69577815954 7.009741293469239 0.20647389547565737
0.4324681891123797 13.536522848181542 180111.81693878735 7.319878535624669 0.2090337010291243
0.44700749224150643 13.477172550383589 155241.19695250172 7.642560695611914 0.21163796509126906
0.46183185135784005 13.423847562547925 132553.62572358764 7.978321717040492 0.21428671549512157
0.47694123950308376 13.376159503032287 115972.47183279177 8.32528118467929 0.21694312546162578
0.492331863911765 13.333577261569095 100512.21819155483 8.68329220929851 0.21959618663608577
0.5080003939309305 13.295485206672408 87264.85325919099 9.05590678600325 0.22229739073195798
0.5239499610389804 13.261646526318392 75884.45901371462 9.443730075033098 0.22504956713055424
0.5401876406421073 13.231645200484671 66094.16585988115 9.84142209318087 0.227776670567673
0.5566949437670704 13.20506560544389 57651.29475279276 10.25500434696459 0.23054948845469952
0.5734805951215587 13.18175651370947 50366.20921618482 10.685514743073233 0.23337291778437377
0.590544421025641 13.161394152147759 44061.62882021624 11.130056712143956 0.2362012848429595
0.6078757080797427 13.143691468946386 38603.40576608489 11.589284205294323 0.2390463646932431
0.6254798365219973 13.128418478528248 33862.18199126572 12.067360643078104 0.24195079023141386
0.6433551847970159 13.115427278197979 29743.541762056164 12.564063090196004 0.2449042065584038
0.6614859987192165 13.104468971134082 26160.184934890982 13.074172321171456 0.24783576185174347
0.6798894837208637 13.095245268648728 23033.07232639049 13.605244525376285 0.2508259535240254
0.6985368715572052 13.087736688999442 20305.631172287733 14.158186073783101 0.25387656274984516
0.717455242460419 13.081888194504257 17922.0752780721 14.727088018863379 0.25692440784544324
0.7366252049813241 13.077396366246274 15836.379111289485 15.317352224259945 0.2600196248354439
0.7560320675711204 13.07417981547347 14008.919179748238 15.931878679157355 0.2631807425792984
0.7756798710189106 13.071988601834244 12405.036881606684 16.567859722826487 0.26636798281867885
0.7955712136259384 13.070976563472241 10997.172687651399 17.22421146532715 0.2695678058045888
0.8156930591887397 13.070729969597334 9758.265340335172 17.907619618093474 0.2728395841430429
0.8360354849260068 13.071358381647112 8668.18698906803 18.618912087431177 0.2761831337548207
0.8565914150311276 13.072526202404777 7707.213987541307 19.349288847869726 0.2795151841138917
0.8773785712590726 13.074533060882644 6817.83174133983 20.109708662721875 0.2829180306723698
0.8983540087089291 13.076863275411132 6110.936897709124 20.90142309034656 0.28639351867265617
0.919541935895525 13.079759885825275 5448.8155988842855 21.71924924941218 0.289892870683663
0.9409158365963506 13.082914197698742 4863.024718765684 22.566045807189063 0.2934379008882588
0.9624648828865144 13.086349990318604 4344.210083888514 23.447667005504528 0.2970663559310449
0.9842027615077948 13.090037437245826 3883.69875108443 24.364808693291096 0.3007741929248702
1.0060949968566468 13.093831619797012 3475.345976995557 25.308557395662305 0.30447509680516494
1.0281451469969407 13.097664584135984 3112.510835678996 26.29116321058457 0.3082625736751366
1.0503546577135614 13.101644433496421 2790.1924362366995 27.314127041897134 0.31213847770181113
1.072669691151215 13.105329677047989 2503.009642099901 28.374052116160623 0.31607189104333355
1.095136060363252 13.109121397555388 2247.4726388053414 29.47041629684987 0.32005220525664735
1.1176886823469894 13.112509336002212 2019.5913827075346 30.611810910912876 0.3241215568575696
1.140364129128106 13.11577360675224 1816.2103173513347 31.800088956027103 0.3282809190823005
1.1631339460885664 13.11887013606853 1634.6927501207683 33.02996820708328 0.33249350082584983
1.1859714560495023 13.12154046947704 1472.5091296239364 34.305279212822526 0.33677778247357665
1.208876000251953 13.123884491338877 1327.4558830750275 35.633100535638874 0.3411677957593559
1.2318482480119055 13.12588263687648 1197.6121834624237 37.01545316371912 0.34566235654660893
1.2548363605401627 13.127265213924908 1081.3187666416948 38.44902070853711 0.3502205463699763
1.2778542592902722 13.128175726985564 977.1444578708952 39.93521632240608 0.35485530776129703
1.300864127185294 13.128510435219438 883.6575439989527 41.482888109711396 0.35960730946140923
1.3238937543928784 13.128283851103825 799.6789275757936 43.09449741762557 0.36447870338818483
1.346906488465601 13.127480145493413 724.270876364303 44.77263534396822 0.36947125795893754
1.3698615023563587 13.125874360038436 656.4625354713625 46.51000719878959 0.3745203579844186
1.3928096401959165 13.123814481028955 595.4677652917387 48.31866866315707 0.37969551303206717
1.415613615184704 13.12057204696968 540.5348712050727 50.20281886334312 0.38500611488083775
1.4383688346906212 13.116851567244339 491.1067456581141 52.16565420617735 0.3904549646577569
1.4610220072475053 13.112190597669493 446.4823705763456 54.21056251477797 0.3960435356140572
1.4835660202155185 13.106773861257615 406.2542936283019 56.336538914622125 0.4017439253815574
1.5059528473300126 13.10032431719879 369.88940978407453 58.547345696568236 0.40757572839861
1.528193889542521 13.093048035429034 337.06528030951785 60.85209491448198 0.41356838324293
1.550245513403842 13.084811717480196 307.39467425122376 63.25504493624604 0.41972495547899874
1.5721247211813443 13.075653377277487 280.5607527476029 65.76071832126381 0.42604621157657097
1.593764661563128 13.065265202372371 256.25014696775344 68.37398751643285 0.432537961584156
1.6152002724436654 13.05401128276704 234.23048376505844 71.09991758691092 0.43921500736292474
1.6363790269244816 13.041715595001598 214.2838329296162 73.94395681419499 0.44608443494169453
1.6572592792571488 13.028054381556258 196.177849996638 76.90965925917021 0.45313966061970357
1.6778710745999244 13.01344300740782 179.73934585716165 80.00319706844945 0.46038364184735553
1.6981532557480743 12.997536627500784 164.81146671949372 83.2342104560489 0.46784937672185334
1.7181357795129755 12.980656231153594 151.25145554332244 86.60978070473438 0.47554723166317037
1.7377152034712502 12.962322242020596 138.92979559027023 90.13744409435651 0.48348192001859075
1.7569929021544766 12.943054133867854 127.70384448727863 93.82526990764637 0.49166116802228405
1.7758423207604976 12.922367606302167 117.48237789815515 97.68193453226885 0.5001043019094141
1.7942733599889609 12.900243933541194 108.1603629102794 101.7166972851822 0.5088271838890707
1.8122842986828906 12.87702694863792 99.68138775178738 105.93945974328192 0.5178369389145623
1.8298352261981563 12.852326195172392 91.92316279818367 110.36085634332355 0.5271464456716308
1.8469231237951063 12.82635459457684 84.85413448804253 114.99232223891687 0.536779529390554
1.8635168758922391 12.799120807562257 78.40310327191264 119.84612929190338 0.5467558103951556
1.879595756343491 12.770427957035329 72.5010227983042 124.9323301347466 0.5570720523311383
1.8951534714811058 12.740345685314693 67.10058415065346 130.2637282620993 0.5677475742297438
1.910145770438181 12.708686653560157 62.15248395674061 135.85866665886715 0.578822996464279
1.924572948040937 12.67577520719084 57.63491958179883 141.7334998755414 0.5903166226382486
1.9384103067691527 12.64138475085974 53.49015340387881 147.90585688726165 0.6022471482742611
1.9516398823359755 12.605482779263488 49.68791790272713 154.394723531219 0.6146500267089344
1.9642462361366388 12.568120627726858 46.20092235944499 161.21955307722513 0.6275534502244717
1.9761919709804139 12.529279722071509 43.004405132562816 168.38882490356218 0.6409272747784942
1.9874880859926862 12.488981642645395 40.06655174426253 175.93940898397773 0.6548616363312573
1.9981052338504113 12.447226375330166 37.36824921746831 183.89710917232236 0.6693960434274504
2.0080211986087733 12.40395614896872 34.88919982280301 192.28314120174227 0.6845318878301612
2.017230655167642 12.359143669196534 32.607735713673854 201.1189982681089 0.7002936080047484
2.025726645296333 12.312874729247484 30.50704730363664 210.45077771912733 0.7167753003988333
2.0334479784324286 12.264967555939082 28.571458728009425 220.3021179684846 0.7339693587382956
2.0404249695186474 12.215713654851806 26.7928834477726 230.7078570505826 0.751931697564583
2.046621303444515 12.164789063821802 25.150986705983872 241.72016000258935 0.7707546221308778
2.052047789478412 12.112454615068607 23.637904623287163 253.35929951604228 0.7903996896406623
2.0566546468535174 12.058579567132027 22.243346648098946 265.69834975734966 0.8110306277524771
2.0604847373488426 12.003296470066033 20.956362756191538 278.75984299497946 0.8326086775468036
2.0634764598952438 11.946507673841 19.76913901768371 292.6238660255018 0.8552783717515094
2.065641522484847 11.88824533956503 18.672811476801733 307.3324999254877 0.879065100208109
2.066980872180643 11.828617903722902 17.66058356637461 322.9589939987906 0.9040540792176736
2.0674608330861943 11.76752196673789 16.72706082214356 339.57989329977727 0.9303627928687543
