M[M_sun], R[km], Lambda[1], P_c[MeV/fm^3], rho_c[fm^-3]
0.23841724892012095 16.20908015294055 2780876.1263280716 3.453507347168396 0.169602847481901
0.24840478560963924 15.866626565975164 2282774.566947913 3.635395017157863 0.17197651293578045
0.25867749919070715 15.563388612633794 1882230.7689632296 3.8244503904798655 0.17437104786896523
0.26923132020962215 15.294291299133139 1558964.8799667654 4.019756756895594 0.1767602506970154
0.28007339468514936 15.05477937480857 1296358.9671784807 4.221679467618507 0.1791369998256256
0.29119267578225105 14.840715035898814 1082105.6808324405 4.431570937490955 0.1815375657914189
0.30260265025804045 14.649464063133179 906426.24251127 4.649778211048109 0.1839658454525496
0.3142905181187909 14.47810494031807 761864.3634280307 4.876634271474503 0.1864228153724514
0.32626357326172417 14.324252308049974 642388.7596727735 5.109486131552132 0.1888494886745191
0.33852132843339977 14.18611327887432 543255.9522301191 5.351553312996395 0.1912986199592105
0.3510580058399192 14.061735638394167 460688.00244721427 5.603305862024645 0.19377766875233926
0.3638805311289978 13.950007883248277 391782.9515900065 5.865155358622606 0.1962923339240646
0.37698812930813763 13.849216270538975 333965.9790841693 6.133889205004511 0.1987808560501187
0.3903794223657841 13.75863630952583 285399.7250269694 6.413133084211816 0.20130131053804473
0.4040486014271709 13.676962191259355 244456.54755910023 6.703600715179341 0.20385654057124825
0.41800513986056875 13.603480067023531 207251.82041043192 7.005241403763844 0.20643542357998282
0.4322445094140846 13.53740473711668 180530.76378420682 7.31496159342333 0.2089931691194751
0.4467663150399908 13.477994990613075 155604.77728749198 7.637207469036861 0.21159540420831618
0.4615752660897869 13.42476612539187 134386.64305128242 7.972512223368443 0.21424223653336907
0.47665441200861236 13.376953873368562 116279.70989357423 8.318742880522102 0.21689306654135654
0.49203354359547546 13.334335938856617 100789.9695551811 8.676242474156282 0.219544320370306
0.507683249082829 13.29626435728114 87509.49980018244 9.048322769997801 0.22224353170042221
0.5236136040811896 13.262282473846382 76108.85748023557 9.43558682141187 0.22499372619353164
0.5398249750276198 13.232193380725937 66291.45869209613 9.832356934134012 0.22771450782548408
0.5563106222541866 13.205600181201472 57834.59292829428 10.245312943169562 0.23048544564766946
0.573075052501331 13.182260377980446 50527.84972846743 10.675169241185523 0.2333070952551649
0.5901105834419311 13.16184266019682 44207.9491334835 11.11860568476305 0.23612842848543983
0.6074239062137927 13.144087604451595 38731.59920030573 11.577101953998987 0.2389714497774461
0.6250029674839276 13.128817675754634 33981.8778667204 12.054412440025025 0.24187379960146219
0.6428491268673824 13.115688976230365 29849.300424444977 12.549796358379627 0.24481937589384042
0.6609566046829478 13.104660114921796 26255.57769015922 13.059049544753979 0.24774902213177563
0.6793376332700194 13.095491830278306 23120.21466460011 13.589226749000527 0.25073730640752867
0.6979593522685215 13.087975696629256 20384.847714500967 14.141230866442472 0.2537857266295175
0.7168521530846689 13.082112429280954 17994.15766692015 14.708504277393644 0.25682484698827585
0.7359899096793407 13.077559037430536 15900.238916871607 15.297719391831857 0.2599177597423689
0.7553737346027108 13.074313901932817 14066.98627269104 15.91114639566458 0.26307684204820525
0.7749952237718084 13.072104503034115 12457.603895110406 16.54520089720792 0.266254427357384
0.7948602855673347 13.070960618670192 11043.809398232774 17.200324828946663 0.2694520250235624
0.8149536512053023 13.07070926864813 9800.712801626152 17.882444457422164 0.27272124407574627
0.8352703828280954 13.071300135679197 8706.365759818624 18.591463144082446 0.2760541053904928
0.8557996307754865 13.072568162174484 7742.174763106025 19.320396315496843 0.27938340708147863
0.8765524022289779 13.07443366701468 6890.966971868178 20.079300715756425 0.28278385240759474
0.8975055053983501 13.076788886269926 6139.285128470874 20.869424558191596 0.2862566018883194
0.9186643772828508 13.079637699209497 5474.453873700582 21.684465721236286 0.2897440373308496
0.9400076201729176 13.082737291358304 4886.125336039013 22.529479124402336 0.29328585529324225
0.961525778977408 13.086148976983226 4365.104622779533 23.40922249060977 0.29691093175129746
0.9832260302880813 13.089865715923846 3903.2091160887817 24.323083532813197 0.30060550569185757
1.0051072003792865 13.093635334966041 3492.6000695709076 25.264726471460662 0.3043033275535846
1.0271249578984984 13.097516262801026 3128.3468157138177 26.245117227429706 0.30808711810419726
1.0492911523589867 13.101295805137964 2804.4058400748195 27.265746012625083 0.31195893426932136
1.0715916525613345 13.105127698032238 2516.001352039248 28.321651372758634 0.31587743033265897
1.0940232950782334 13.108855802111988 2259.318864865021 29.41538744206267 0.31985320726943633
1.1165583037036428 13.112307970515218 2030.3326283978445 30.554012304115528 0.3239185118971769
1.139217761504156 13.115690480192468 1826.010266219184 31.73937040099688 0.32807294592054875
1.1619567790408059 13.118748048852057 1643.6202796273878 32.964312437799826 0.33226861672051616
1.1847536027803387 13.121397650887442 1480.7404868828503 34.23633075688939 0.336547252894829
1.2076507852009313 13.123865429133152 1334.9481919057735 35.56067103200182 0.34093126882385066
1.2305690748204514 13.125654005210842 1199.0389526267013 36.93934786155347 0.34542037114795104
1.2535471589684775 13.127165834002396 1087.492717148152 38.36682988832686 0.34995921137978986
1.276542465465037 13.128130652822504 982.7426096212057 39.84887623886515 0.35458690967218714
1.2995428481776183 13.128510784835607 888.7753775290927 41.39215544768876 0.35933134916929127
1.3225428395227012 13.128352946864496 804.4130121530592 42.99911294992949 0.3641947497894702
1.3455371481658087 13.127545149989507 728.5473369123275 44.67087940479284 0.36917149403866345
1.368475282123155 13.126046798786238 660.3753945384747 46.40182329351409 0.37420595703601633
1.3913820474825553 13.123921528153074 599.0769374501848 48.20490965824113 0.3793715025137248
1.4142025485569212 13.120870372326086 543.8096600450017 50.08314700755813 0.384671882533491
1.4369241103810422 13.117086198301479 494.07744247356027 52.039710155559376 0.3901100176969646
1.459582643053302 13.112560342328615 449.19554480279385 54.07796890015871 0.3956880117784836
1.4820800881536322 13.10709501994762 408.7412797596836 56.19364488897661 0.4013607830090991
1.5044809567494022 13.100823901497597 372.1706021232085 58.3968910211171 0.4071795161559849
1.526702471784863 13.09365217288953 339.1901943177513 60.693607157590655 0.4131582668670873
1.5487372828771215 13.085332097388049 309.3060279181941 63.08802093553846 0.4193003346885959
1.5706132865455265 13.076218695546313 282.30561906799164 65.58462596627938 0.4256068287810866
1.5922478287955382 13.06598307702242 257.87109684284206 68.18825516334086 0.43208191101102406
1.6136772194053415 13.054871082336243 235.7330531661128 70.90392695346421 0.4387412288225825
1.634844648402331 13.042471821213532 215.6498929032196 73.73582458928715 0.4455869249903214
1.6557392762146061 13.029123097895427 197.44511982034865 76.6868372392574 0.45260958059121714
1.6763496813051135 13.014567575371403 180.91442326298184 79.7678836438511 0.45983296804407764
1.6966516522646766 12.998880185187645 165.890856158116 82.98558906486069 0.46727583327497413
1.716625393925953 12.981944036265403 152.2368140118257 86.34696887046024 0.4749493409751817
1.7362383359088096 12.963846905050017 139.83333672406928 89.85949796088862 0.4828587028103032
1.7555116799843211 12.944672147214948 128.54139823953065 93.53118038650464 0.4910112184913244
1.7743603405955815 12.923923816495234 118.24910759031123 97.37061280895779 0.49942501524244165
1.7928271844801704 12.902057437608178 108.87134760549904 101.38696689949876 0.5081166373043146
1.81085276685145 12.878972545137078 100.33296235052447 105.59005903470145 0.517093853283041
1.8284274863502283 12.854447636859435 92.53665362950724 109.99043071156181 0.5263686381322817
1.8455352131336966 12.828590024043248 85.41685905638785 114.59940703961276 0.5359639140015016
1.8621352893787018 12.801417503725759 78.92041619670134 119.42914064723716 0.5458998545047997
1.8782764536093248 12.772987045225584 72.98396307090711 124.49265457792947 0.5561852416957174
1.8938288573701645 12.742903969561077 67.54519253512628 129.79982136668352 0.5668268674068317
1.908870007322017 12.711565802717198 62.56732363213446 135.3654021920029 0.5778538745830638
1.9233530216312449 12.678857727780516 58.01787373232216 141.20874497670695 0.5892969421836225
1.9372166897254604 12.64452564467318 53.84253202080648 147.3473057915828 0.6011727310295656
1.9504810842159779 12.608771014605228 50.01765630624514 153.79987317578232 0.613516504396707
1.9631250219446987 12.571614984832069 46.508418723444386 160.58675739347484 0.6263604238370194
1.9751409045397177 12.533008175308556 43.28842892857352 167.72065773343073 0.6396898545333402
1.9864864680682177 12.49289453388973 40.33104035241423 175.22644754359553 0.653552594424133
1.9971524153413818 12.451246028973708 37.61212261569131 183.13590669104212 0.668010189365442
2.007119989075054 12.408068772492602 35.112590620891616 191.4766263177016 0.6830872279964696
2.0163876546763584 12.363461323767469 32.81417414456382 200.25831790115586 0.6987664884492846
2.0249210291498065 12.3173044033275 30.701129052225667 209.5300375277341 0.7151543445703776
2.0327383512186916 12.269766710708625 28.753729300559357 219.3253235972349 0.7322778997262817
2.0397655596728272 12.220510069757621 26.95953866633938 229.66143496482823 0.7501330630024381
2.0460434395063487 12.169799283378383 25.30422262860179 240.60109722099688 0.7688498905462731
2.0515422514464623 12.117797910849418 23.784478960415296 252.16566906254903 0.7883942225177628
2.056224842263869 12.06408948698372 22.379930121677393 264.4183299171362 0.8088971176680249
2.0601306889236866 12.00894744683698 21.082200415054732 277.39334026108764 0.8303621855469893
2.0631987360382054 11.952396884804047 19.88621633614717 291.1627091595878 0.8529048478770411
2.065458937504264 11.894357182616458 18.78205486672529 305.7624014433927 0.8765352079796557
2.066887492502913 11.83495962859435 17.761819906560657 321.2788773256021 0.9013835105395916
2.0674610912585827 11.774073000548132 16.821340716907354 337.77242839018925 0.9275134442420426
