M[M_sun], R[km], Lambda[1], P_c[MeV/fm^3], rho_c[fm^-3]
0.23841724892012095 16.20908015294055 2780876.1263280716 3.453507347168396 0.169602847481901
0.24843287705887349 15.865636723755756 2281248.199466479 3.63588809189302 0.17198278503289383
0.25873183002101224 15.561917343736015 1880348.3005525041 3.8254646750161387 0.1743834557158111
0.2693176581168351 15.292297939035866 1556651.8274542235 4.021390904879357 0.17678024139704177
0.28019277695006123 15.05227563714712 1293783.839659913 4.223917324055719 0.17916316808470342
0.29134457787632434 14.838020962427606 1079517.4808265343 4.434443386407006 0.1815698866435634
0.3027887412833203 14.646473512972378 903831.2591509752 4.653317763400636 0.18400418065789406
0.31451427303719304 14.47506072460791 759417.7489402759 4.880908561982519 0.1864676853339402
0.32652560245304624 14.321059571954109 640030.4394207805 5.1146750008804664 0.18890355726192828
0.3388219654596228 14.182897422413184 541040.2688464539 5.357541200347896 0.19135836776993456
0.3513995927998182 14.058555087110532 458672.58036528976 5.610130318373767 0.1938432589045493
0.3642625777751898 13.946743836454727 389910.53212017595 5.8728566757820975 0.19636364945952536
0.3774173935364988 13.846104898615618 332269.18835717643 6.142868072729683 0.19886400192586837
0.39085212224537297 13.755640904878224 283853.30325575813 6.423104677645757 0.20139018658067392
0.4045688974307326 13.674062304266837 243057.67227908733 6.7146097463825125 0.2039506625003743
0.4185750041277772 13.600726409037906 208585.45004989454 7.017837616553978 0.2065431151493507
0.43286365112674885 13.534687277598055 179368.4163395553 7.328725856459361 0.20910663229291088
0.44743777137601887 13.475471872887168 154560.61507625767 7.652193713630617 0.21171455250012033
0.46229790162673956 13.42231420045593 133442.7929470183 7.988776487182964 0.21436675987550113
0.4774424649537308 13.374769805800497 115432.37830946854 8.337048806809857 0.21703322137087544
0.49286790946689174 13.332123109297479 100017.52968339437 8.695981143115706 0.21968954157787396
0.5085770322535049 13.294205814356957 86821.3437560461 9.069558266318934 0.22239433877482923
0.524569553443564 13.260449901093576 75484.52138072488 9.458389136880522 0.22515008908252912
0.54083370280001 13.230438847263631 65732.25675258963 9.857742539713819 0.227888585174465
0.5573836356634446 13.204002377764574 57327.14095060787 10.272453343592673 0.2306647950446999
0.5742136444354528 13.180871114131905 50077.10159356168 10.704142562592779 0.23349143597785843
0.5913157059028389 13.16050243147445 43800.16832555596 11.150677460500463 0.2363324829062084
0.6086895886324972 13.142876035256773 38363.97048544565 11.611223048267247 0.23918127789886956
0.6263391910838355 13.127687241905372 33648.43968364348 12.090680268033816 0.24208944982828742
0.6442526257284875 13.114803030570958 29552.899904762056 12.589760373552956 0.24505700382498885
0.6624368154954766 13.103942375635137 25986.486452494406 13.101413114089485 0.24799200688798434
0.6808801057168201 13.094821751841224 22877.94427777288 13.634099162021444 0.250985643625582
0.6995798544482928 13.087442852098906 20166.518358586887 14.188731164226775 0.2540402055443697
0.7185482116024824 13.081649955763073 17795.330453205614 14.760570930993985 0.2571037897765583
0.737756502030487 13.077205323602158 15722.264789872677 15.352727328901143 0.26020316882177447
0.7572117219512156 13.074013765564372 13906.29663070005 15.96923692192265 0.2633679646605214
0.776908608201562 13.071906992896803 12312.658271141829 16.608694452719373 0.26657262743124144
0.796847207486818 13.07088330464335 10913.189547576987 17.2672613085739 0.269776472457975
0.8170209619877722 13.070762857109127 9682.334295417679 17.9529942410121 0.2730528751722385
0.8374181730483071 13.07140995971255 8599.579308810054 18.666933683354063 0.27640300490193725
0.8580258950639154 13.072718571209839 7645.2708358434 19.401372906029565 0.27975273624437835
0.8788461864438984 13.074649459704235 6803.722101817927 20.164527576843827 0.2831599248976556
0.8998891277503526 13.077074245975787 6059.624556798798 20.959112682239407 0.28664036353958366
0.9211206865418133 13.07993841329497 5402.731723545243 21.781967890184376 0.29016123407517463
0.9425537613954527 13.083175995419724 4821.080212676032 22.631983343227173 0.29371207155775353
0.9641550031061312 13.086616212695683 4306.041061988463 23.516994550836657 0.2973466345844926
0.9859232255546102 13.090317541718926 3849.8195300591715 24.438319420230062 0.30106471638404697
1.0078743656902283 13.094110906980404 3444.319850812448 25.38761315349978 0.3047849088523485
1.0299724109916208 13.097941338742034 3084.3773691501283 26.374218853224928 0.3085790524253064
1.0522279462478885 13.101881123750141 2764.516438163802 27.401399505868824 0.312462348400287
1.0746052507494879 13.105629588659758 2479.619081539241 28.46858832822909 0.316422717726121
1.0971169877292437 13.10937515817528 2226.2351435437436 29.569699623277536 0.3204112383893397
1.1197329376657217 13.112874776455968 2000.3234367040516 30.716097519811818 0.3244879129264557
1.1424609478738619 13.116160901257548 1798.7153540016625 31.909650510533577 0.32865618925936263
1.1652647451094928 13.119140846863646 1618.7811789528325 33.14845502407553 0.33289934180713654
1.188144835059386 13.121791575771036 1458.0288527712933 34.42971570698358 0.3371938366431957
1.2110934239065612 13.124047971050018 1314.2854077173745 35.763827521747395 0.34159469987797353
1.2340985393866066 13.125960358192216 1185.590659559279 37.15282304948674 0.34609913960409827
1.257135150286389 13.127346215866085 1070.4151368395528 38.597396245180825 0.35069232313669424
1.2801997043078135 13.12825437525328 967.1422267773582 40.091092202751184 0.35533986587969535
1.3032554786880641 13.128519434257116 874.5014751853413 41.646704786674974 0.36010555228842317
1.3263300088069385 13.128299194786706 791.3782626098581 43.26672419927299 0.3649914117528176
1.349360892347857 13.12730838055323 716.6560524441003 44.95376100266348 0.3699976401294531
1.3723629031830036 13.125665147489409 649.5039971237203 46.70538697757228 0.3750881650680274
1.3952988374805058 13.123333422430877 589.1303764118469 48.52413119495549 0.3802807152450887
1.4181696240145065 13.120222929548957 534.7548507859453 50.41897593273606 0.38560982144346184
1.4409635846311737 13.11637562247775 485.73751804233484 52.39315678719678 0.39107806931025946
1.4636601594965641 13.1117722923285 441.61624624175425 54.450094312990444 0.39668579326640996
1.4861908915213966 13.106041533383053 401.78225777350826 56.59349411651906 0.4024303920109794
1.5086054491566958 13.099485223498386 365.80822702611107 58.81920679807693 0.4082916562778089
1.5308700118608463 13.09213066599399 333.3207540974062 61.13849351230271 0.41430949257079563
1.5529345731624982 13.083672327456345 303.9500359980457 63.556893176439395 0.4204923364409541
1.5748279588429848 13.074336140494315 277.38483121234503 66.07898095119755 0.4268403353421988
1.5964690714756637 13.063918234512402 253.3586027822233 68.70970110047178 0.43336227877962763
1.6179131236349222 13.05250284011757 231.57570818472342 71.45420342197576 0.4400714412794292
1.639111401770097 13.040077477109469 211.8391769467201 74.318011267183 0.44697428772721787
1.6599823338251125 13.026238442876831 193.9284628151479 77.30703261964398 0.45407415426150904
1.680582126102654 13.011360791432272 177.6712147314197 80.42756024101529 0.46137472934408147
1.7008793627250607 12.99542399491528 162.91374690686868 83.68383305333674 0.46888660884822353
1.7208250010293822 12.978184616428537 149.49779080739 87.08511170334323 0.4766285984081859
1.7403975232962956 12.959717797037356 137.30891779211626 90.64019688688967 0.484609203884396
1.759646298281888 12.940157723283669 126.20986174220862 94.35727658950861 0.4928369239349781
1.7784763683844935 12.919237902555748 116.10605341463314 98.24517227196193 0.5013332552983395
1.796890536068226 12.89706974936101 106.90078682243254 102.31330276702239 0.5101128281789945
1.8148623231464631 12.873467675795647 98.50293446865888 106.57172477607935 0.5191816043649956
1.8323870079821452 12.848646862384431 90.84454989957572 111.03124197838974 0.528554099344909
1.8494180194874308 12.822392995501714 83.86115445094053 115.70117466714751 0.5382474292396975
1.86596089986539 12.794807308055166 77.47673175139991 120.59318902819724 0.5482763679271916
1.8819897537320847 12.765818449823369 71.64447363560011 125.72256609652524 0.5586567454824776
1.8974891572841908 12.735448778480789 66.30555941424153 131.10363321420544 0.5694145169452829
1.9124256557868933 12.703716460724815 61.42975193968055 136.7518368069369 0.5805778172395221
1.92677539197686 12.670479208340193 56.96040303982197 142.68381427357494 0.5921632314447158
1.9405705851089747 12.635908367307978 52.86258920985065 148.917509872521 0.6041931428688815
1.953710188173129 12.599587169670516 49.10823254833554 155.45557983487333 0.6166526093964603
1.9589401883763453 12.572956776071699 47.22545752280441 164.4884549435725 4.1457365279228755
