M[M_sun], R[km], Lambda[1], P_c[MeV/fm^3], rho_c[fm^-3]
0.23841724892012095 16.20908015294055 2780876.1263280716 3.453507347168396 0.169602847481901
0.24843499377747302 15.865657776117386 2281377.964482369 3.6359420579163153 0.17198347150112026
0.2587399448713786 15.561668067484835 1880073.8643520565 3.8255756979401307 0.1743848138706365
0.26932654048437427 15.292109051484527 1556376.1176691535 4.021569797428243 0.17678242980795517
0.28020598193970236 15.052005523017113 1293417.199902586 4.224162330113807 0.1791660330504345
0.2913634132051982 14.837798148143749 1079261.2892215191 4.434757899931771 0.18157342555597872
0.3028093463935544 14.646202593814069 903590.659359479 4.653705356955224 0.18400837849904045
0.3145389074117442 14.474685425560917 759105.8181244923 4.881372953673267 0.1864725243462827
0.32655466608900824 14.32074100525423 639799.8335851831 5.115243317170699 0.1889094791799937
0.3388551465694737 14.182558908507392 540818.0994282117 5.358197088590462 0.19136491229628794
0.35143645691599773 14.058233559902172 458487.73840783763 5.610877905975738 0.19385044400210066
0.3643047301195182 13.946443932962728 389689.59418381227 5.873700391042912 0.1963714624094864
0.3774640202871517 13.845854086506922 332085.0675022789 6.143851863423924 0.19887311199868946
0.3909044728963464 13.755210717327286 283668.60194403 6.42419732892702 0.20139992529720863
0.40462649365573367 13.673718508418457 242894.03061754082 6.71581617356422 0.20396097687332837
0.41863741746669614 13.600369158343515 208434.2909498105 7.019218138944589 0.2065549179527226
0.4329351064012008 13.53454594215207 179248.76406371756 7.330234513401204 0.2091190686292261
0.4475110076841075 13.475235626879304 154452.98841243234 7.653836434241834 0.21172761296723827
0.46237692083887155 13.422069613974074 131859.2538301854 7.990559432299502 0.21438041055697565
0.4775270962184365 13.374483246983976 115334.02927789249 8.339055808940039 0.2170485874898567
0.4929590388910329 13.331915134932537 99935.77138586748 8.698145385316367 0.219705464326591
0.5086741955981066 13.293935808782729 85861.76448780466 9.071886795386693 0.2224108751745945
0.5246711827569276 13.260207551809035 75413.61321907537 9.460889648814417 0.22516723590564425
0.5409418256904118 13.230211936504588 65670.02461734317 9.860526680421753 0.22790767693227645
0.5575011161734867 13.203842876781545 57275.817311858365 10.275430146132749 0.23068446637350556
0.5743339947191998 13.18060848138195 50021.51804823225 10.707320619430828 0.23351165614129954
0.5914483562492164 13.16035630734779 43754.31546177485 11.154195828741399 0.23635486827705074
0.6088300105726597 13.14284056516073 38324.69617901185 11.61496648321111 0.2392042982016701
0.6264821706749374 13.12757396156043 33609.62591135187 12.094659484871784 0.24211311044048306
0.6444022904266388 13.114657927282218 29519.068365543688 12.594040984656576 0.24508187218708183
0.6626023487652998 13.103882179411105 25956.06038137161 13.106062044613008 0.24801867176225267
0.6810477294263758 13.094749699190999 22852.039955593962 13.639023726756063 0.2510128976247318
0.6997587588528666 13.087416698056078 19991.54969946756 14.19394446045862 0.25406813534754497
0.7187328029034935 13.08163542479825 17774.920832983284 14.766286153344739 0.25713440860738257
0.737947720579911 13.07713383640543 15702.820477514395 15.358765789294953 0.26023449941720933
0.7574131079254081 13.07398171825498 13888.143396275487 15.975614170949667 0.263399924456993
0.7771176942267414 13.071909326903924 12297.112378761669 16.615665796020977 0.26660756455101037
0.7970682488356928 13.070885901669477 10898.525421679573 17.274611127216055 0.26981209772263076
0.8172438477302447 13.070778622835114 9669.86665640776 17.960741289607217 0.27308929147416666
0.8376435447322996 13.071350212030211 8587.644256079506 18.6750982801287 0.27644024311698623
0.8582719942299768 13.072743663758507 7634.666201931406 19.41026669964426 0.2797933002805907
0.8791003240496774 13.074589083919431 6793.947224683537 20.17388876133197 0.2832012321089674
0.9001501365499333 13.077090424644533 6051.021153593893 20.968964490581133 0.2866825179081503
0.9213865878526495 13.079931057103222 5394.574960457378 21.792679553992976 0.2902070676326787
0.94282895480308 13.083232272215898 4813.973470787846 22.643245230346214 0.2937588988933916
0.9644477395276074 13.086706430129585 4299.530562439667 23.528835937095113 0.2973945071549056
0.9862156898457856 13.090321190353347 3843.8732737989185 24.45077038950193 0.3011135105564774
1.0081834104294185 13.094171275719054 3439.085855206 25.401118056750725 0.304837833292486
1.0302813315858883 13.097992133057208 3079.674600299579 26.3884076495027 0.30863311801759674
1.0525367906556855 13.101817863998804 2760.175726030137 27.41630932097481 0.3125176791657171
1.074936181683175 13.10571163533802 2475.8641643508386 28.48474073693874 0.31648265979321516
1.097452961972086 13.109421908594019 2222.7573052396333 29.586663858865617 0.3204725852727095
1.12007459039501 13.11289551505017 1997.0078011201065 30.733917432618984 0.32455051380371935
1.142813245348483 13.116229839340974 1795.8264954630693 31.928372606081055 0.3287203161708757
1.165619983881193 13.119179070983465 1616.131938021241 33.168704403189956 0.3329686999694947
1.1885178105549605 13.121838647226788 1455.5952952641105 34.45098284578336 0.33726494345019126
1.2114699280112908 13.12413332870054 1312.0303148547632 35.78617077940394 0.34166766437444707
1.2344864409325456 13.125954646543894 1183.5463932010723 37.17630277433373 0.3461737960395344
1.2575313909922927 13.12739115904671 1068.5205094196326 38.62275983194031 0.35077296952372294
1.2805863246625715 13.128233409527274 965.459658177964 40.117739179662586 0.3554227010750098
1.303664284058592 13.128501515206448 872.9482661746497 41.674710600872196 0.3601907310156266
1.326733708375704 13.12821388272708 789.9187664851395 43.29616924716911 0.36507906782006183
1.3497866571759654 13.12732737384744 715.3645690146167 44.98472902139546 0.3700876384932085
1.372791459303889 13.125704592965361 648.348994290757 46.73879585145402 0.3751852569746906
1.3957316134812636 13.12325743542232 588.0345597035764 48.559265983465785 0.3803807868046587
1.4186205250951391 13.120245157913185 533.7777521603069 50.4559414803532 0.38571306277510153
1.4414052764391216 13.116328131731382 484.88765397935947 52.43206466446562 0.3911846337247667
1.4640947822252812 13.111558912147316 440.7903063340643 54.49106171033737 0.3967956393270975
1.4866410030855608 13.105901820917625 401.0204570093472 56.636646647818374 0.40254403129237615
1.5090668953181041 13.099398300516304 365.10363335244443 58.86571163170549 0.4084141236213436
1.5310387649680577 13.092199552526111 333.1081084669737 61.35949888260456 0.6092213206779551
1.5380128320243154 13.07789458565051 320.7732302959398 64.9222826729224 1.8917487442307743
1.5284600817194465 13.053484340516167 327.0645263106096 68.77676669291884 3.279282131108152
1.5101109147117964 13.024563490927607 344.1360089588669 77.00568390908545 5.275465186820626
1.4855917492701534 12.988879732722218 369.5585565667106 88.94963392796957 6.328047914607472
1.4515697209112637 12.932350541489752 406.64251042392704 102.62525735512236 6.394929100936638
1.412937385681668 12.857422857501405 451.06990263955373 116.80738152349096 6.448604567924336
1.3723709278861365 12.76693171433556 500.33779343200666 131.49988263373643 6.5037584714831835
1.3305712813122723 12.66178503383458 554.17086650591 146.7233984521424 6.560742765090236
1.288521688531458 12.54289405703699 610.8988361512138 162.5028769657727 6.619623886043443
1.2467596787939397 12.410671918728513 669.1270825289369 178.86358924900355 6.680499394296269
1.2055990051695136 12.265396858171849 727.4114442298061 195.8332567209485 6.743456263355685
1.1656129920544624 12.107851095252194 783.1295837224225 213.44258693097507 6.808576189826174
1.1271104799311273 11.938314530482186 833.7745931318086 231.72409527276446 6.8759711160845916
1.0904137007708228 11.757496891942667 876.4261736810665 250.71216279443146 6.9457544921188
1.0558619648807737 11.566376882495245 908.2490929848827 270.44480224585055 7.018026749843436
1.0236275778214747 11.365701961832256 926.689206067989 290.96154365520835 7.092930689864307
0.9937918646050379 11.156203565231097 930.4138155872416 312.30545296200654 7.170590259233026
0.9667213198174824 10.940327171190155 917.9390117481769 334.5231280208932 7.251156424047026
0.942395905461048 10.719089386678808 889.8737365174105 357.66316667778216 7.334770985634515
0.9208635186079663 10.494334038882986 847.5456907952562 381.7794396127028 7.421617686822811
0.9020866889818512 10.268144729763673 793.6236958020849 406.92792807930164 7.511840866139059
0.8860075486299962 10.041993134527992 731.012001600344 433.03960113879117 7.605162261688966
0.8725801625975209 9.818468058438492 663.1796920095529 460.2890624535574 7.702168797859338
0.8614491316621504 9.597416781505391 593.4024530993568 488.7569983517258 7.803143491709006
0.8526532658745946 9.38204371182613 524.6311035496425 518.5194408501874 7.908308829527839
0.8459336384472589 9.172915600724794 459.0764934943297 549.5865204918722 8.017641392715689
0.8410956282833816 8.97109887694402 398.4054753625311 581.9892184608667 8.131178504342568
0.8379728084370859 8.777791420573456 343.4245410689683 615.9359692910394 8.249660752892954
0.8362570237902406 8.591660946279307 294.4124442596508 651.4935541814193 8.37325429652752
0.8358995856491974 8.415333900757023 251.72302228447643 688.6096537040745 8.501665231787133
0.836600776320115 8.246496493919041 214.66076879684616 727.582646008372 8.635938409930878
0.8382894972425776 8.087045587069767 182.9838466475473 768.3958250110134 8.775913944082529
0.8407569492870888 7.935797723831845 156.03285992872839 811.2079380012286 8.922061147522728
0.843874454797858 7.7926018166666715 133.23256853241645 856.1692874726468 9.074851744850974
0.84750763542479 7.657467291426273 114.03723098753623 903.3579849165827 9.23442726404895
0.8515460594620802 7.528870968151367 97.78516734331608 952.9802828266523 9.401421288853534
0.8558785555529561 7.40758975135681 84.17025106336514 1005.1764659313826 9.576218977091868
0.8604141882413832 7.292564651089576 72.69981047479982 1060.080815365222 9.75912869123502
0.8650587208446346 7.183289650576361 63.00657099163908 1117.9809162387894 9.95105516446888
0.8697418245836263 7.079689152551924 54.70915590218808 1178.9606431643783 10.152081620849678
0.8744117721135136 6.981215586677354 47.94347902820859 1243.3009035696036 10.363045498453042
0.8789812068692066 6.887427587436789 42.086378247378924 1311.2702595606147 10.58470666377087
0.8834042270718859 6.797971460088876 37.103732981961336 1383.1174079248954 10.817701276102943
0.8876202762598343 6.712668766336916 32.85044650515495 1459.0895678830748 11.062619753575495
0.8916341903340965 6.63062540618598 29.210379697332463 1539.5055172450332 11.320313942746406
0.8953531518786005 6.552134151402027 26.089818683993215 1624.7353365168158 11.5917941888726
0.8987502831331718 6.47691921502315 23.358782291905623 1715.1488844021812 11.878010415159068
0.9018355644858751 6.404234164589416 21.074362119375284 1811.1547881511847 12.180009552922444
0.9045488366186399 6.33423451031784 19.052814054894586 1913.2038670600678 12.498938595367319
0.9068624892046462 6.266624745533945 17.30574712846583 2021.7939873094308 12.836051248541079
0.9087796380778793 6.201423614626932 15.776919046033317 2137.4281656524404 13.192530965960419
0.9102675370039869 6.1378147424743235 14.435948653910284 2260.734601705675 13.569999082825333
0.9113124365201073 6.076324150468961 13.26498338571697 2392.397204704491 13.970174663279174
0.9119095831067451 6.016508908300337 12.233343439947825 2533.159516635029 14.39489779218339
