M[M_sun], R[km], Lambda[1], P_c[MeV/fm^3], rho_c[fm^-3]
0.23841724892012095 16.20908015294055 2780876.1263280716 3.453507347168396 0.169602847481901
0.24841268183764556 15.866330463024095 2282328.568551676 3.6355214059732552 0.17197812064931284
0.25869120868585677 15.563042858005849 1881794.542977271 3.824710361778955 0.17437422812455236
0.26925338035130325 15.293760962805282 1558413.2252222393 4.02017557437228 0.1767653741341982
0.28010349804154766 15.054126087461041 1295720.2035123548 4.222252971442633 0.17914370606307778
0.29123156876246314 14.840011800329929 1081415.690350918 4.432307022504859 0.1815458482345869
0.30264989167179207 14.648714043002421 905791.2995450037 4.650685188276376 0.1839756684908396
0.3143475955765576 14.477337232379138 761238.4704582583 4.877754589736194 0.186434820597271
0.3263317790522603 14.32347325862615 641782.1086603997 5.110815547828862 0.18886334133790553
0.3385982732315388 14.185262660884442 542672.1602623904 5.35308734996766 0.1913139267519443
0.35114449557683336 14.060970930438938 460195.6216229893 5.6050541175686215 0.1937944713137984
0.3639774421787545 13.949173666649692 391296.94835118763 5.8671281317419055 0.1963106021460365
0.3770988737543694 13.848428659505748 333533.7871503214 6.136189057661312 0.19880215308545746
0.3904988531979609 13.757799185333035 285000.4184615694 6.415687072727836 0.20132407404056096
0.40418330341175013 13.676232800885215 240958.24959053055 6.706420266542432 0.20388064638116618
0.4181513826718741 13.602789132303464 209526.4232765201 7.008467195945961 0.20646300255378508
0.4324066574577238 13.536848809281903 180234.83607601843 7.318486328752093 0.20902222462755976
0.446940339304007 13.477468325043523 155345.92890821223 7.641044930176725 0.21162591398258412
0.46175912879675135 13.424193200309514 134154.63964015036 7.97667673105167 0.21427412106383192
0.4768624636884938 13.376411355542894 116059.05320683346 8.323429780758913 0.21692895064213005
0.49224684823100073 13.333722099662094 100582.68434591536 8.681295953361923 0.219581499794824
0.5079102592296585 13.295626175999228 87331.49091599991 9.053759203400933 0.2222821393507609
0.5238595812997772 13.261855968316294 75946.79701192291 9.441424094194293 0.2250337542703899
0.5400856378088604 13.231740495057943 66145.4523722374 9.838854976812664 0.22775906701630222
0.5565851199011029 13.205234453345302 57703.95247570924 10.252259843568915 0.230531352206837
0.5733622355674917 13.181850792164076 50410.33866388666 10.682584959888105 0.2333542772446134
0.5904219801129735 13.161481815659249 44103.06591320559 11.126813756184937 0.236180651763419
0.6077497253759457 13.14385848883963 38637.68853074437 11.58583411183695 0.23902514829780153
0.62534383994195 13.128517741575527 33896.43954914648 12.063693571074724 0.2419289856472209
0.6432119892480347 13.115502337673457 29772.572706432995 12.560022475817556 0.24488018087351818
0.6613341280491877 13.104415368906366 26185.580652499022 13.069889194022789 0.2478111951161649
0.6797321453850655 13.0953089442188 23057.40711934093 13.600707845802594 0.2508008461961889
0.6983732149114139 13.087851093036686 20328.946076587705 14.153383817133005 0.2538508350572167
0.717284632478341 13.08198289306068 17942.911324967423 14.721824348687324 0.25689620816803016
0.7364462518924968 13.077461824019599 15854.489693626863 15.31179132794555 0.2599907720846897
0.7558454301626679 13.074222767913152 14025.239261755472 15.926006284223668 0.26315131287597554
0.7754870292540205 13.07207142994426 12420.153064358648 16.561441436623483 0.2663358173630293
0.7953657595289133 13.07098387433426 11011.071345043914 17.217445295457974 0.2695350095406221
0.8154799180457019 13.07075017166814 9770.678588728184 17.900488356890758 0.272806062453086
0.8358212478387637 13.071290246390571 8678.515789329482 18.61113649272877 0.27614658326712493
0.8563644658568285 13.072593611750543 7717.298496414142 19.341104204198245 0.2794778544662005
0.8771468732772899 13.07446719032246 6868.174716162899 20.101094611678587 0.2828800202659788
0.8981118213938649 13.07683235850422 6118.789291492108 20.89235832510756 0.28635473194014976
0.9192936951291965 13.079730178743507 5456.17855288074 21.709395208400394 0.2898507067618455
0.9406597711844121 13.082818812568776 4869.134190551682 22.555686457898524 0.2933948263376891
0.9622003515648273 13.086262831301568 4349.967316406893 23.436775510098716 0.2970223235965414
0.983930159129505 13.089970318197777 3889.078822333913 24.35298737966653 0.3007264015044643
1.0058177929847694 13.09375294421555 3480.2696765700252 25.296139311579736 0.30442643150668497
1.027856310110022 13.09761132260859 3117.0715302998174 26.278117372305104 0.30821286325857306
1.050063645731199 13.101600140790959 2794.1902277094614 27.30041943397271 0.31208760836283667
1.0723793911393746 13.105378427321128 2506.848250954009 28.359205105611675 0.3160167933474747
1.0948166429232917 13.108989834345792 2250.8138450555384 29.454824417558385 0.319995821154019
1.1173761641616355 13.11248419903539 2022.5585548235356 30.595434005545673 0.3240640252268627
1.1400475212427668 13.115823625990785 1818.9745986694013 31.782884440740904 0.3282219901858751
1.16280180160225 13.118838868134281 1637.2300993522779 33.01136407748553 0.33242977797124373
1.1856328077798426 13.121499547043456 1474.7556288606527 34.28574177186095 0.3367124589217476
1.2085261098551334 13.123860271674026 1329.6005218195783 35.61257637402981 0.3411007717317782
1.2314858265915336 13.125770425379454 1199.4934154084033 36.99388705911611 0.3455937846827393
1.254470882327956 13.12722682528809 1083.0907262528558 38.42572928348969 0.3501464886550073
1.277494443868183 13.128280646610627 978.7266546284147 39.910748673743754 0.35477924725872795
1.3004938672278585 13.1284605322605 885.0294497289507 41.45717523781386 0.35952910463988347
1.3235285343826833 13.12835503917199 800.9675385917561 43.067465808476065 0.3643982319772471
1.3465102001323104 13.127438633420272 725.4647068818537 44.744208440322325 0.3693886445106279
1.3694860319595268 13.126035999569075 657.5556161639181 46.47934657985882 0.3744312529771082
1.3923794727479157 13.123674058969423 596.4817824315827 48.28642742653518 0.37960368294092334
1.415208869685506 13.12070052962765 541.4935422140373 50.168901213812816 0.38491138604468295
1.4379575174865757 13.116912382040914 491.93440908783816 52.129958221145394 0.39035719726430845
1.4606099313792436 13.112279177129796 447.2321035431002 54.172981155959164 0.39594276855320215
1.483154239663487 13.106858078739688 406.9287117691654 56.296036465200395 0.4016353259877639
1.5055277081832965 13.100466721475696 370.54495379175773 58.504699398679094 0.40746342224876353
1.527773449632943 13.093269543168825 337.6733843909618 60.80717075048346 0.41345213366196415
1.5498282334294418 13.084977761380319 307.9417706706281 63.207700166140285 0.4196045920963796
1.5716832643909007 13.07573224562006 281.0567599474183 65.71080198795862 0.425921661149212
1.5933372333194133 13.065501507675762 256.7173230039158 68.3213374417893 0.43240868364029267
1.6147484082424877 13.054137935817606 234.65549383493794 71.04435835472921 0.4390807010878611
1.63593601498885 13.041837685434158 214.65506050368023 73.88530128397616 0.4459448970040102
1.6568355698347197 13.028417324938621 196.53263422360277 76.8464897618596 0.4529893842289457
1.6774191774037632 13.013658168094208 180.06870237919566 79.9364847356145 0.46022752353786905
1.6977390244585069 12.998016892427978 165.12498915250873 83.16372357814359 0.4676867708948955
1.7176916762615704 12.980994402101013 151.53782110807074 86.53526885804817 0.4753777189796888
1.737316680323203 12.962862974558663 139.18226443680075 90.05863942663511 0.48330522238151774
1.756564630021425 12.943394377973679 127.92843243850793 93.74188604325558 0.49147688636770487
1.7754085657477545 12.922696303385552 117.69693706920059 97.59366245672433 0.4999116971552529
1.793857159770847 12.90073557512798 108.36149349594601 101.62320309502665 0.5086257102597238
1.8118823490664224 12.877561960417877 99.8594167277405 105.84038533814585 0.5176262330828334
1.8294350856980328 12.852903976862441 92.09839964058393 110.25581722685882 0.5269258879949812
1.8465389901871843 12.82704422175995 85.01409727334219 114.8809026605608 0.5365482440574595
1.8631270393225512 12.799739960407644 78.54526776430069 119.72787963495905 0.546513078388688
1.8792084754385618 12.771014068397735 72.62982410409992 124.80853820247303 0.5568238072034128
1.8947758464423594 12.741022883473882 67.22343966400716 130.13216769707893 0.5674864685832501
1.9097898469544419 12.709499466463106 62.273381036012 135.71877597356283 0.5785481517649061
1.924219794198655 12.676581602502745 57.73945905651151 141.58467350684188 0.5900274298367465
1.9380641657276658 12.642205796570844 53.58668044061028 147.74744014824847 0.6019424211372795
1.9513057590799052 12.606406403572853 49.78254319680987 154.22600567844657 0.6143285249247618
1.9639272290616434 12.569145613164398 46.289852406634594 161.04083231242777 0.6272177599531104
1.975894480892519 12.530355976293578 43.08613579876911 168.1993014817352 0.6405762845928294
1.987210237197705 12.490103679291346 40.140228984406335 175.7371721820686 0.654490316882733
1.997835399377082 12.448367077008209 37.43877642523453 183.68118008493428 0.6690029204276945
2.0077709701808626 12.405079426122033 34.95188992371103 192.0547738361875 0.6841234516522093
2.0169905758018722 12.360335860184907 32.66518317219541 200.87483451417094 0.6998603841766109
2.025505308926163 12.314172185399343 30.560982675656348 210.18956485609047 0.7163154372183562
2.03323531842129 12.266285882558998 28.623675007078642 220.0249946845088 0.7334894801784714
2.0402343334552504 12.217017833086144 26.839274460230847 230.41096682799716 0.7514213900865827
2.0464669515620364 12.166308282946009 25.196041235735496 241.4044781713095 0.7702204680608838
2.0519018903074038 12.113974457324234 23.679784576894672 253.02061701478948 0.7898306553810419
2.056548300615762 12.060215843471614 22.28222843475006 265.33612893046495 0.8104284401209021
2.060382099646119 12.004927333728197 20.992480880489758 278.37207706873784 0.8319712012875198
2.063402458058263 11.948173373751988 19.79981560273862 292.20978279371303 0.8546066110193862
2.065592644772891 11.88998688991371 18.703338414550043 306.8869208526155 0.8783471407638602
2.0669568383406847 11.830352490520392 17.688883542151874 322.4821732276867 0.9032961660104006
2.067464574151602 11.76938092459763 16.753607054918692 339.06899471729463 0.9295611063970182
