M[M_sun], R[km], Lambda[1], P_c[MeV/fm^3], rho_c[fm^-3]
0.23841724892012095 16.20908015294055 2780876.1263280716 3.453507347168396 0.169602847481901
0.2484211910037037 15.866004545144785 2281955.4644219456 3.6356719858238202 0.17198003608196172
0.2587088364012275 15.562540663831086 1881205.0281842335 3.8250201083475983 0.17437801728612126
0.2692808831412924 15.293126207569053 1557588.2690936283 4.0206746084524045 0.17677147886932493
0.2801398803244776 15.053351700338922 1294945.8381028406 4.222936353968705 0.17915169716147628
0.2912774505729771 14.839225172095041 1080665.8661212078 4.433184178833459 0.18155571801498432
0.3027056307697639 14.647879610432458 905038.3678315589 4.651766040363799 0.18398737468489795
0.3144176689315323 14.476368697180625 760487.5781293608 4.879049463803295 0.18644831332704523
0.32641065863949364 14.322551310054589 641058.6702375121 5.112399988636697 0.18887985138487187
0.33869019331759037 14.184233241534539 533396.1201798642 5.354915747075278 0.1913321707030913
0.3512520490038661 14.060004923915704 459571.150301928 5.60713793062186 0.1938144989333401
0.36409351191280864 13.948147319322056 390734.6198822001 5.86947965699123 0.1963323776785632
0.3772301325684682 13.84754328905574 333017.3033751178 6.138930618924862 0.19882754041926795
0.390645037914392 13.756926125828121 284525.61444289534 6.418731706408868 0.20135121062556297
0.4043410735443803 13.675339705054025 243671.7853956546 6.709781617308831 0.20390938431575498
0.41832432252826773 13.601881658206738 209130.21566334166 7.01231308065538 0.20649588302086402
0.43259362927401335 13.53592107334897 179872.95266743025 7.322688789191904 0.2090568668380792
0.44714359686540484 13.476606886335256 155016.96436894144 7.645620424287621 0.2116622914955803
0.4619824112735156 13.423455906972805 133858.47195649578 7.981642359489932 0.21431213917863687
0.47710333457658033 13.375855359350355 115803.11858952556 8.329018636138503 0.21697174034097508
0.4925019953795267 13.333086752546683 100357.3731301584 8.687322156691094 0.21962583573897054
0.5081849068478249 13.295028066021375 87117.96037547328 9.060242310415285 0.22232818011134012
0.5241495519636205 13.261273095990818 75757.1430346165 9.448385463364774 0.22508149064156552
0.5403921358398142 13.231161449012319 65975.26530527875 9.846604846650571 0.2278122103928543
0.5569106470109872 13.204729593128482 57550.53434228756 10.260545333062007 0.23058610444046368
0.5737126506588869 13.181439985963411 50271.45339432151 10.691429908820378 0.2334105526110253
0.5907897378968906 13.16107532314597 43976.30225480589 11.136604394523316 0.23624294401226262
0.6081305562734118 13.143404825575697 38524.646974059266 11.596250236426329 0.23908920239401305
0.6257517259865805 13.128167468427497 33792.507346193575 12.07476490707075 0.24199481633656414
0.6436357795841411 13.115185709108482 29681.869147261805 12.572221872177813 0.24495271906333155
0.6617927318778141 13.104251025330914 26102.554343513442 13.082820938364314 0.24788536773182185
0.6802058274303019 13.095127267022601 22983.18730766621 13.614405285226436 0.25087665188106234
0.6988677143430052 13.08762029627104 20261.325972716164 14.167883274142719 0.2539285146983535
0.7178027934818602 13.081867614486649 17882.48565328285 14.737717338633203 0.25698135354656126
0.7369850580190757 13.07739666119233 15687.379576287472 15.328581949850516 0.2600778903479052
0.756407801710552 13.074116267781148 13975.982244401574 15.943737652418989 0.2632401742198378
0.7760746810506544 13.072013162902085 12375.365557748342 16.580821575801632 0.26643294157773395
0.7959726188414599 13.07098538137243 10971.053496481667 17.237876109360883 0.26963403962392907
0.8161092609049064 13.070720667382322 9734.076858230519 17.922021828729765 0.27290728415092647
0.8364742910725061 13.071333863792342 8646.057668979229 18.63429292564431 0.2762541324482806
0.8570505757881586 13.072650165071398 7687.584470690701 19.365819368575114 0.2795905787845521
0.8778500638899003 13.074501841234287 6841.254783558838 20.127106752284845 0.2829948015727734
0.8988423905844733 13.0768994873762 6094.193851200445 20.91973181247892 0.2864718588711233
0.92004584960428 13.079791951379152 5433.8411520357895 21.739152903263648 0.2899780353489888
0.9414277913543602 13.082916929606688 4849.548063579733 22.58697046148115 0.2935249063607243
0.9630026291074226 13.086433543613712 4331.915835986863 23.469666907279287 0.2971552975316147
0.9847539715262529 13.09011442426828 3872.742985102741 24.38855692694787 0.3008697018735491
1.006668133663435 13.093912667615497 3465.329407066834 25.333642313680325 0.3045734022293008
1.0287200251052722 13.097695020268999 3103.4692939843894 26.317516665783163 0.3083629920007165
1.0509460757708533 13.101644509826185 2781.7710594142873 27.34181779703591 0.3122412389142255
1.073289274081195 13.105408894170983 2495.5309996564097 28.404045815589843 0.31618319855021415
1.0957546882795979 13.10905742235249 2240.6268299714466 29.501915324113984 0.3201661135516483
1.118345770196969 13.11264227226697 2013.4671045453567 30.644896452637617 0.32423778548108334
1.1410409343911234 13.11597090111818 1810.6624752994062 31.83484710663159 0.3283999726808959
1.1638068256721006 13.118932895774677 1629.6361306514043 33.067555582919184 0.3326222450851731
1.1866642640070744 13.121652437188832 1467.9649088418278 34.344752954122924 0.33690976316597093
1.2095825185251485 13.12397648223337 1323.3115251202014 35.67456863510253 0.34130321464247454
1.23256408399382 13.125875388386651 1193.775450564587 37.05902728307146 0.34580090537753916
1.2555690483609572 13.127305973010303 1077.8088137510415 38.49608288507539 0.3503701858724453
1.2785876578339959 13.128164707719371 973.9599989623194 39.98465610664395 0.3550089970220812
1.3016505142970978 13.12860074264583 880.70845696311 41.534845037660986 0.35976533468292143
1.3246644309550437 13.128259574380584 797.033791699491 43.1491201595607 0.3646413118769543
1.347696911532556 13.127527933307624 721.8813056906007 44.83007872934724 0.3696381982704063
1.3706575644233476 13.125862247848119 654.2764079659952 46.57196716689179 0.37470042425846084
1.393587425674965 13.123595108893221 593.4182423152583 48.38382416321681 0.3798810901418776
1.4164212584392577 13.12042817391397 538.7008010389422 50.271363656292394 0.3851975541034984
1.4391984060134229 13.116673968105045 489.3854203534957 52.23779445402462 0.39065254889554846
1.4618663925062059 13.112062856395106 444.921214931059 54.286514734715745 0.3962471866317185
1.484397894671109 13.106530502661752 404.82229214434795 56.41839858426867 0.4019634160698164
1.5067833658840515 13.100077686160812 368.61434201498236 58.63354030478881 0.4078027160872469
1.529048342853763 13.092827449643666 335.8720959807663 60.942895589818484 0.4138033467796946
1.5511113582883669 13.084565221422851 306.310299843733 63.35074046480786 0.41996823974236086
1.572966827816323 13.075138869967118 279.5508387213827 65.86161412559724 0.426297965155337
1.5946316958326276 13.06487056123723 255.32345984394067 68.48041173555508 0.43279927753325065
1.6160427328838298 13.053432765402185 233.3862496284986 71.21222516047155 0.43948649440970444
1.637255283346885 13.041224718156757 213.48690618153617 74.06252642128092 0.44636650482296714
1.6581161873337238 13.02741446343971 195.4551237507714 77.0371713054091 0.4534426324666054
1.6787333901931667 13.012800100713488 179.08385764857186 80.13806382314051 0.4606992532021613
1.6990122912200742 12.99686040443373 164.21222791048038 83.37671195198567 0.4681781127118436
1.718978636681736 12.979805265571725 150.70295262583923 86.76042377740572 0.4758899410796202
1.73859237645693 12.961584777150618 138.40615658987076 90.29677087875626 0.48383916619625894
1.7578359766448783 12.942158234504502 127.22539759809595 93.99386005781659 0.49203375895514745
1.7766778349791195 12.921292796607908 117.04008138854316 97.86041355681654 0.5004937332038965
1.7951077472314774 12.899208900050393 107.75547402435059 101.90574110792078 0.5092345604865829
1.8131067136472983 12.875994892385643 99.31053525608704 106.13979330710268 0.518262996988089
1.8306474883753021 12.851195246751818 91.58469217034246 110.57325806773862 0.5275924398158132
1.8477069410747153 12.825081605884243 84.53802373772686 115.21763386352619 0.5372472324183045
1.864294287153814 12.797710946160386 78.1037932837901 120.08497374853398 0.5472456085980398
1.880364783345918 12.768969951335896 72.22277464796323 125.1826737600916 0.5575740768500842
1.8959070867147547 12.73886520533598 66.85166218374741 130.52979237747866 0.5682756264074168
1.91086689272793 12.707166377106176 61.925784195063926 136.14158830151257 0.5793788555884929
1.9252949438678157 12.674215220802436 57.42063097969278 142.03450540942222 0.5909015232467313
1.9390865945709985 12.639594808108875 53.29040960704524 148.2262722391913 0.602863492566201
1.9522985751255961 12.603618286661405 49.50101404258408 154.735988247328 0.6153003266819446
1.9648821268534322 12.566207793950467 46.033077482749626 161.57901583396952 0.6282252587900565
1.9767962850605914 12.527277713138249 42.847197539974516 168.77219871123972 0.6416372685230067
1.9880593075280373 12.486869549206547 39.92184582398126 176.3485182541334 0.6556127866023571
1.9986435312941266 12.444930130326 37.22920342845482 184.33393706477392 0.6701913373525757
2.00853851642222 12.401488094547517 34.758525140136456 192.74514543651395 0.685358184719777
2.017715629549732 12.35664226759086 32.486073863132575 201.61298384854672 0.7011700948737057
2.0261563181170072 12.310250477829825 30.396151746091878 210.97928300857492 0.717705729783048
2.033843299325356 12.262282379926347 28.47128016133666 220.86283355248418 0.7349403178834834
2.040796152122991 12.212893026163991 26.697303962744513 231.30859955986622 0.7529642792109922
2.046952240778119 12.161864426082195 25.062136832264382 242.3589505218135 0.7718354969925502
2.0523378928667886 12.109452873188772 23.55523492563567 254.04467048545865 0.7915512093108682
2.056921346924244 12.055500988297226 22.16579117803184 266.4298520311675 0.8122434594514831
2.0583434439486963 12.009860079497994 21.22459395725571 282.04491707872904 2.600941764870672
