M[M_sun], R[km], Lambda[1], P_c[MeV/fm^3], rho_c[fm^-3]
0.23841724892012095 16.20908015294055 2780876.1263280716 3.453507347168396 0.169602847481901
0.24842470839521064 15.865906721875678 2281841.0847723503 3.6357251270635373 0.17198071205862908
0.2587151680306855 15.56231634796062 1880984.52584796 3.8251294254605437 0.17437935457358503
0.2692890245649397 15.292863628881149 1557319.721756441 4.020850736992746 0.17677363346783806
0.28015324475931974 15.05308516782049 1294698.5936700858 4.223177555292183 0.179154517636739
0.2912947503497188 14.839031959294918 1080361.7209378213 4.43349378429456 0.18155920170177
0.3027271869709672 14.647570031056459 904708.5818951201 4.652147556770204 0.18399150670734746
0.3144423286069965 14.47595401489055 760188.6376242988 4.879506540839029 0.18645307611988035
0.3264388127601392 14.322202719982167 640812.0890120425 5.112959303266966 0.18888567950465335
0.33872201678503683 14.183963198423909 541781.1662737937 5.355561200866185 0.1913386111133172
0.3512874532807204 14.059617298767467 459340.35398740467 5.607873574227431 0.19382156923661312
0.36413566511360235 13.94781495868961 390518.24550385866 5.870309836646294 0.1963400652864624
0.37727531043083273 13.847196608427613 332827.7059394927 6.13989853812851 0.19883650351932752
0.390695396995006 13.756523451727741 284350.79993960704 6.419806659619882 0.20136079160056355
0.40439686726185886 13.674990251258365 243520.1839787255 6.710968427813267 0.2039195309755403
0.4183862341390811 13.601675939166437 209004.5966414054 7.013671028130159 0.20650749281954833
0.432661094046428 13.535650043018878 179750.4597515893 7.324172683714945 0.2090690990499446
0.44721725216947783 13.476348819956984 154908.81299962933 7.6472360837265905 0.2116751368125699
0.46206015060016115 13.423158766975238 133753.2075633064 7.98339582896596 0.2143255641871077
0.4771874344634304 13.375601411040375 115711.52793449357 8.330992269319054 0.2169868509787874
0.4925898786503353 13.332870604363281 100275.4137473147 8.689450291904697 0.21964149284159598
0.5082817362124276 13.294860786124355 87050.49316092867 9.06253186111973 0.22234443970038964
0.5242490349866633 13.260999464734669 75691.76256444868 9.45084398020437 0.22509834949066865
0.5405035918263983 13.231092234871566 65915.51132501822 9.849341960863562 0.2278309796747041
0.5570291956845014 13.204616366292315 57494.74106259652 10.263471694071416 0.23060544244116923
0.5738353197367932 13.181353143452071 50225.29967083921 10.694553945211704 0.23343042907316794
0.5909183087766792 13.160950232378134 43932.46164170832 11.140062611305689 0.23626494667367423
0.6082690756034372 13.143270502869644 38483.77846391314 11.599929477055948 0.23911182793302738
0.6258962431744174 13.128086355172806 33758.84303180124 12.078675681378737 0.24201806998622785
0.6437881711690762 13.115097710409964 29648.514943717022 12.576531323578083 0.24497834326590953
0.6619535295029341 13.104197845411028 26074.559672912354 13.087389203347195 0.2479115699326886
0.6803723649897335 13.09506327693463 22957.82432583672 13.619244155309914 0.25090343162064294
0.6990443809450444 13.087640135363891 20238.472798483235 14.173005592986996 0.253955957097703
0.7179915451011109 13.081789164644261 17860.413686224103 14.74333223643073 0.2570114348968932
0.7371757043095514 13.077340296952576 15781.508181269628 15.334514115002769 0.2601086694297103
0.7566041808662678 13.07415025672003 13958.76600851859 15.950002331522843 0.26327156986838013
0.7762788742151878 13.072001294847963 12275.918984750593 16.587669128116467 0.26646725831483853
0.7961859238724641 13.070964169160401 10956.58138509578 17.245095061556768 0.2696690305665682
0.8163419489998325 13.070788408613819 9658.012629139504 17.929630565340986 0.27294305029416466
0.8367051615575932 13.0713414268795 8634.322719888452 18.64231136308772 0.27629070403976475
0.8572901280926649 13.07263039642839 7677.083710880746 19.374552990524425 0.27963041228782015
0.8780983187694855 13.074600203561413 6832.342064216402 20.136298898870393 0.2830353628865579
0.8991012263250099 13.07695740102888 6085.92614261386 20.92940525206676 0.28651325002729977
0.920311446431688 13.079826186260652 5394.588246546032 21.749669447208408 0.2900230340186865
0.9417056777543606 13.082996095046298 4842.590269542757 22.598026665725666 0.2935708784595003
0.9632815300294413 13.086464705016411 4325.481333642997 23.481291455383495 0.2972022934648181
0.9850406165440715 13.09017579648766 3867.342599389653 24.40077929230771 0.30091760016884267
1.0069646979821372 13.093954405125867 3460.0888487692937 25.34689773158241 0.304625348959923
1.0290294655983185 13.09770542397996 3098.8060328837123 26.33144265158516 0.3084160561688018
1.0512629787091612 13.101733133469148 2777.54356376567 27.35645071375277 0.3122955421015329
1.0736155413215835 13.105473793675866 2479.0342179070403 28.41989636855529 0.31624202042170174
1.0960823564890103 13.109147799642766 2237.1598351281646 29.51856168679751 0.3202263109277561
1.1186910908533694 13.112754783226057 2010.194610311651 30.66238156231903 0.32429921020391744
1.1413776405307112 13.11597704388175 1807.720643195729 31.853216497308413 0.32846289150787733
1.1641728173146095 13.119079610275767 1627.0176056171335 33.08742105674901 0.3326902882953586
1.1870265270924496 13.121671625811082 1465.4962192885705 34.36561579029458 0.336979518184688
1.209956565631159 13.123997600462918 1321.0476305434095 35.69648595565301 0.3413747881919809
1.2329456417358158 13.125938763486669 1191.7702276870964 37.08205815239095 0.3458741346261608
1.2559445693688194 13.127267148702641 1076.0127715407114 38.52095846254847 0.3504492805788636
1.2789853779624278 13.128141907576284 972.2397947913204 40.01078892778736 0.3550902339050015
1.3020342490859502 13.128553837378664 879.2090456630191 41.56230891990064 0.3598488651425883
1.3250690233713074 13.128251442544562 795.6511239398673 43.17799375519581 0.36472726676653383
1.3480956552568122 13.127389430195128 720.5623610318805 44.8604439516885 0.36972644480465944
1.3710743516106356 13.125802448011035 653.0962643315239 46.6047214315441 0.3747956137586428
1.3940077756492668 13.123479735331067 592.3543821749279 48.41826844022906 0.3799791949737273
1.4168588852684398 13.120447885854357 537.7172913339195 50.30760046915084 0.3852987601468291
1.4396395654944358 13.116646316571234 488.48500912462697 52.275932891967834 0.39075700590001455
1.4622985363433738 13.111938274517208 444.09033876565366 54.326669370420476 0.39635485343107985
1.4848423722036732 13.10643431632978 404.05220349657503 56.46167849565535 0.4020794626844566
1.5072497835799725 13.099977263362153 367.90632414863177 58.679113214692556 0.407922729272492
1.5294898073234149 13.092606493193417 335.2510702162177 60.990904989423136 0.41392757997826113
1.551547290487899 13.084284284615222 305.74047798817486 63.40133919656561 0.4200968755873971
1.5734419214656774 13.075008768509736 279.01093213667156 65.91496384338268 0.42643108250810874
1.5950832998733708 13.064599740295813 254.83680491574106 68.53668612395089 0.43293745468253736
1.6165139795917178 13.053346561683584 232.95401995085294 71.27161209819138 0.43963005360012847
1.6376862693496952 13.040828851485015 213.09228431168563 74.12522636176021 0.446515664166592
1.6586074496666012 13.027373313200812 195.08837589324827 77.10339748787979 0.45359761310079555
1.679179400831464 13.012416416016643 178.7398238236719 80.20938750744118 0.4608661628655801
1.6995089836664572 12.996751770346679 163.8976937900279 83.45207542866443 0.468351968340181
1.7194255406029357 12.97938786593814 150.40246716582118 86.84009539492854 0.4760711921193439
1.739034417355046 12.961095631637306 138.13751981495466 90.3810376891043 0.4840281111750617
1.7582765634205253 12.94158603586159 126.97371733526087 94.08302899363827 0.4922308258475293
1.777111559348275 12.920770575971488 116.8122720974513 97.95481584807817 0.5006997137474437
1.7955437914239092 12.898751353332894 107.55284349841874 102.00573470014083 0.5094500398859176
1.8135230436068324 12.87520633747334 99.10090769887526 106.24576212462365 0.5184883654654714
1.8310698434975365 12.850617963254233 91.40710967535708 110.68561437750618 0.5278283618939238
1.848131697042338 12.82446187079206 84.37418244740033 115.33682349265524 0.537494646862707
1.864704746828025 12.797038398906938 77.95129129128426 120.20964660128638 0.5474984693663183
1.8807622584643298 12.768169035261081 72.08202747051511 125.3151121824595 0.5578396611452209
1.8962841519245301 12.737926043534468 66.71186366485814 130.67055278107009 0.5685549907912255
1.9112515783795043 12.706323800439144 61.802666313184915 136.29127304471666 0.5796729427763363
1.9256423334067119 12.673131669119451 57.303735340432574 142.19376421130124 0.5912109878898701
1.939446761096019 12.63867737406369 53.18604040435443 148.3958076093286 0.6031896072702461
1.9526438532277244 12.602648940379563 49.40469072718796 154.91656294182394 0.6156444223748597
1.965208160379231 12.565106226977637 45.93658135306944 161.76922424893542 0.6285807438577662
1.9771301715994065 12.526206185669636 42.76107589399727 168.97506868828864 0.6420129760225011
1.9883608155069241 12.485673670036286 39.84179497042431 176.5650166450799 0.6560102912225537
1.9989460257748364 12.443780376741186 37.1580430191925 184.56511492185936 0.670612222439221
2.0088174373828145 12.400394214421212 34.693377028132005 192.9896544145416 0.685795490252544
2.0179740921644864 12.355417813808433 32.426914963884656 201.87443150493323 0.7016339858187397
2.0263874455488984 12.30885626187552 30.337473464479036 211.25901490827442 0.7181981955811759
2.034061682134507 12.26075130142499 28.414357465100277 221.15962435604894 0.7354542535634466
2.0409736852090714 12.211273988550714 26.64537303402937 231.6265940071446 0.7535108615234561
2.0471265302432866 12.16036240272942 25.01593017154994 242.69709819216612 0.7724076647148594
2.0524818883194778 12.107795342904899 23.511972902857057 254.4074963519924 0.7921608078214805
2.057035933526861 12.053747268184159 22.125231966292155 266.815376629901 0.8128812473984063
2.0605291307918074 11.999745898305772 20.88942792215495 280.98343133805764 1.4379997517783976
