M[M_sun], R[km], Lambda[1], P_c[MeV/fm^3], rho_c[fm^-3]
0.23841724892012095 16.20908015294055 2780876.1263280716 3.453507347168396 0.169602847481901
0.24841843470443623 15.866111469322558 2282028.832184218 3.635607100445152 0.17197921071540523
0.2586985559330822 15.56289675814802 1881454.0962222337 3.8248866353036255 0.17437638449667367
0.26926813773482894 15.293415283293324 1557855.9747755695 4.020459565710935 0.17676884822939495
0.28012498350324994 15.053651933299596 1295161.078623894 4.222641867528103 0.17914825359943878
0.2912584802295421 14.839717107601365 1081031.4201985186 4.432806184684029 0.1815514648173219
0.302682854374177 14.648208916986482 905301.7821644587 4.651300260407846 0.1839823300440851
0.31438682127789735 14.476750579789151 760832.459524771 4.878491445637893 0.18644249871656984
0.32637675642748976 14.322957898536018 641377.1801443349 5.111717171335722 0.18887273635371843
0.3386498872091823 14.18470703123324 542299.7383629213 5.354127785374267 0.1913243083329754
0.35120602586004157 14.060522094117982 459849.16754569346 5.606239883222287 0.19380586776001046
0.36404359204473963 13.948603931871649 390990.252367236 5.86846622192733 0.1963229930937266
0.3771731852460024 13.847932744273152 333235.5554742336 6.137749068923143 0.19881659906088714
0.3905809212928624 13.757317351657134 284731.5439143744 6.417419522168323 0.20133951522870663
0.40427246552553836 13.675769372405565 243856.7594453264 6.708332915220371 0.20389699860871333
0.4182498656664734 13.602357510092116 206721.42987969337 7.0106555194549225 0.20648171166873028
0.43251131680692884 13.536315008957239 180031.76381859853 7.320877522999201 0.20904193599800275
0.44705438150377175 13.47695432308627 155161.85959972267 7.643648356347849 0.21164661254913875
0.46188436933271193 13.423687272554368 133982.41387911577 7.9795021158780814 0.21429575292896927
0.4769980505948451 13.37598298904788 115910.13787665003 8.326609728802525 0.2169532971334753
0.49239147732393607 13.333356764931741 100453.49222031873 8.684724713871564 0.21960672584946297
0.5080648817476772 13.295291037001087 87211.9961363461 9.057447899303511 0.22230833518009463
0.5240194366665857 13.261426050492494 75837.41492589965 9.445384873843224 0.225060914623883
0.5402578758627619 13.231466775005861 66052.54432129396 9.843264321563925 0.22778930332650682
0.5567754341717276 13.204967436106127 57617.44814608851 10.25697389421604 0.23056250363157474
0.5735644869365244 13.181613281106243 50332.26024095753 10.687617275732102 0.2333862950007576
0.5906288989696755 13.161285297402108 44030.791433483675 11.132384036533615 0.23621609228094362
0.6079673628000106 13.143645791097931 38575.56966401563 11.591760208943844 0.23906159091050133
0.6255755755510818 13.12831826170241 33837.59834355266 12.06999239141233 0.24196643873192744
0.6434593516142496 13.115503392024024 29722.553764928747 12.566962977524073 0.24492144942610228
0.661593924343093 13.104345208901345 26138.82779025831 13.077246287567041 0.24785339320308947
0.6799999281358302 13.095201915368378 22839.483591126736 13.60850049711675 0.2508439730355616
0.6986538543465171 13.087736553985806 20138.551623685795 14.161632684367603 0.25389502768085354
0.7175765737692005 13.08190379737424 17908.47126618371 14.730865867122253 0.256944647354883
0.7367512333997585 13.077376124155487 15823.096685470622 15.321343437490246 0.2600403332741613
0.7561649596140375 13.074158675582087 13996.903532125954 15.936093505141587 0.26320186532047546
0.7758191554971612 13.071994478446202 12394.610420054361 16.57246645195663 0.2663910695955595
0.7957108460823107 13.070907511188269 10987.436709045378 17.229067935356994 0.26959134557319114
0.8158391659240514 13.070707757792132 9749.424834039675 17.91273818475614 0.2728636448245706
0.8361935685594721 13.071318817264974 8660.080935161037 18.62449325498767 0.27620936896947734
0.856755407405895 13.072589151913142 7700.005215497407 19.355163679424024 0.27954197885303605
0.8775503786715451 13.07455727513412 6852.993944784417 20.115891776992356 0.28294531431452635
0.8985294003748505 13.07684903461729 6104.523575264273 20.907929787228284 0.2864213598251623
0.919723438668989 13.079765803103715 5411.872096933522 21.726322646446363 0.28992313665872604
0.9410968829145798 13.08288265338859 4857.950698271506 22.57348199483401 0.2934688208265459
0.9626574717136982 13.086339521234066 4339.704645287827 23.45548525624066 0.29709796369644526
0.9844003888255858 13.09009764534138 3879.8610041417624 24.373294589726225 0.3008084998603709
1.0063007050657646 13.093800155155863 3471.691306886839 25.317471769068447 0.3045100313924722
1.0283501732220914 13.097691398022784 3109.481363244734 26.300528311759383 0.3082982588546235
1.0505538143271829 13.101551923425932 2787.092383254519 27.3239672991785 0.3121749951880131
1.0728866842282192 13.105356528462037 2500.4423445409557 28.38471056429488 0.3161114448600223
1.0953442336751005 13.10904772529668 2244.972892015577 29.481609587501946 0.32009268297181415
1.1179323316186889 13.11258841336881 2017.3709128017074 30.623567884847784 0.3241628587926719
1.1406064072368147 13.115847645101718 1814.230260843665 31.81244019713682 0.32832322454664936
1.1633712334485375 13.118886030479299 1632.8986744583663 33.04332456350768 0.3325392490106293
1.1862189104006307 13.121571948847537 1470.8543958522541 34.319305762420726 0.3368246803268555
1.2091255910504766 13.123879126503462 1325.9827539582905 35.64783563956531 0.341215914948375
1.232092993440506 13.125828247292402 1196.2533387194605 37.03093648597338 0.3457115875174037
1.2550953290307019 13.12730325497527 1080.1333747648903 38.46574313658994 0.35027371721752226
1.278116205575559 13.128188145337242 975.9627846111666 39.95278343075621 0.35490991713991926
1.3011362390880754 13.128484556083096 882.5725142032908 41.50134946127636 0.35966345903155506
1.324174517524417 13.128294940199071 798.7195041034723 43.11390581904103 0.36453648098615576
1.3471785742346771 13.127415224153903 723.4176160256968 44.79304578884144 0.3695305742057407
1.370140188370935 13.125837317284812 655.6566231790656 46.53202201650775 0.3745843368133568
1.393065244271837 13.123615943203 594.7597696589003 48.34181866645147 0.37976144930298117
1.415906803535675 13.12057629005537 539.8987041856809 50.227172870060166 0.3850741333533428
1.4386654756509227 13.116755193661088 490.4692589788023 52.19128543749223 0.39052516579310276
1.4613233555910263 13.112156275205537 445.93471498485616 54.237547868495966 0.39611589156034976
1.4838650835024683 13.106667740417082 405.7221223358228 56.36562255081861 0.4018219074617857
1.506248979377455 13.100244348388706 369.444700463169 58.57796917196351 0.4076563732561191
1.528492883097253 13.092985863217145 336.6575846127788 60.88435451679866 0.41365186092882666
1.5505487329204073 13.08467448684513 307.01253698739305 63.2890432222923 0.41981138844092125
1.57241936614499 13.075409297216428 280.1903121868966 65.79656375413103 0.4261356525207843
1.594073560257763 13.065112607190251 255.90758622128064 68.41179662431053 0.4326307987502726
1.6154923938184724 13.053778742964067 233.9349746395145 71.1398164129757 0.4393114569087112
1.6366797848172234 13.041492444254601 214.0047088150449 73.9860798292725 0.4461846430317251
1.6575686126582707 13.027908141967593 195.93550762894697 76.95502526940965 0.45324758359791484
1.678180695262212 13.01319830818112 179.49841685693207 80.05110817031152 0.4604957620492805
1.6984636436936271 12.997310638717682 164.599206947343 83.28483316033285 0.4679661579857929
1.7184349591204495 12.980323975483623 151.05381837903593 86.66329497550964 0.47566897535960395
1.738054027819859 12.962196132929089 138.73905046108544 90.19404242569512 0.4836088260978748
1.757289243374064 12.942653108562583 127.52693958268266 93.88515811116021 0.4917935233324383
1.7761598841354465 12.922124819105662 117.32712843042282 97.74533469588934 0.5002426375365372
1.7945866925905676 12.900002010989217 108.02508347023507 101.78384939151576 0.5089718921170235
1.8125731504781821 12.876568741159005 99.5402536140756 106.01062117318534 0.5179882810119912
1.8301234809184497 12.851940472313006 91.80824328972575 110.43630345761535 0.5273048670369106
1.8472136726448496 12.825992270565546 84.74416550420663 115.07235387187757 0.5369456594653623
1.8637937448494721 12.798656301360037 78.29913560776787 119.93106863036165 0.5469301660472969
1.8798642584187317 12.76979831802428 72.39945152206283 125.02125128724548 0.5572503696289958
1.8954047767827102 12.739723037593281 67.01006140836692 130.35823173893755 0.5679351334076169
1.9104008777722081 12.7081875382069 62.0767967185784 135.95915609491442 0.5790204291152127
1.9248235260567639 12.675145499206723 57.55587243115763 141.84041060462644 0.5905243668271641
1.93865867875425 12.640797746950154 53.42052208821895 148.01965957384616 0.6024660567499672
1.9518811447675741 12.604937799185297 49.62508094880448 154.51592915761577 0.6148809911534079
1.964477985453013 12.5674462973374 46.13985531482235 161.34722074815372 0.6277920513959947
1.9764347150105306 12.5286974711589 42.949253970214 168.52498229954728 0.6411794331092997
1.9876954720658693 12.48830376828537 40.01689819293889 176.08470365093945 0.6551284064497543
1.9983057469866277 12.446357415243618 37.3181205870148 184.0522449811783 0.6696784854795366
2.0082227766060936 12.403154807068717 34.8445318342756 192.44721611031076 0.6848253366265368
2.0174001893584763 12.358176538673819 32.561945129014674 201.29442725638472 0.7006048745897405
2.0258726074550806 12.31190591964196 30.466536813748757 210.63846163920385 0.7171057164564784
2.03358822037885 12.264040942036647 28.537144232287368 220.5012375438729 0.7343141627320247
2.0405425647483724 12.214626724596828 26.75926284857527 230.92118602029282 0.7522983764251031
2.046735622023032 12.163724785014155 25.118784622794145 241.94699646067204 0.7711384440848262
2.052153355961487 12.111406518774254 23.60908773459835 253.60267101555294 0.7908085880057224
2.05674440508037 12.057458079188665 22.215181275002625 265.95769384998806 0.8114602926823782
2.0605509553311694 12.002100046335057 20.930393686845704 279.0385008283442 0.8330667831749984
2.063530758753447 11.945308454591766 19.744779266114612 292.9214437530129 0.8557611274314071
2.06567880965996 11.887015465021046 18.650369127028082 307.65272308484083 0.8795810742641678
2.0670008186468007 11.827329065248499 17.640498229404507 323.3016791131937 0.90459878194432
2.067458313199373 11.766188287490989 16.707311602770368 339.94708043393655 0.9309389717193994
