M[M_sun], R[km], Lambda[1], P_c[MeV/fm^3], rho_c[fm^-3]
0.23841724892012095 16.20908015294055 2780876.1263280716 3.453507347168396 0.169602847481901
0.24841793798769354 15.866147304136021 2282146.2182539734 3.635606899873783 0.17197920816406156
0.25870149283440996 15.562714339098182 1881321.0459949728 3.8248862227216223 0.17437637944951567
0.2692689686607044 15.293458835209929 1557947.4646928073 4.020458900995467 0.1767688400978624
0.28012510911188415 15.05363129849484 1295218.9080972015 4.222640957256283 0.1791482429552221
0.2912583856239021 14.839715653813428 1081035.2296698114 4.432805016299418 0.1815514516706351
0.302682791322046 14.648208978577818 905333.8168020617 4.651298820692472 0.18398231445121374
0.3143869499759221 14.476750893254804 760813.4066824456 4.8784897208352 0.18644248074393666
0.3263759340834967 14.323000050238276 641389.0121632443 5.1117150608143564 0.18887271436185438
0.33864919966600077 14.184683768891402 542305.9733848709 5.354125349887784 0.19132428403141846
0.35120661582594365 14.060441355678334 459840.4408112254 5.606237107504066 0.1938058410824597
0.364043530882927 13.948607852479844 390984.77665150596 5.868463089596287 0.19632296408779673
0.3771730115227766 13.847935293220038 333247.9570619383 6.137745417031722 0.19881656524373786
0.39058075570770917 13.757320154896481 284738.47114617465 6.4174154665572525 0.20133947908135819
0.4042725479541122 13.67574143438191 243861.3417160262 6.708328437712046 0.2038969603281677
0.4182506323610988 13.602338111179243 206714.4062061638 7.010650396497267 0.20648166786990288
0.43251116340385337 13.536268915873093 180033.55096406324 7.320871925043965 0.20904188985228728
0.4470557130805481 13.476939559635035 155157.05858336232 7.643642261469479 0.21164656409174556
0.461885282568153 13.423672575697807 133979.95817566977 7.979495501294753 0.21429570228603625
0.47699646055073364 13.37601952774664 115914.92018776297 8.326602284001021 0.21695324013418069
0.49239225170382955 13.333363752890945 100457.46111972042 8.684716686465539 0.2196066667902833
0.5080652811142755 13.295285274114251 87208.32389910556 9.057439263240258 0.22230827384979115
0.5240194558323636 13.261424422266993 75838.24059338169 9.445375600668424 0.2250608510347092
0.5402568750784332 13.231484004360645 66050.99354644505 9.843253997986768 0.2277892325343826
0.5567761763251655 13.20501700400222 57619.663805619755 10.25696285711285 0.2305624306961069
0.5735639914916427 13.181716511104057 50333.133156327895 10.68760549334259 0.2333862200361318
0.5906308123902352 13.161278649321758 44031.29792030925 11.132370994325722 0.23621600930081185
0.6079670501733692 13.143644490129486 38575.162117377535 11.591746333484513 0.2390615055831803
0.6255759383125425 13.128313181378147 33837.20345470971 12.069977643100382 0.24196635103776457
0.6434601865146645 13.115512375857536 29722.31384435986 12.566946726425016 0.2449213527962959
0.661594522689924 13.104326203279266 26138.673617424178 13.077229060848065 0.2478532943957846
0.6799997842234438 13.095213254251172 23017.161633379063 13.608482250351017 0.25084387205255815
0.6986551979870056 13.087706147244951 20290.75263561241 14.161613369164217 0.25389492420124965
0.7175748878847882 13.081861726128176 17908.58787916593 14.730844695442615 0.25694453392936123
0.7367518881545614 13.07737191038452 15823.27151911501 15.321321069986615 0.2600402172202069
0.75616542946174 13.074151214573716 13996.699936731422 15.936069884374126 0.2632017469442105
0.7758180152556932 13.071990627057534 12394.96714573318 16.572440634654548 0.26639094021128795
0.7957095203261549 13.070944946490103 10988.169611109242 17.229040718332417 0.26959121364970423
0.8158379828849773 13.070724525433137 9749.925247354724 17.91270949875295 0.2728635099811989
0.8361923796229319 13.071317575177103 8659.83952655161 18.624461976146463 0.2762092219380355
0.8567525622719242 13.072594996438934 7700.520146512807 19.355130754653533 0.27954182868521793
0.8775479966116965 13.074531088887985 6852.949856980893 20.115857124350477 0.2829451614060987
0.8985300901155433 13.07683950298851 6104.669316415487 20.907893320954262 0.2864212037915995
0.9197227143236751 13.0797678969956 5443.546036240177 21.726283003779496 0.28992296703386816
0.9410954994178543 13.082910394800539 4858.167903252609 22.573440318749626 0.2934686475358735
0.9626551585254379 13.086341225030058 4339.69766512283 23.455441438708345 0.2970977865501336
0.9843995544094685 13.090101073162561 3879.9416994458516 24.373247029910445 0.30080830758468796
1.006299742674786 13.093800594814786 3471.643875249914 25.31742180762017 0.3045098355982759
1.0283490101830228 13.09769116711752 3109.409338397781 26.300475823950983 0.30829805885284783
1.0505553060300803 13.101544259862816 2786.966317507827 27.323912148075227 0.3121747905206355
1.072886192167885 13.105321920166075 2500.438120683706 28.38465082694445 0.31611122317294565
1.0953447000057406 13.109037874671365 2244.992660043935 29.481546852260806 0.32009245610562254
1.1179299983255704 13.112578921088053 2017.3228892915236 30.623501990043373 0.3241626273059858
1.1406034113012313 13.115848497002272 1814.2079652081238 31.812370971324103 0.3283229874344332
1.1633729926870242 13.118928285073116 1632.9497817709753 33.04324970350822 0.33253899260019976
1.1862184920772547 13.12156579011881 1470.8830244769597 34.31922714576726 0.3368244174715999
1.209124187092146 13.123872945269559 1325.965374085738 35.64775305121004 0.34121564524653253
1.2320884802102339 13.125852691693437 1196.316369824634 37.03084970356337 0.3457113115829355
1.2550950169675288 13.127297032812637 1080.148637079551 38.46564940814989 0.3502734191973675
1.278114542422097 13.128178680509087 976.0099281343994 39.95268496747281 0.35490961105546776
1.3011352371318936 13.128490682920049 882.6117243038123 41.50124598529676 0.35966314431289786
1.3241702552228662 13.128260697898021 798.723717257173 43.113797034325394 0.36453615714085646
1.3471772711731147 13.127452477286251 723.443262179949 44.79293138708757 0.36953024173465987
1.370137998431399 13.125838961004408 655.662074098537 46.53189862081954 0.3745839782043631
1.3930608978511083 13.123604356531022 594.7536382979932 48.34168890726796 0.3797610797204559
1.4159052815394086 13.120580321782676 539.9037824242524 50.22703636156691 0.3850737520978351
1.4386632622588889 13.116784859902985 490.472974638196 52.191141769184426 0.39052477230134275
1.4613240163910748 13.112142498749673 445.9201775291165 54.23739660925332 0.39611548598828455
1.4838642167723366 13.106666698304611 405.7174064428775 56.36545952837321 0.40182147034899385
1.506228215893625 13.10027645151726 369.5491747528334 58.57779751732041 0.40765592121519123
1.528490984910127 13.09299438456107 336.65387460512403 60.88417369011189 0.41365139300633924
1.550548183404281 13.08467476815081 307.0166531301043 63.28885264856235 0.4198109039502642
1.5724149842008197 13.075382902425764 280.18988110266395 65.79636282523784 0.42613515116626044
1.5940704063272069 13.065109786758976 255.91332078878148 68.41158468690953 0.4326302783553517
1.6154889716924552 13.053787712189177 233.9322936007873 71.13959276036654 0.43931091626141167
1.6366605579722369 13.041323186686698 213.98836541812673 73.98584370749514 0.4461840813123828
1.6575624257254176 13.027821983864696 195.91191082257023 76.95477096584438 0.4532469786252053
1.678179047568151 13.013193236850285 179.50415819336027 80.05083959822448 0.4604951335444985
1.6984628040243503 12.997323578631635 164.59967068761287 83.28454938608584 0.4679655033483983
1.7184280528478482 12.980310588710942 151.05614103697107 86.66299499001951 0.47566829289973084
1.738042293144788 12.962103248738945 138.73324053921553 90.1937251496092 0.4836081146941433
1.7572881812144494 12.942634699127938 127.52508538945429 93.88482239043883 0.4917927813763001
1.7761589012615415 12.922124100262353 117.32519830112324 97.74497928521235 0.500241862050228
1.794585238667855 12.899989921625497 108.02041252954298 101.78347294520574 0.508971080900795
1.8125778935092995 12.876657667044881 99.54393457575942 106.0102222479879 0.5179874326004826
1.830125089615665 12.851912101885707 91.80185420558016 110.43588050382805 0.5273039789324805
1.847225227577645 12.826053598398243 84.74649693434138 115.07190521375614 0.5369447281385292
1.8637935269166626 12.798641455256758 78.3019125849516 119.93059245557833 0.5469291885995515
1.879863641664784 12.769820812637327 72.39983780420344 125.02075278839365 0.5572493699684454
1.8953994320890166 12.73964785632773 67.00995320797404 130.35770194042257 0.5679340819270023
1.9103970774463295 12.708200061058356 62.0718302757278 135.95859273320127 0.579019322272535
1.9248217602868962 12.675137209843175 57.555744980354426 141.83981123838203 0.5905232021652507
1.9386534677283944 12.640751704808034 53.41763501115795 148.01902156356812 0.6024648294866957
1.951880579051416 12.604927339597214 49.623243806447675 154.51524963765542 0.6148796962881874
1.964470659889981 12.567486051270746 46.1437514945309 161.3465049958396 0.6277907137093319
1.9764314757237047 12.528707028950064 42.950274048591 168.52421894275346 0.6411780194014836
1.9876929437982234 12.488274905254015 40.0161301332311 176.08388905800413 0.6551269108060502
1.9983184253879744 12.446476643997254 37.31904589992381 184.05137520448764 0.6696769019540103
2.0082256810846304 12.40317965075473 34.84358874154813 192.44629620975167 0.684823691379776
2.0174006608358828 12.358170961972064 32.562297471183626 201.29344368684298 0.700603129425869
2.0258696185143954 12.31191145384248 30.465750293427238 210.63740934808243 0.7171038639062775
2.033589494292145 12.264043292228079 28.536671111924278 220.50012112722948 0.7343122294971001
2.0405427473173936 12.214602646699197 26.758848303894407 230.91998992004025 0.752296320517374
2.046733789395781 12.163730249474636 25.119754238187713 241.94572461481366 0.7711362920393984
2.052153446331035 12.111416305661898 23.610059987847677 253.60130644175342 0.790806295329724
2.056746142284977 12.057460511984685 22.21589314606872 265.95623970428426 0.8114578835455224
2.060552022550173 12.002096774933841 20.930166642414388 279.03693836869877 0.8330642145353562
2.063532111409768 11.945308587738879 19.74500887986953 292.9197751899858 0.8557584205477793
2.06568345304697 11.887008443137445 18.650132445356356 307.6509275194088 0.8795781810781136
2.066998555352036 11.827326770221513 17.640406897675597 323.2997575760925 0.9045957276345341
2.0674607435108894 11.76621076523187 16.70782812874022 339.94502148175695 0.9309357408744433
