M[M_sun], R[km], Lambda[1], P_c[MeV/fm^3], rho_c[fm^-3]
0.23841724892012095 16.20908015294055 2780876.1263280716 3.453507347168396 0.169602847481901
0.24840673205985156 15.866443207226288 2282574.28298355 3.6354060580909877 0.1719766533806255
0.2586783243923177 15.563417103625508 1882290.043944902 3.824473100264246 0.17437132568008865
0.26923275114999895 15.294123480694621 1558815.449231092 4.019793341829772 0.17676069824427054
0.2800772655811749 15.054631392530814 1296257.1122680975 4.221729563794838 0.17913758562268534
0.29119545418472587 14.840682511423823 1082028.8268388736 4.4316352339852045 0.18153828925684673
0.3026062363530741 14.649445003502251 906435.6702980646 4.649857433269316 0.1839667034706873
0.3142967123321123 14.477995264978512 761814.3426447976 4.876733320234432 0.18642388812238495
0.32627048841089556 14.324219800272063 642310.7519191607 5.109602247754179 0.18885069861807766
0.3385281114482462 14.18597744018187 543219.9454847232 5.351687299009666 0.1912999568866593
0.35106597892037755 14.061709424114582 460652.1362816907 5.603458555535685 0.19377913629643628
0.3638897760957743 13.94995306171371 391735.55462778505 5.865327658526909 0.19629392945112584
0.37699823195400906 13.849163062327829 333915.4107200459 6.1340900667880005 0.19878271606514555
0.39039116295758686 13.758555141527994 285372.0047384306 6.413356137524084 0.20130329859500085
0.40405936516481517 13.676870748323145 244428.36330267426 6.7038469573150055 0.20385864582323757
0.41801723698012627 13.60345353026008 209828.1670271309 7.005523117416646 0.2064378320964066
0.432257891440183 13.537341398791197 180499.25629715266 7.315269409174698 0.20899570654206667
0.4467817816761949 13.478000908933671 155590.03372336825 7.637542589761318 0.2115980685890833
0.4615896313436226 13.424699957865931 134367.5121717297 7.9728758988938715 0.21424502092572734
0.4766722434414668 13.376953743642844 116269.61787419677 8.319152164774865 0.2168962001257362
0.49205278940239494 13.33422440125439 100769.42343350116 8.676683763144094 0.21954756701879216
0.5077045965317616 13.296209216584163 86611.31357030939 9.048797492798998 0.22224690301587066
0.5236359652342515 13.262205860424613 76090.76961135908 9.436096538894539 0.22499722149199253
0.5398486504702744 13.232172548717376 66278.45672747046 9.832924336033265 0.22771839868473967
0.5563335179422494 13.205554479889589 57822.17746045684 10.245919529959476 0.23048945409903057
0.5731015567615406 13.18226284228365 50517.99765278517 10.675816754770407 0.23331121501487465
0.5901381833828695 13.161836454703153 44199.78549411862 11.119322364602546 0.2361329883105871
0.60745365147241 13.14406483358154 38722.46859901003 11.57786438318755 0.23897613834584597
0.6250306114803479 13.128790436242362 33973.955034176695 12.055222790309676 0.24187861798271873
0.6428799233325905 13.115754300441417 29843.539997326105 12.55068919257964 0.24482468472837288
0.6609927633700214 13.104621360805183 26249.19033627193 13.059995932943847 0.24775445033122154
0.6793732366961522 13.095504223683378 22937.426578288392 13.590229127118 0.25074285386478296
0.697996351817718 13.087961367106084 20379.917660764546 14.142291887756189 0.2537914109634089
0.7168938926645221 13.08205510606152 17988.826076946556 14.709667162538562 0.256831077049214
0.7360288057578441 13.07755412024052 15897.271593401629 15.298947900864695 0.2599241338703727
0.7554149709393067 13.074297324878032 14063.451560305895 15.912443677446815 0.26308334341918055
0.775039261552545 13.072095134514367 12454.014650836156 16.546618670630526 0.26626153257623897
0.794902772222564 13.070992640062208 11041.160669909292 17.201819399082275 0.2694592693460716
0.8150015136042473 13.07071977558848 9798.180421687475 17.884019620228564 0.2727286483928406
0.8352922311193433 13.071413895254349 8709.07095612125 18.593180501358397 0.2760621781165525
0.8558523882459816 13.07252325912052 7739.761812099914 19.322203957990617 0.27939165162579266
0.8766050388953112 13.074402167381761 6847.224171491435 20.081203133797235 0.2827922470273263
0.8975572221158632 13.076760441333162 6137.239149556153 20.871426451144092 0.2862651676795349
0.9187192283203867 13.079644118125994 5472.879655839503 21.686641755891817 0.2897533482475566
0.9400717900646651 13.082802018240596 4884.60067342943 22.531766669460577 0.29329536698867104
0.9615863904578228 13.086201679056574 4363.939682584474 23.41162746439308 0.2969206546227814
0.9832866257396671 13.089827588517903 3901.955445218164 24.325693619180342 0.3006160577962031
1.0051683699097522 13.093656234683417 3491.540668930564 25.267468230732142 0.30431407224917684
1.0271913180798322 13.097503241277066 3127.422565478971 26.247997491030674 0.30809809318301934
1.0493606389418335 13.101374387996277 2803.4697224392607 27.26877228007413 0.31197016483745127
1.0716660431012164 13.105193763506415 2515.3368587199734 28.324928928040556 0.3158895934373789
1.094089193355967 13.108849239711907 2258.5239249690962 29.418829313553083 0.3198656539304014
1.1166379293512019 13.11236376853297 2029.6694945955105 30.55762734378164 0.32393121143487336
1.1392863078483884 13.115648885929266 1825.36478293573 31.743167995246512 0.32808595343831254
1.1620326276791038 13.118733562331727 1643.0262521861814 32.96841863508786 0.3322826812652397
1.1848410628310986 13.121414268274215 1480.1038304507508 34.240642796399165 0.3365616702249676
1.2077158089448612 13.12377506718781 1334.4076200479467 35.56520068381324 0.3409460609266273
1.2306466119961428 13.125682588211562 1204.0025738801003 36.94410729465897 0.3454355043027333
1.2536296613173634 13.127167356263996 1087.0707231486147 38.37196964723646 0.3499755538233957
1.2766226105045155 13.128112247429367 982.3572115043479 39.8542753554458 0.35460369344762144
1.2996344043598966 13.128519043650865 888.4063621018274 41.39782912354619 0.3593486054605991
1.3226280767882623 13.128338021854997 804.0511483791963 43.00507738021772 0.3642125055256559
1.3456255292574804 13.127517141499613 728.2409922517039 44.677314627294415 0.3691906512938433
1.3685680385471823 13.126066609650875 660.1447019852901 46.40858758819293 0.37422561523431197
1.391461890632878 13.123806797954174 598.8080181734839 48.212022377127205 0.37939176109224176
1.414294945779998 13.120844199782507 543.622142847935 50.09062924792939 0.3846927797339756
1.4370165404104058 13.11704664340563 493.88324989207604 52.047584362565814 0.3901315842875434
1.4596715759094356 13.112519528183826 449.0225334651371 54.08625864393402 0.3957102391045233
1.482178893729841 13.107126177364512 408.6031459477938 56.20257814664075 0.4013847357917278
1.504597149983096 13.10100388372391 372.0617135802027 58.40629670637074 0.40720428539387393
1.5268013844647805 13.093630593339268 339.0460570980821 60.703514773607466 0.41318390465548027
1.5488622284490519 13.085516019232102 309.21579786146174 63.098461903238025 0.4193268784903153
1.5706991861810653 13.076175868705002 282.2190268381429 65.59563351287565 0.42563429463328284
1.5923430295256642 13.065961841918652 257.78008296211476 68.19986498305515 0.43211041797196287
1.613777072564423 13.054842368609064 235.62952612449544 70.91617765080458 0.43877084308221326
1.6349382958573784 13.042420298306691 215.55145935071695 73.74901828676067 0.44561881881412707
1.655834518727508 13.02905344960074 197.36547405846662 76.70076388175613 0.45264271122640004
1.6764311049702 13.014390393514317 180.827827147614 79.7825905658876 0.4598673847659718
1.6967440240771146 12.998789495832222 165.82699098823326 83.001127240134 0.4673116782139871
1.7167220607353915 12.981891879475695 152.18073939186738 86.36339338446612 0.4749867063548876
1.736336239180045 12.963768633950163 139.76827042699995 89.87686772746801 0.48289764970012367
1.7555928401172987 12.944394644599036 128.4778317365481 93.5495583879003 0.491051834604883
1.7744845399142273 12.924016582094026 118.20507725518891 97.39006699979225 0.49946746320370194
1.792914375601736 12.901975265683859 108.82784947112356 101.40757070034866 0.508161037095667
1.8109308653035363 12.878742988273764 100.28563590452073 105.61189117891327 0.5171402846504387
1.8285078857633996 12.854251590777865 92.49886802262827 110.0135757275474 0.5264172372744262
1.845618696011115 12.82845883628092 85.38399588677007 114.62395631723517 0.5360148735180955
1.8622199556596992 12.801252177985925 78.886610928291 119.45519301021065 0.5459533323964164
1.878354070841427 12.772768716045526 72.9496989216701 124.52031631667201 0.5562413450763326
1.8939289912357469 12.742826633983219 67.51801506545046 129.82880337813 0.5668843874306645
1.9089466553873238 12.71128102070694 62.53835527695378 135.3962169746872 0.5779144167104019
1.9234172627627792 12.678595519015008 57.99387555353105 141.24152557669225 0.5893606399921997
1.9372884587081431 12.64433092146585 53.82041287201511 147.38219603114283 0.601239845167099
1.9505538491380787 12.608579262609416 49.9971837530193 153.83702917308597 0.6135873073332638
1.963194773032768 12.571308793982618 46.484805565748545 160.6263484940684 0.6264351755552885
1.9752014713460952 12.532753833470599 43.26972703228491 167.76239022541355 0.6397671415249326
1.9865304131170483 12.492545164462848 40.313540091297554 175.27097560201238 0.6536343507312895
1.9972185306243655 12.450982781363747 37.596992801824676 183.18344523728112 0.6680967385938371
2.0071746037807157 12.407813837675414 35.09733893266319 191.52740856018795 0.6831788070681994
2.016437177115538 12.363166543790015 32.80107089267789 200.3120644361659 0.6988618518243581
2.0249706880682505 12.316970833485271 30.686099535104464 209.58753144299428 0.7152555621537012
2.0327665642753328 12.269361827005532 28.741838567658444 219.38631542870985 0.7323835157966073
2.0398037957706934 12.220196292903626 26.949555099951432 229.7267706368204 0.7502453647202496
2.0460754149311073 12.16950202318948 25.296369872407983 240.67113135322546 0.7689693823577227
2.051562991259151 12.117390903798935 23.775015492007373 252.24018839934703 0.7885194254895296
2.0562693797146916 12.06381773174365 22.371360657289777 264.49832402777764 0.8090305856451573
2.060145393735638 12.00858516572991 21.07411624500684 277.4753176292144 0.8304915177778237
2.063087329582442 11.952758786258718 19.89903133267904 291.36285070152115 1.0060921989588805
2.0636104190463613 11.898963090531971 18.975099248903543 307.00567729081047 1.362635321255437
