M[M_sun], R[km], Lambda[1], P_c[MeV/fm^3], rho_c[fm^-3]
0.23841724892012095 16.20908015294055 2780876.1263280716 3.453507347168396 0.169602847481901
0.24841638200065083 15.866186713215223 2282199.306396624 3.6355777557763687 0.17197883744012007
0.25869803292476384 15.562860525502558 1881524.6462289735 3.824826272674304 0.17437564607443312
0.26926318620217754 15.293537842454603 1557975.6764749703 4.020362315377051 0.17676765855607807
0.280116854130469 15.053865767272361 1295462.5065875184 4.222508692105807 0.179146696319492
0.29124808300670496 14.839789215211216 1081176.2223270657 4.432635247497446 0.18154954142870994
0.3026697485194096 14.648420517999194 905518.4344651584 4.651089628009463 0.1839800487849201
0.3143733341920478 14.476953621523862 760978.2691369937 4.878239105802808 0.18643986930781684
0.32636169177353497 14.323115584816371 641497.9124227624 5.1114084024477595 0.1888695189480465
0.3386318850627914 14.184849545819942 542427.7308454578 5.3537714758487285 0.1913207530366177
0.3511849794357809 14.060560554986862 459965.1712236832 5.605833799977525 0.1938019648759606
0.36402106426067826 13.948754503384698 391085.6956366232 5.868007968853774 0.19631874959061663
0.37714709082645137 13.848149265587962 333365.31923476764 6.137214808615486 0.19881165171757859
0.3905522741057108 13.75746139521159 284805.2895240519 6.416826201549386 0.2013342270078249
0.4042412958253926 13.675869833222531 243935.61572377983 6.707677875431442 0.203891398333135
0.4182156717471337 13.602405125969023 209382.53221301496 7.009906057998938 0.20647530413324952
0.4324759278245505 13.536472925746958 180100.52042255123 7.320058575346675 0.20903518515349404
0.4470174894512037 13.477151943860786 155223.7836534107 7.642756715436225 0.21163952354889867
0.4618417063017796 13.423841261017959 134037.7884725116 7.9785344494038295 0.21428834422822407
0.47695205902513305 13.376128633887983 115959.89838524711 8.32552061434249 0.21694495859604904
0.49234227683747683 13.333498411129868 100500.92078031768 8.683550373653825 0.21959808600121047
0.508012264721226 13.29544020272876 87251.32879558406 9.056184522628548 0.22229936312041945
0.52396485743889 13.261586009878734 75878.73842880558 9.444028298721244 0.22505161214732064
0.5402023337849852 13.23158444627827 66083.60651507463 9.841754092755025 0.22777894719666852
0.5567090706450571 13.205051870196003 57644.68806875268 10.255359290152741 0.23055183399292972
0.5734932795562245 13.181760558336052 50361.160215532334 10.685893650924275 0.2333753285589658
0.5905653289589534 13.16144072438185 44057.14624028283 11.13047612798403 0.23620395334678693
0.6078867957927171 13.14360770806958 38596.00411420129 11.589730413579005 0.23904910865700355
0.6254973428475858 13.128369570441857 33576.61619240184 12.067834916912222 0.24195361028614334
0.6433692213218571 13.11538395269578 29738.77788464461 12.564585682390424 0.24490731391639714
0.6615053586719918 13.104472148628748 26156.770137326563 13.074726282429696 0.2478389392077452
0.6799098509581678 13.095235164981476 22852.525225816004 13.605831283899567 0.2508292008194021
0.6985590078847295 13.087775635346766 20302.990918317777 14.158807185203072 0.2538798903028823
0.7174794108984823 13.081949016797264 17919.787488818136 14.727768817578989 0.2569280551682278
0.73664856954761 13.077456224025596 15834.49796336771 15.318071470629514 0.26002335665043536
0.7560559494380905 13.074180337340323 14006.901149288138 15.932638219659664 0.26318454904189115
0.7757029952365532 13.072018891240216 12403.838739246194 16.568689880933118 0.26637214318375396
0.7956008934012241 13.071054708416682 10995.543174327922 17.22508662521578 0.2695720477871691
0.8157212363097834 13.07073095926726 9756.714285411941 17.90854200603205 0.27284391998233104
0.8360664458160861 13.071313728135248 8666.56828809749 18.619917830583013 0.2761878614192763
0.8566225880977395 13.072592353283486 7706.339080018388 19.35034750665198 0.2795200125903597
0.8774088349401346 13.07455036161878 6858.54378734626 20.110822871109747 0.28292294723409145
0.8983882674997432 13.076839439199032 6109.548633519426 20.902595605039426 0.2863985356822039
0.91957530969335 13.079748910002321 5447.734178985605 21.720523874454763 0.28989832460764986
0.9409403738001337 13.082828771928042 4861.823580428874 22.56738580261171 0.29344347263789067
0.9624986973145551 13.08632054354167 4343.037415827653 23.449075843721975 0.2970720516076569
0.9842378010610776 13.090029419899686 3882.903284859163 24.36633782841483 0.3007803749399894
1.0061355697781638 13.093810193463254 3474.579760673362 25.310163735784624 0.3044813919003658
1.0281793069915812 13.097682011660252 3111.9549909682046 26.292850764669367 0.308269004002934
1.0503866623207374 13.101548227097382 2789.486971851357 27.31590021121872 0.31214505798567804
1.0727121262985173 13.10533612400181 2502.5344624068607 28.3759727043095 0.31607901840283453
1.09517604552887 13.10912802432924 2246.9629688609584 29.472433253465717 0.3200594990720175
1.117731001517206 13.112518386483002 2019.2666086324223 30.613929432161733 0.3241289991660767
1.1404187508000447 13.115863687465918 1815.8597088014321 31.802314552103418 0.32828854219277376
1.1631716996029549 13.11885941936869 1634.4424214993298 33.03237489709552 0.3325017442191742
1.1860178898565144 13.121546105590452 1472.1495213889625 34.30780665632264 0.3367862329961809
1.2089230566687155 13.123897351142066 1327.1732421856739 35.63575564387674 0.34117646632291637
1.2318863061578076 13.125829188742648 1197.4219543232286 37.01824308263075 0.3456712274087019
1.2548857547773027 13.12726511195317 1081.1240505024984 38.452033874510505 0.35023012707130124
1.2779010487275424 13.128131515875976 976.8909517577648 39.93838167697371 0.35486514763036436
1.3009192091888013 13.12845528608265 883.4278986610982 41.486214582015 0.35961742681328845
1.32394385901652 13.128306355848332 799.5072296367933 43.09799452112641 0.3644891140467347
1.346954424609754 13.12750728397808 724.1399528003932 44.7763129860654 0.36948194581643623
1.3699173494814314 13.125917758904569 656.3414206384568 46.51397388847548 0.37453188586369124
1.3928464796861773 13.12373150626312 595.3274881937272 48.32283987658978 0.3797073935599203
1.415660007600536 13.1206049634182 540.4541675262017 50.20720699812775 0.38501837053259413
1.438425670092624 13.116809554073045 490.98058378737034 52.17027245308966 0.39046761353024256
1.4610759880360507 13.11223121743014 446.39601693848306 54.21542472684435 0.3960565726844182
1.4836212911193025 13.106752774995991 406.1305911202028 56.34177914584228 0.4017579760363196
1.5060091056246725 13.10034483544404 369.8113718569644 58.55286334800872 0.4075902587616227
1.5282494631099799 13.093048449813287 336.98490648302777 60.85790733176652 0.413583423947388
1.5502957576580607 13.084737275239121 307.32259764618715 63.261170594191135 0.4197405285805133
1.5721824961595585 13.075604135274846 280.48887978842265 65.76717675850833 0.4260623265647044
1.5938169023580382 13.065228354637595 256.1858843657058 68.38079972430019 0.4325546884023462
1.615234066321391 13.05389714245119 234.17846434912389 71.10710627055295 0.43923238494869504
1.6364098362167745 13.04151328091988 214.22527412923301 73.95154619669869 0.44610248962091936
1.6573310478811696 13.028180594284017 196.13564426844658 76.91783285642475 0.453159105110276
1.677922531387842 13.013350650788135 179.69743383871284 80.01182916828955 0.4604038424426141
1.698208460310724 12.997545069562836 164.782184667309 83.24333105222308 0.467870416979662
1.7181875567116485 12.980645175154475 151.2301057608849 86.61942221403733 0.47556916586809805
1.737766429891024 12.962259409280348 138.89088130827082 90.14764119028341 0.48350478418143017
1.7570397444887733 12.942917273720578 127.66927603678579 93.83605966220485 0.49168501380872087
1.7758939419421091 12.922300207004266 117.45835713650503 97.69335694886479 0.5001292249864667
1.7943246747481094 12.900271055555438 108.14540114504652 101.72879559005187 0.5088532549143074
1.812332579848976 12.876846279121374 99.64882076620799 105.9522802960134 0.5178642049397562
1.8298889354308865 12.852289309181952 91.90604493682034 110.37444892168526 0.5271749869199204
1.8469682412269754 12.826281395642932 84.8381317329331 115.00674066800336 0.5368094592397167
1.863570784511654 12.799060126802159 78.38247987191555 119.86143178248689 0.5467872219386584
1.8796602270584746 12.770372730222322 72.48069915149372 124.94834993300603 0.5571041775011071
1.8951912924764163 12.740166546377925 67.08301215974471 130.28075363193886 0.5677813641439028
1.910202650160926 12.708713838760822 62.14232491311935 135.87677029881104 0.5788585648759077
1.9246130280513556 12.675629351616722 57.61975325114638 141.75276019250768 0.5903540484322793
1.938482576962588 12.64145587654745 53.480340844826635 147.9263586504966 0.6022865850386623
1.9516804046298402 12.60534321485557 49.6748833810113 154.41655877032682 0.614691635040333
1.9642859249464892 12.568057494254056 46.194733728311554 161.24255235182602 0.6275964341202697
1.9762265467329574 12.529203080686488 42.996472945839855 168.41335338820355 0.6409727006013047
1.9875239270473637 12.48887970936386 40.058579030253455 175.96558329987545 0.6549096940163714
1.998149225753479 12.447088017326893 37.35923338205593 183.92505608302642 0.6694469238970656
2.0080567642429688 12.403755055356488 34.87977114280665 192.3126982764029 0.6845847508063421
2.017261861340937 12.35898395525132 32.59813987811155 201.15060040954296 0.7003496802123083
2.0257544489903294 12.31270984590857 30.499803080029658 210.48458716017714 0.7168348216525364
2.0334708620710744 12.264810945344601 28.56576412276811 220.3379871934333 0.7340314714260621
2.040446382988487 12.215462187253276 26.786147468436432 230.7462855491676 0.7519977500941188
2.046642019679349 12.164624430886219 25.145593857379556 241.7610214025014 0.7708237622615599
2.0520717282816276 12.112289108905264 23.632954167479706 253.40313899778727 0.7904733461388416
2.056677246882009 12.058330054851027 22.2366455494786 265.7450660688042 0.8111080243898253
2.060493952573769 12.00311450120066 20.952081026048937 278.8100377688693 0.8326911963410798
2.06348363070121 11.946262590900037 19.764236609246375 292.67746837704533 0.8553653300056769
2.065655142456641 11.888085949556302 18.668768348759013 307.390180683407 0.8791580409394424
2.066977726644483 11.828351605233095 17.657123631305065 323.02072016537153 0.9041521938127607
2.067458704164616 11.767299062148632 16.723484838523547 339.6460322315007 0.9304665760629847
