M[M_sun], R[km], Lambda[1], P_c[MeV/fm^3], rho_c[fm^-3]
0.23841724892012095 16.20908015294055 2780876.1263280716 3.453507347168396 0.169602847481901
0.24841131735989644 15.866384571663401 2282379.5496758604 3.635498949758653 0.17197783499777008
0.258686078186423 15.563245173878428 1881953.5021779882 3.8246641702968627 0.1743736630594105
0.26924920502575145 15.293817825711269 1558433.8369771922 4.020101157671689 0.1767644637870612
0.28009823687707963 15.054252666127306 1295820.4452755507 4.222151067674933 0.17914251445661464
0.29122479194336326 14.840131949489718 1081562.9088281135 4.432176227861859 0.1815443765306711
0.30264225898962743 14.648826395806347 905917.1144829545 4.650524024962011 0.18397392300775733
0.3143376886981214 14.477446328799523 761349.3867735431 4.877561519739938 0.1864328087867381
0.3263202961949177 14.323576019973144 641872.7713567872 5.110579310927433 0.18886087972348706
0.3385851432112691 14.18534643451183 542776.8553804614 5.352814747393136 0.19131120669292026
0.3511308134285814 14.061062939561195 460267.97745584976 5.604743442629252 0.1937914854031971
0.36396062716848765 13.949275361457259 391369.2063124166 5.866777553101494 0.19630735572689229
0.377078832362492 13.848638201596334 333621.5757843546 6.1357803452109225 0.19879836833712863
0.3904772485310837 13.757918409075073 285068.0799122727 6.415233190048871 0.20132002861927584
0.40415819292717614 13.676296991847149 244163.21379016552 6.705919181629817 0.20387636234583545
0.41812552291534816 13.602908432946377 206985.68848886807 7.007893901842758 0.20645810116455707
0.4323757003557765 13.536853699862387 180292.51267198258 7.317859896555224 0.20901706074883897
0.44691100789365074 13.47755644676924 155389.19870815374 7.64036290895944 0.21162049156588023
0.46172516559253174 13.424214500496495 134190.31085863584 7.97593657419286 0.21426845423459132
0.47682678926529753 13.376522191677214 116094.49574980368 8.322596760061396 0.21692257282371155
0.49220896671140335 13.33379991928232 100618.41567103416 8.680397766664726 0.21957489166146624
0.5078689472963845 13.29573637798288 87361.57261397078 9.052792938638332 0.22227527727606547
0.5238132933935538 13.261864707388069 75974.1868831907 9.440386570807632 0.22502663963528352
0.5400380395791943 13.231799284762467 66172.99828789379 9.837699980339757 0.22775114683005912
0.5565361268812283 13.205356139219397 57728.627789640144 10.251025048487675 0.23052319242474742
0.5733086280316367 13.181970718214352 50435.083491141326 10.68126681640689 0.23334589064928576
0.5903593726471343 13.161501618053297 44122.61125380998 11.125354737033295 0.23617136885653175
0.6076948526544448 13.143954844598557 38657.28307360083 11.584281914409521 0.23901560303914962
0.6252822720429594 13.128596400308938 33910.71584771035 12.062043769402317 0.24191917584816744
0.6431496492539965 13.115565971064795 29789.98827468476 12.558204649957162 0.24486937199466755
0.6612727673279676 13.1045797242286 26198.916874971037 13.06796228105197 0.24780014292000216
0.6796636010809171 13.095339890514753 23068.53458044657 13.598666880846165 0.25078955089189614
0.6982969651729524 13.087890234152644 20339.137774416853 14.151223392338354 0.2538392607601489
0.7172129552320208 13.081985816769226 17950.90600649138 14.719456385949824 0.2568835220036068
0.7363677454701589 13.077500178555791 15748.929439548452 15.30928967321185 0.2599777922310072
0.7557627242942729 13.074195202785644 14032.387147148367 15.92336451892427 0.263138073580954
0.7753968611447789 13.072092065969098 12427.138307146364 16.5585541474374 0.2663213476168502
0.7952758458055829 13.07094575571149 11016.279164302428 17.214401534509033 0.2695202561440236
0.8153914393535036 13.070775977694908 9775.932836679865 17.897280385849697 0.27279098284688835
0.8357242357654224 13.071293512997174 8683.468664315364 18.607638734777943 0.2761301414689298
0.856268284404635 13.072512727993859 7721.195924786829 19.33742247051146 0.27946106230921275
0.8770427043710156 13.074483947548437 6872.165596394233 20.097219747372964 0.2828629220196106
0.8980114053711675 13.076768800635536 6122.118419141071 20.888280748885673 0.2863372846203326
0.9191827345695618 13.079707120976842 5459.075253037851 21.704962677824522 0.289831740647088
0.940546295813182 13.08289109437608 4872.5109514940705 22.551026668259155 0.29337545076313937
0.9620830945593299 13.08620313947338 4352.378059763659 23.431876393379124 0.29700251735891
0.9838048211831109 13.089958380392272 3891.686214396098 24.34767012268087 0.30070490480180684
1.0056914633256122 13.093767971696336 3482.41177571015 25.29055367173702 0.30440454191177324
1.0277256727732016 13.09760074491728 3119.1406290987825 26.272249417910803 0.30819050375579005
1.0499093144629443 13.101404731131609 2795.898459720799 27.294253870315593 0.31206472777350464
1.0722288480616287 13.105229679975404 2508.3276782527505 28.352527180637534 0.315992011370121
1.0946661433394076 13.108909992875319 2252.349730853354 29.447811523094455 0.3199704607882937
1.117231603543765 13.11247633360502 2024.0156374703222 30.588068086091504 0.3240381489487532
1.1399009134728464 13.115822557097406 1820.2748081519808 31.77514635001391 0.32819548568171464
1.1626483178624383 13.118838227502614 1638.4098521896217 33.00299665149002 0.332401117868263
1.1854769587175003 13.121471624452628 1475.8685500062759 34.27695465546816 0.3366830791450286
1.208370442788551 13.12387741741605 1330.5575544268286 35.60334555495115 0.3410706274226329
1.231319129568479 13.125754106500395 1200.3770941314408 36.98418771025279 0.3455629445082098
1.2543042815943133 13.127213311847093 1083.8726182414514 38.41525419280842 0.35011318192180535
1.2773183600463562 13.128164004926752 979.3828086409412 39.899744689998755 0.35474504010848407
1.3003204427284434 13.128465070353425 885.7288481231848 41.44561134158001 0.3594939334445104
1.323342245989549 13.128288876178061 801.6061950106792 43.05530895136505 0.3643620417734423
1.3463520179989616 13.127572662383047 726.0092235365028 44.73142420636261 0.36935149133824713
1.3693005084383394 13.125956412526689 658.0645418400954 46.46555809451684 0.37439118127829585
1.3922202299677335 13.12383814580175 596.9470295966643 48.27192826280252 0.3795623861525063
1.4150217828408265 13.120654992877746 541.9096612008899 50.1536483099955 0.38486878610492875
1.43778221850559 13.116969787597078 492.2989879681544 52.11390576198213 0.390313231336784
1.460437031349126 13.112404635303992 447.5925057396079 54.15608102743351 0.3958974541650819
1.482966966164182 13.106975294112264 407.2640792519115 56.277823155451564 0.4015864905611185
1.5053416801630057 13.100536158702896 370.8404602949462 58.48552224764648 0.40741292051463657
1.5275903908027442 13.093356774426328 337.9296018840025 60.78696952085126 0.4133998592450197
1.5496207682352492 13.08499328978717 308.19992936611203 63.18641070135907 0.4195504684415494
1.5715032295456957 13.075838836425858 281.26951852621715 65.68835643946011 0.42586565537970356
1.5931541436401302 13.065633823978551 256.9158340348936 68.297662919089 0.432350552789817
1.6145715545960502 13.054357518810548 234.8453471169137 71.01937601921396 0.43902030996484365
1.6357445146484106 13.041922605564878 214.82389283775228 73.85892702943447 0.44588215425711186
1.6566093984391295 13.028498445190495 196.7532682558993 76.81808651788785 0.45292181463964054
1.677232352982409 13.013851174193505 180.2196085435878 79.90648890757016 0.4601573281516949
1.697535189111688 12.998077267225304 165.24546436063844 83.13203103696175 0.46761365952976747
1.7174935843225312 12.981173321092848 151.67010269171817 86.5017670672146 0.47530150320034364
1.737120625362767 12.962980950193227 139.29550654110759 90.0232080202565 0.4832257772678424
1.7563787759437615 12.9435857265494 128.03290992938028 93.70439633445042 0.49139403262113435
1.7752159452291978 12.922919087178986 117.80022803547449 97.55397558885312 0.49982510261918234
1.7936907884692912 12.901148287912829 108.46383058340862 101.58116903122257 0.5085351297073204
1.8116858869199737 12.877713560591285 99.94286460640657 105.79584317280197 0.5175315033291407
1.8292612047512928 12.853202623765243 92.17512283549424 110.20859419812625 0.5268267306348267
1.846355024047749 12.827284600841947 85.08342623599778 114.83081196828931 0.5364442655411351
1.8629486791840342 12.800080781283352 78.61906392521229 119.67471926802729 0.5464039556828523
1.8790489892483817 12.77143308869969 72.69279643905223 124.75288665411179 0.5567122068311001
1.8946160507780632 12.741352057787928 67.28050653169248 130.0730247752146 0.5673690887981563
1.9096156811126404 12.709835750247958 62.32472643806962 135.65588942223016 0.5784245978966982
1.9240610225183519 12.676933504083577 57.78889560514394 141.51777127616162 0.589897428388171
1.9379096322800322 12.642602146456687 53.63208907290395 147.67622812784728 0.6018054391792445
1.9511556805958772 12.606845764117722 49.8256256872248 154.15016458468972 0.6141840052633522
1.963794856102875 12.569666040025615 46.32794818090418 160.96001577819874 0.6270651707422118
1.9757679874276626 12.530921412742954 43.12405900361706 168.11411073624743 0.6404185145647905
1.987072481886495 12.490526234297413 40.17242465558328 175.64626874218473 0.6543234124674733
1.9977184352366157 12.448860412586116 37.46747494137045 183.58412425269395 0.6688262194543534
2.0076554389952697 12.405625760748734 34.97915668041874 191.9521286863342 0.6839398702872033
2.0168826700830387 12.360885659314963 32.69058141785188 200.76509186885139 0.6996656659674235
2.025399384530815 12.314694610572275 30.585556532856952 210.07216207821628 0.7161087505559829
2.033140377971038 12.26687972027353 28.647535662131208 219.90044296967898 0.7332738010890831
2.0401483914823006 12.21759751501669 26.860759686514616 230.2775343301134 0.7511920406627945
2.0463894310068826 12.166938047001024 25.216178094070678 241.2615238615332 0.7699767064729656
2.0518417657840207 12.114646237331922 23.698408793414853 252.86840846474186 0.7895749235990224
2.056495027257932 12.060870192004762 22.298984387676082 265.17272445641703 0.8101558042427018
2.0603354109442606 12.005619361781276 21.007305491320164 278.19781810581986 0.8316847244613986
2.063377035679848 11.948995265241685 19.817656960005937 292.0237010790369 0.8543047335723194
2.0655689962374995 11.89079717308116 18.717450570308916 306.686691366829 0.8780245119442192
2.0669395938775557 11.831207740978488 17.70261154235396 322.2679097348572 0.9029555912265549
2.0674697421014256 11.770199503058452 16.76538841453395 338.83826275006686 0.9291969780414097
