M[M_sun], R[km], Lambda[1], P_c[MeV/fm^3], rho_c[fm^-3]
0.23841724892012095 16.20908015294055 2780876.1263280716 3.453507347168396 0.169602847481901
0.24841566173016125 15.866158133935103 2282257.8119195993 3.6355618944907513 0.17197863567856825
0.2586947895579 15.563030932084798 1881629.7840814048 3.8247936459413685 0.17437524694826007
0.26926101679577374 15.293571765948135 1558033.0567197313 4.020309750872836 0.17676701552910237
0.2801143174348188 15.05387084298203 1295435.0626312667 4.22243671043218 0.17914585460549595
0.2912444837745506 14.839805681199673 1060509.6314779248 4.432542856234379 0.18154850184038643
0.302666005167398 14.648452468120826 905537.5859277297 4.650975782443308 0.18397881577782726
0.3143670165340934 14.477034172292413 761038.2328975428 4.878102718653129 0.18643844813876106
0.32635193423886777 14.323266526922477 641603.22228889 5.111241517520688 0.1888677799888059
0.3386229691807857 14.184963720007426 542539.4190878952 5.35357889734788 0.19131883146676462
0.35117393984009876 14.060668022872877 460033.73761242203 5.605614321309941 0.19379985545676628
0.36400864436483804 13.948882705365914 391141.37832976715 5.8677602953293215 0.19631645609073214
0.37713373417389595 13.84821709335994 333398.3400354278 6.1369260579753915 0.19880897783646365
0.390537828887012 13.757548748147991 284860.3350005413 6.416505532885914 0.20133136891277786
0.40422475916354444 13.675969407941798 243989.45993601647 6.7073238521121334 0.20388837160379306
0.4181983946452483 13.602588422905898 209432.10146284138 7.009501007437341 0.20647184114549452
0.432454469964498 13.536490357442737 180135.22134531068 7.319615973457451 0.20903153664613927
0.44699532389137886 13.47720652597671 155250.5404543496 7.642274829389181 0.21163569230892457
0.4618194525386029 13.423964560611147 134073.35263024762 7.9780114787025465 0.2142843402314675
0.47692489774010066 13.376241407427655 115992.06518116673 8.324932013547343 0.2169404521185946
0.492315683967071 13.333563095157658 100526.90940059318 8.682915717316884 0.21959341671171428
0.50798411946201 13.29549077196475 87275.02654979414 9.055501751798811 0.22229451432057196
0.5239357719855247 13.261671273056024 75892.62814241071 9.443295164634424 0.2250465848085841
0.540168497107159 13.231606918370254 66101.12835930614 9.840937927920034 0.2277733504891029
0.5566730198956533 13.205086498698023 57663.45728702479 10.254486723361897 0.23054606789053747
0.5734598766168281 13.18183310334366 50375.06022780579 10.684962172222644 0.23336940209114326
0.5905238414583719 13.161442875743385 43675.42035350334 11.129445069716258 0.23619739331096815
0.6078498393957609 13.143731654936353 38608.442646580996 11.5886334921761 0.23904236312429844
0.6254543300669453 13.128421656873947 33867.37507066003 12.066669002818577 0.24194667770560138
0.6433241346314195 13.115349818221983 29747.864270889495 12.563300989444626 0.24489967507116234
0.6614602329017065 13.104460940852153 26164.077401690116 13.073364476165915 0.24783112829454315
0.6798602727156268 13.095244462490516 23037.587919566504 13.60438885351816 0.25082121798264245
0.6985061815481879 13.087740992878924 20310.1950802494 14.157280306655839 0.2538717101774108
0.717424956260634 13.081943131671945 17927.383429521426 14.726095213524255 0.256919088972991
0.7365907610458993 13.077411209071265 15839.78404673883 15.316303352819036 0.2600141827583853
0.7559957969948106 13.07419321167936 13914.486362350417 15.930771049104292 0.2631751916542974
0.7756430710715633 13.07201016356581 12407.9980073877 16.566649116601155 0.26636191582515156
0.7955315245353849 13.070956257993517 10926.242921553465 17.222935236020717 0.26956161980068627
0.81565508943902 13.070785927028664 9760.896949227432 17.90627451941452 0.27283326128098584
0.8359977227456484 13.071348453302267 8670.23866986041 18.617445439512828 0.27617623953016707
0.8565507181411169 13.072601628907046 7709.36975222648 19.347745037286085 0.2795081428904124
0.8773374554568564 13.074484574695198 6860.601333624913 20.108083848703636 0.2829108610095906
0.8983104020916678 13.076851148712615 6112.284084679567 20.899713253179396 0.28638620254310576
0.9194960436814498 13.079742884478994 5450.16658913347 21.717390515943144 0.2898849174497994
0.9408586597267248 13.082788086104113 4863.83998624872 22.56409175026567 0.293429775848606
0.9624144933846746 13.08628802115549 4344.9403048082895 23.44561256182736 0.2970580501890103
0.9841537899092951 13.090030059081224 3884.6877932029934 24.36257883560829 0.30076517801592273
1.0060427974763935 13.093790433646058 3476.2291276579344 25.306214958203842 0.304465917014037
1.0280896134378987 13.097643087811806 3113.4307335397853 26.288702347736287 0.308253196698765
1.0502914935518606 13.101532517886248 2790.7222974883193 27.311541336019157 0.31212888207071926
1.072615082127464 13.10532299161542 2503.623409650281 28.37125145044896 0.3160614976899326
1.0950675831237238 13.108992549091854 2248.017044115417 29.4674751088878 0.32004156919150073
1.117629290249691 13.112523013655386 2020.2206843795457 30.608721624081568 0.32411070427552546
1.1403117679232428 13.115854450761471 1816.7233187822646 31.796843535837816 0.3282698028708287
1.1630722816587773 13.11886105703158 1635.188642431179 33.026458726845064 0.3324814801560417
1.1859079953961646 13.121564624792327 1472.9850066765528 34.301593654711965 0.3367654597877793
1.2088101493452135 13.123879189556268 1327.8377410275996 35.62922882238571 0.34115515223116727
1.2317726097714212 13.12580927666921 1197.9552747675382 37.01138487588768 0.34564942096623896
1.254770605675648 13.127255726939893 1081.6526482594518 38.444626899874656 0.35020657575938074
1.277785896321924 13.128209384465265 977.4308632452675 39.93060060121051 0.35484095926060133
1.3008003920767377 13.128491727618918 883.8788073435138 41.4780374566265 0.3595925563657496
1.3238143358177261 13.128278287830915 799.9547464945192 43.0893979613623 0.36446352262560977
1.3468391113770217 13.127484620461928 724.4628921841377 44.76727263889465 0.3694556730199687
1.3697904854455967 13.125913665618775 656.6936722430548 46.50422303485397 0.37450354821384835
1.3927095685905095 13.123638408035621 595.6508230609682 48.312586279394566 0.37967818907325523
1.4155398688457843 13.120608601573025 540.7172695127967 50.196420183481436 0.38498824396393705
1.438298220946426 13.116871859805226 491.2579738093462 52.15891999753886 0.39043652039785115
1.460950562067061 13.112315459184941 446.6532417401474 54.20347257917149 0.39602452533887894
1.4834889199836978 13.106801212627456 406.3542826856116 56.32889780088889 0.40172343723007065
1.5058723509719043 13.100358665522618 370.0139981674822 58.53930007843675 0.4075545408057777
1.5281115663828924 13.093104735953812 337.18504150404755 60.84361950180058 0.4135464515454863
1.550171018313767 13.084826684981842 307.49312635392573 63.24611279259881 0.41970224752158297
1.5720251447178244 13.075554373969986 280.6460380300972 65.75130095929136 0.4260227135273234
1.5936852877067442 13.065327124643813 256.33741525985675 68.36405433089264 0.43251357146103947
1.6151140182574923 13.053992857868517 234.3047858800867 71.08943547396251 0.4391896683960309
1.6362721685842128 13.041585734616252 214.34996142434096 73.93289045702625 0.4460581087512868
1.6571795400917182 13.028182890092431 196.24491741592612 76.89774110144917 0.453111308047607
1.6777978262952549 13.013533344279669 179.80146354300328 79.99061039172722 0.4603541868634204
1.6980738415261565 12.997662288916047 164.8809474082101 83.22091153070842 0.46781869749733807
1.7180397839249357 12.980651528858278 151.30301567375912 86.59572226869844 0.47551524905471293
1.737667467083382 12.962598065333026 138.9760990480114 90.12257559564316 0.4834485815290642
1.7569116353214353 12.943085382537065 127.73937350640698 93.80953729764921 0.49162639832886307
1.7757834326788193 12.92253124437165 117.52026702434642 97.66527948889707 0.5000679615320708
1.7942042092965045 12.900455711061564 108.20831919964576 101.69905678803278 0.5087891698159153
1.812204609862558 12.877059648795916 99.70994446192053 105.9207662041377 0.517797182554603
1.829771950372272 12.852561763065784 91.96194729417985 110.34103719095609 0.5271048300683541
1.8468495212627565 12.826559938995254 84.89152383599188 114.9589869459627 0.5366918892633016
1.8610944526962772 12.800727573254692 79.16499432267437 120.13536645749588 1.0664093064911722
