M[M_sun], R[km], Lambda[1], P_c[MeV/fm^3], rho_c[fm^-3]
0.23841724892012095 16.20908015294055 2780876.1263280716 3.453507347168396 0.169602847481901
0.24842663985092112 15.865922706801657 2281790.7376791826 3.635783964483418 0.17198146049286245
0.25872055593680815 15.562256184933217 1880666.7119835592 3.825250462792591 0.17438083523569212
0.26929977846597064 15.292683605179313 1557116.8262574347 4.021045753221261 0.17677601912137939
0.2801679975169969 15.052746653574143 1294346.3041604562 4.223444628090018 0.17915764063875567
0.291313774859578 14.838683923889654 1059368.38845831 4.433836605173887 0.1815630591291
0.3027499884413296 14.647140013780938 904388.9231087686 4.652570011623806 0.1839960821146161
0.31446689906466996 14.475664109190282 759871.6475962634 4.880012673877263 0.18645835008164097
0.32646998913533254 14.32181355590775 640534.9779409417 5.113578660936225 0.1888921332794854
0.33875888950214317 14.183502115823437 541495.4069365088 5.356275957921181 0.19134574303927518
0.3513273519330201 14.059217843637446 459107.29506885516 5.608688219421278 0.19382939882764985
0.36418034925679876 13.947547611425527 390342.078528357 5.871229186199715 0.19634857862311897
0.3773263048973488 13.846815256865334 332631.49235435243 6.140970447275073 0.19884642958433293
0.3907513586080379 13.756227027467215 284181.967524378 6.42099712228108 0.20137140210237814
0.40445953127853007 13.674697849859205 243351.29755112567 6.712282789115792 0.20393076813338637
0.4184536421295311 13.601284905602894 208853.09833406413 7.015174955595341 0.20652035067703606
0.4327394311686476 13.535438443667267 179620.58502836188 7.325816123992012 0.2090826464479201
0.4472966265690371 13.475949064403471 154780.0927697811 7.649025484198184 0.21168936345942663
0.4621469461791477 13.42278845840141 133639.55799598162 7.985337888891047 0.21434043309204248
0.4772792791038396 13.375320644713222 115608.77456163206 8.333178226333898 0.21700358722189989
0.4926921565943015 13.332556467467795 100178.44770690512 8.69180740773714 0.21965883459894897
0.5083883350897257 13.294634724009995 86966.25574648431 9.065067797608744 0.22236244903518487
0.5243648512655954 13.26077430452977 75614.73759567372 9.45356710527366 0.22511702284441296
0.5406190587648776 13.23083003846228 65854.95281617895 9.852373745254006 0.2278517696057424
0.557157291044046 13.204403956213653 57433.77104349964 10.26671314509519 0.23062686262206392
0.5739705016223308 13.181127970633636 50171.14130169683 10.698014404217972 0.2334524460005716
0.5910616714338126 13.160802879196476 43884.34051503743 11.143893337266167 0.23628931939857067
0.6084206003196518 13.14308229145985 38442.46756844561 11.604005090762099 0.2391368909735291
0.6260562921955489 13.127943629101209 33719.35151790855 12.083007831095514 0.2420438291540732
0.6439556345944835 13.1149325002947 29613.10720826042 12.58130523325041 0.2450067291594191
0.6621263910058749 13.103992468037502 26040.723874492585 13.092449888159296 0.2479405965063368
0.6805568586570842 13.095050892967022 22929.138071561894 13.624604684710246 0.25093309837731925
0.6992369743990686 13.087547517442452 20212.760590705355 14.178680202619672 0.25398635834925076
0.7181897001755377 13.08168977387733 17836.46763534695 14.749552703501388 0.25704476053449665
0.7373760262934443 13.077236181571593 15760.425163119991 15.34108615178774 0.26014276849011053
0.7568243995157771 13.074102555933973 13939.633266586516 15.95694283784975 0.2633063524476205
0.7765026630479384 13.071961678934066 12343.18366285767 16.595255597687768 0.2665052781604506
0.7964211888370242 13.070860048684212 10940.380382451973 17.253093110263997 0.2697077978635312
0.8165860100496494 13.07080172842704 9707.248308548667 17.93806057219273 0.27298267695598305
0.8369604678693483 13.071349434029669 8621.705894547611 18.651195405415073 0.27633122360096557
0.8575560537906048 13.072677368410043 7665.59139163066 19.384229697331435 0.27967454714211754
0.8783629355691999 13.074573722961105 6822.040770199309 20.146483771819256 0.2830803047098512
0.8993869900507793 13.077057821525546 6076.548337107096 20.940123531350398 0.28655911189140126
0.9206001738434522 13.079905267952173 5417.943501721863 21.76132223442413 0.29007289449811136
0.9420044535101155 13.083049060707117 4834.71795873083 22.61027757471695 0.29362181818400135
0.9635962204304183 13.086564481149603 4318.571420510745 23.494172285666092 0.2972543683183211
0.9853576904133681 13.090160723030387 3860.620340575761 24.414322719567817 0.300970675580933
1.0072906298724786 13.093991312651402 3454.464890655841 25.361586307934427 0.3046829121031312
1.0293742998998872 13.097869078297988 3093.563079083708 26.34687449467693 0.30847485831949545
1.0516110980651092 13.101753682385425 2772.7055005553407 27.37266614014428 0.3123557180291107
1.0739735402972814 13.105577784437997 2487.4534290431066 28.437461653770434 0.31630720571535176
1.0964678933490992 13.109260767964212 2233.167596549816 29.53700911561355 0.32029302140570093
1.1190657709307608 13.112749698718538 2006.519910217519 30.68175874381311 0.32436728172444357
1.141768498409976 13.116067445405923 1804.4848484829379 31.873573920722283 0.3285326197435113
1.1645606552938217 13.1190195652854 1624.0246635191454 33.10943717275054 0.33276569788394406
1.187431498492611 13.121718303344108 1462.7934605026426 34.38873755892261 0.33705682595771325
1.2103713150177247 13.124070851152792 1318.583093710359 35.720776720412246 0.3414541124985283
1.2333619498365385 13.125979181297513 1189.5936382506823 37.107583412020965 0.34595529507033024
1.256391002488449 13.127444606884891 1074.0540139637708 38.548529123502504 0.3505369446074184
1.2794214148567393 13.128199309729297 970.429474909737 40.039753461636245 0.355180273492852
1.3024777501343296 13.128519050265355 877.465980825266 41.59274919261454 0.3599414481922092
1.325541094419935 13.128355875414618 794.086889313132 43.20999699692868 0.3648225384169407
1.348551621858432 13.127347797333666 719.1641274764447 44.89410101132776 0.36982425798162016
1.3715470869683646 13.125782253060828 651.7834046829497 46.64102775714375 0.3749011261560041
1.3944808700390727 13.12351162731465 591.2044942583118 48.45644865000125 0.38008794055890405
1.4173294314577272 13.120342311314824 536.64673228213 50.347768281166395 0.38541094510468477
1.4401167345260655 13.116521334723231 487.50245527090016 52.31820931024069 0.39087279637939687
1.4627896870056671 13.111862921473378 443.1987478301036 54.371181484589364 0.39647420395639926
1.4853309587317094 13.106295833238534 403.2332155192741 56.50965673526992 0.4022081069470089
1.5077380584553977 13.099812724756243 367.14536958446377 58.72963424511533 0.4080557729994717
1.5299722577947787 13.092360072951909 334.56555829071146 61.04412799449115 0.4140653043449762
1.5520475344755433 13.084029508721382 305.0744629691465 63.45743373910894 0.4202394832898299
1.5739302561629411 13.074727522858087 278.4283602470743 65.97410926680247 0.42657866121182136
1.595589034436314 13.064379169098954 254.29580972087302 68.59907512479705 0.43309064576163236
1.6170070102890104 13.052930452461714 232.44646626785865 71.33745312774597 0.43978921460863396
1.6381845706055735 13.040389455920538 212.62987241280533 74.19474183008437 0.446681037236291
1.6590930287703103 13.026882050517152 194.66256935786086 77.17682399885999 0.4537694437395783
1.679698264797668 13.012046903652724 178.3448576388067 80.28846878550563 0.46105122662993675
1.699992235766834 12.99612057945546 163.52873837988915 83.53563766349826 0.4685447376428001
1.7199404300365875 12.978999500579938 150.0739060834967 86.92843637341026 0.476272165749576
1.7395283472805334 12.960609177191433 137.82920479366504 90.47447596467053 0.48423762062395753
1.758801364639218 12.94127225943235 126.70172882155266 94.18190519419144 0.4924493461808044
1.7776091438280046 12.920233210007593 116.55592410682723 98.05949757984685 0.5009281234578544
1.7960304684078099 12.89814831933149 107.3174206644644 102.11661923408481 0.5096889885249181
1.8140094295797249 12.874613533963467 98.88746446648157 106.3632755808829 0.5187382864264547
1.8315544679165463 12.849970600830403 91.20962257606436 110.8102143514805 0.5280899928148161
1.8485984692093007 12.823707373134068 84.18746258305782 115.46900484968762 0.5377690296026274
1.865167561221711 12.796345941363239 77.78607661713326 120.34791031076988 0.5477788950326377
1.8812246325389586 12.767426657389187 71.92621486752395 125.46199202644826 0.558134205425786
1.8967159234610764 12.73700045772619 66.56181385766007 130.82666644103455 0.5688648264787296
1.9116736660821159 12.705387248464234 61.669883421594506 136.45728923746265 0.5799991165347036
1.9260536299289504 12.672208036775155 57.18083532330679 142.37040426317478 0.591554227007408
1.9398398465112465 12.637634004289453 53.06968526375723 148.58385149002842 0.6035513245594007
1.9530325056305855 12.601486545623377 49.29606873057789 155.11685754940777 0.6160260955211226
1.965579909398951 12.564088054525916 45.84542086450533 161.9802082974351 0.6289750570051631
1.9774707321994227 12.524939282049859 42.668418928060305 169.20010463630106 0.6424297340591212
1.9887212519720316 12.484457534348223 39.75420868397705 176.8051781395129 0.6564512427844247
1.9992575138672066 12.442414361105929 37.07926218010422 184.82156916828137 0.6710791260133206
2.0091006952617083 12.398891646205831 34.61896306345381 193.26090328254037 0.6862806202125541
2.01824006553909 12.353797115452286 32.352335701651874 202.1644820200276 0.7021486272938801
2.0266521433507547 12.307364686412793 30.27292324925658 211.56936154715538 0.7187445583856219
2.0343041895593736 12.259317009304297 28.35605119843832 221.48890525591395 0.7360244504871329
2.041200030820582 12.209719992213918 26.58936240200174 231.97941357521276 0.7541173027272186
2.047326004008572 12.158668739130487 24.963740105635683 243.072288619376 0.773042511176895
2.052650126054678 12.106075123354792 23.464397120082793 254.81008499688383 0.7928372133949303
2.0571749490268334 12.051967313616407 22.08114578160533 267.24442646710025 0.8135920700986607
2.0608934025102665 11.996371795441165 20.803859662107172 280.4211724748664 0.835339856411695
2.0637972532511832 11.939295830583458 19.626079431223758 294.3980884208743 0.85815666491522
2.065860594381116 11.880863384280675 18.54138455997147 309.24187735856754 0.8821416709991893
2.0670879251785483 11.820969019317383 17.53900599689446 325.00242220850936 0.9073021366055141
2.06746977811315 11.7596865013843 16.613095631708095 341.7695592351855 0.9337987498634049
