M[M_sun], R[km], Lambda[1], P_c[MeV/fm^3], rho_c[fm^-3]
0.23841724892012095 16.20908015294055 2780876.1263280716 3.453507347168396 0.169602847481901
0.2484324917953936 15.865692125178626 2281346.8514451203 3.6358694569289196 0.1719825479891027
0.2587307217174183 15.561867480896218 1880387.2260122695 3.8254263383089464 0.17438298673893687
0.2693148722517951 15.29230513818137 1556725.8497291238 4.0213291333965815 0.17677948574015231
0.2801886850017996 15.052360057198895 1293864.6642837713 4.223832724751172 0.17916217882708957
0.2913370444583074 14.83821799215098 1079649.3661371937 4.43433478794714 0.18156866469154023
0.302782072697552 14.646564064445554 903941.8429998897 4.653183932802651 0.184002731202442
0.31450715061896456 14.475068704125832 759458.601953849 4.880748216032295 0.18646601451155545
0.32651569896520793 14.321246299851559 640151.9208302931 5.114478774614394 0.18890151256271778
0.3388101319244034 14.18305076264121 541138.7273330156 5.357314740233485 0.19135610812554613
0.35138829241256325 14.058788105975525 458761.2960459576 5.609872199983865 0.1938407781172725
0.3642460168441289 13.946964047829248 389997.83589000866 5.872565370830685 0.19636095192504366
0.3774004733555273 13.846249902438029 332323.4828923855 6.142528409917452 0.19886085658919042
0.39083262709317357 13.755703191457652 283913.2177291671 6.422727433850443 0.20138682423584348
0.40455033682247904 13.67418012290687 243102.98178180322 6.714193225296167 0.20394710144514203
0.41855233087539684 13.60085107985105 208622.19678226547 7.017360996292943 0.20653904027504058
0.43284214687402756 13.534849004052068 179409.4371103726 7.328205003643651 0.20910233873842063
0.44741274101631395 13.475553956903546 154599.0249960793 7.651626582095838 0.21171004351501907
0.4622714066221486 13.422400437005948 133481.16658248947 7.98816095080487 0.21436204717237
0.47741301724667323 13.374839803496796 115462.0454914338 8.336355929081037 0.21702791652268402
0.4928362747212606 13.332213826036666 100048.99943164189 8.695233988651827 0.21968404461788604
0.5085434352365829 13.294281218649928 85967.63930325754 9.06875440330598 0.22238863002061063
0.5245334934977619 13.260460327365989 75503.62927848402 9.457525909452237 0.2251441696514637
0.5407956620400551 13.230573209300173 65757.59104795485 9.856781413660963 0.22788199442070922
0.5573449575507174 13.204172622565338 57351.002216485795 10.271425717331438 0.23065800427715585
0.5741712398377812 13.180905289315792 50092.5478871753 10.703045470983055 0.23348445580953892
0.5912711646335527 13.160597581700662 43815.491166115826 11.149462910972604 0.2363247554201337
0.6086413708041061 13.142945403033215 38378.47937562629 11.609930816638434 0.2391733313033417
0.6262868265584911 13.127718588014963 33660.97002797135 12.089306656699806 0.2420812822700957
0.6441977970946579 13.114776649131915 29561.97421409175 12.588246602683535 0.24504800287154677
0.6623824111463982 13.10389585259304 25790.507899095763 13.099808361473903 0.24798280250721122
0.6808259537023283 13.094914147426238 22887.468716485382 13.632399278449912 0.25097623596664975
0.6995201182750614 13.08748512093846 20174.92690738809 14.186931630234746 0.25403056468991414
0.7184869530685588 13.081643702450606 17802.281601630788 14.758598175987924 0.2570932209048537
0.7376888880335047 13.077280983967203 15730.050422217197 15.350643017507128 0.2601923543570289
0.7571442122390859 13.074009768634971 13911.799047637996 15.96703568828645 0.26335693310464187
0.7768361728648308 13.07194835179491 12318.234069094982 16.606288198970255 0.26656056841021925
0.7967685632245222 13.07087077175371 10917.862652838332 17.264724439842226 0.26976417601579555
0.8169488662819305 13.070851012126269 9686.983870669766 17.95032028607423 0.27304030579834543
0.8373342244068952 13.071360807307336 8603.279343317014 18.664115631517625 0.2763901519438303
0.8579410459634459 13.07266181954368 7648.614677065429 19.398303224731684 0.27973873562004165
0.8787588227219184 13.074615822644912 6806.451060871169 20.161296602659785 0.28314566788418344
0.8997966359939898 13.077057705426078 6062.8261298063735 20.955712399062275 0.2866258142522541
0.921029036190634 13.079875259768134 5405.180333613841 21.778270903646142 0.29014541523991993
0.942451833502713 13.083159319601487 4823.7855090512 22.628096486391456 0.29369590986587196
0.964056464678045 13.08666544211324 4308.361144960762 23.512907723026377 0.2973301122831469
0.9858198873775931 13.090218146530521 3851.540425352348 24.43402224208831 0.3010478761488304
1.007773353971546 13.094068425071415 3445.956255475155 25.382952323528926 0.304766643499965
1.029876980916781 13.097982999910514 3085.8920682771777 26.369322037966537 0.3085603933923555
1.0521151655437695 13.101814779997966 2765.8431253393383 27.39625389695881 0.31244325289322866
1.0744940911834717 13.105648902970055 2481.1451056703677 28.463013991900198 0.31640203119891397
1.0970009379954606 13.109359584692267 2227.4725740140916 29.563845168361738 0.3203900672283376
1.1196208942842019 13.112875184192411 2001.4463832232868 30.70994781870175 0.3244663091908726
1.1423370611815655 13.116147808156358 1799.7146155244968 31.903189519818362 0.32863405907746973
1.165139628243029 13.119143336195947 1619.7113475019182 33.14146711145319 0.3328754068126132
1.1880226131912908 13.121758929516732 1452.134310062372 34.42237663797374 0.3371692984216454
1.2109586376248438 13.124062508727267 1315.091234446538 35.7561171647463 0.3415695208138968
1.2339635852804813 13.125964435856698 1186.3578131619936 37.14472058698275 0.3460733769099975
1.2569962309776348 13.127318715337672 1071.0011629004846 38.588643878656676 0.3506644939994032
1.2800519377738029 13.128180064762617 967.703392279291 40.081897054827444 0.355311281703834
1.3031167159997818 13.128541343288001 875.0581080403202 41.637040832871165 0.3600761597030491
1.3261837968958434 13.128246268136694 791.836097790294 43.256563708364574 0.3649611646064232
1.3492132870994462 13.127310217918664 717.1115439524253 44.94307509153459 0.3699665850424241
1.3722165478206405 13.125703795696214 649.9132146299522 46.69385907215093 0.3750546630014461
1.3951493525858634 13.123294947013521 589.4656223738183 48.51200787687993 0.38024618538455945
1.4180150905685958 13.12023591137489 535.1125779418447 50.40622104063486 0.3855741982177738
1.440811724103351 13.116513644548657 486.2119787562813 52.379731840520996 0.39104129985166347
1.4634831161838557 13.111625862951477 441.8978586678536 54.43595889357907 0.3966478919048625
1.4860430152918283 13.106086393311166 402.02140339002716 56.578604901797 0.40239118226799026
1.5084469038075257 13.099553627008095 366.04772877331584 58.80316128745512 0.4082494015075369
1.5307015582672059 13.09215940148783 333.5651223708394 61.121589189282716 0.4142657495093187
1.5527823238606038 13.08376393665751 304.15625338363697 63.53907609929282 0.42044704054725857
1.5746662609348407 13.074399458462477 277.55935627209226 66.06019406309429 0.42679345860292184
1.5963101635366845 13.063978053255958 253.52986989560628 68.68988309217848 0.4333136172842552
1.6177492153679285 13.052493727513708 231.71944375330284 71.43328796680537 0.4400208812417021
1.6389135875425274 13.039971000802502 211.97925009972187 74.29592759189276 0.4469217520073123
1.6598175514027422 13.026308249959952 194.05952994921157 77.2837054290377 0.4540195646315597
1.6804103623635596 13.011489463552389 177.80200318079181 80.40290847785506 0.4613178603146428
1.7007162108242921 12.99553814834801 163.027303518679 83.65728227731721 0.46882535899549455
1.7206664410880612 12.978350520848053 149.60595231563056 87.05704118943814 0.4765647386550006
1.7402409132488577 12.959919245460783 137.4132418954423 90.61050522612443 0.48454262856024716
1.7594938504638733 12.940410995540397 126.3027250678931 94.32585533714796 0.4927674817183541
1.7783532739594272 12.919645823417518 116.18756248222394 98.2119043846204 0.5012606666203986
1.79672856699376 12.897192726295133 106.97201645358828 102.27806174549688 0.5100368861712952
1.8147156705572274 12.87378372429908 98.57989644618654 106.53437492353747 0.5191021708146858
1.832234882622694 12.848874213547596 90.91241324236053 110.99163756232645 0.528470939296672
1.8492741489069577 12.822642304830117 83.91955163884509 115.65978369964688 0.5381624656732003
1.8658234144988977 12.795130632952464 77.53090217203751 120.54923800283024 0.5481872267084292
1.8818614127065179 12.76618889143992 71.69787478523381 125.67587334879143 0.5585631105669209
1.8973515758202568 12.735770584318642 66.3531996200814 131.0540019626286 0.5693160147837327
1.9122911536203382 12.703956438274256 61.46791981551677 136.69905399059596 0.5804741142856211
1.9266476952196283 12.670709267941042 56.99878767847628 142.6276500473191 0.592054095610273
1.9404247266625019 12.636114350365405 52.90105687872973 148.857715680427 0.6040781240073746
1.9535873465200673 12.59995879386268 49.14337864640784 155.40857519148747 0.6165819806326394
1.9661014058401183 12.562297269627804 45.697367419262214 162.28750137054166 0.6295493643980279
1.9780043007272672 12.52329254377329 42.534100571146226 169.52787780519031 0.6430367575303911
1.9891936606222973 12.482615767859054 39.631660395598146 177.15499738216445 0.6570935328475506
1.999709270479998 12.440450863068401 36.96251990250463 185.19513703221003 0.6717592479971463
2.009543037189293 12.396889548074508 34.51137734578735 193.65603305948977 0.6869873117991566
2.0186423704865977 12.35173289167356 32.25567517687984 202.58702005148677 0.702898343582928
2.0270182986166905 12.30513137998529 30.181108686275724 212.02027226351555 0.7195363221808828
2.034643335620428 12.25695325760328 28.269695985459318 221.96863187226867 0.7368551656636527
2.0415039032184485 12.207336299093688 26.5101224499888 232.4934594852445 0.7550008665901179
2.0475879419824183 12.156091232113932 24.88746596911895 243.61894794796447 0.7739674941069605
2.0528808468211124 12.103417459565856 23.39376740964484 255.39669527982178 0.7938228012147986
2.0573824035508834 12.04932795345982 22.016399785632228 267.86961816097113 0.8146278482518816
2.061056539143408 11.993601200268824 20.743735642734176 281.09304699432766 0.8364443991948258
2.063913524981302 11.936497795481008 19.570896816719983 295.1156833850056 0.8593208079702054
2.0659388167102306 11.877915882687748 18.48904107933101 310.0129113750864 0.8833816462749504
2.0671314516604746 11.817873011414884 17.489711718689417 325.829080169076 0.9086161208616114
2.0674693387212577 11.756487988498634 16.56722749683406 342.65546707239406 0.935188889418782
