M[M_sun], R[km], Lambda[1], P_c[MeV/fm^3], rho_c[fm^-3]
0.23841724892012095 16.20908015294055 2780876.1263280716 3.453507347168396 0.169602847481901
0.24841579820131263 15.866241014314117 2282144.6252333084 3.6355745326866793 0.17197879644120026
0.25869668005531654 15.562934847346574 1881557.122266127 3.8248196427489716 0.174375564969876
0.2692639004397275 15.29347278531493 1558061.5904777597 4.02035163396348 0.1767675278892494
0.28011613192082635 15.053877561732577 1269311.7477757037 4.222494064976215 0.1791465252779049
0.29124602393506105 14.83986761450578 1081188.7247401807 4.4326164729683395 0.18154933017733627
0.3026705769356105 14.648350060470538 905429.2088513037 4.651066493770273 0.1839797982289962
0.3143729598817745 14.476952502109947 760951.7192184546 4.878211390892402 0.1864395805154112
0.32636020905025875 14.323111289959876 630873.7665469466 5.111374490067468 0.18886916557732503
0.3386297414638588 14.184947623659548 542465.011913242 5.353732342243493 0.19132036255712112
0.3511826752690702 14.060587469481382 459994.201300085 5.6057891999376865 0.1938015362230025
0.3640189138263111 13.948817728817207 391092.00314704434 5.86795763926667 0.19631828352989228
0.37714558512719704 13.8481158751439 333349.3937842934 6.137156131615732 0.19881110835836224
0.3905499068138115 13.757465516866057 284824.76086151984 6.416761038365692 0.2013336462133982
0.40423871108370524 13.675878238033642 243950.0296932476 6.707605934103329 0.2038907832693332
0.41821449142718137 13.60251709154657 206792.88178813347 7.009823747163662 0.20647460041514198
0.4324723464081997 13.53651321698522 180114.05679784328 7.319968633495791 0.20903444373437124
0.4470123691436069 13.477155866854662 155233.43627659394 7.642658790413843 0.21163874499500088
0.46183703341256643 13.423802576347708 132545.03254223426 7.978428175302443 0.2142875305666629
0.4769470266297242 13.37614125973107 115967.05631216336 8.32540100306152 0.2169440428216474
0.49233644490888834 13.333525723886758 100506.17517130193 8.683421403073472 0.2195971371396911
0.5080066535522536 13.295463903035344 87255.05346450138 9.05604577431483 0.22229837777837919
0.5239586150445613 13.261628243801292 75881.29828789612 9.443879315665527 0.22505059052208104
0.540197003774186 13.231608324855348 66085.599369296 9.841588236221483 0.22777780986450682
0.556702708110177 13.205030062902885 57650.18602474007 10.255181971639473 0.23055066223540438
0.5734877318396627 13.181776435252981 50363.93117094581 10.685704360338963 0.23337412421091042
0.5905522535012222 13.161346339597882 44057.65374230356 11.130266600710115 0.23620262024422148
0.6078811649476487 13.143599195967932 38597.54377093502 11.589507501534502 0.23904773785643155
0.6254881755403673 13.128415119905215 33860.512787069536 12.06759798408309 0.2419522014722951
0.643363573720524 13.115433519763165 29741.304257732263 12.564324610974003 0.2449057615733631
0.6614968621382058 13.104451132156926 26158.34178729063 13.074449539861696 0.24783735189519165
0.6798994172848682 13.095241004552356 23031.258596217554 13.605538156682234 0.25082757856660154
0.6985480032250996 13.08778528411446 20305.44114534346 14.158496896177278 0.25387822795510223
0.7174661895313948 13.081903048603321 17921.157865443223 14.727428710267732 0.25692623307145074
0.7366366692760438 13.077458694142846 15835.926007956718 15.317712155850707 0.26002149234310623
0.7560433873968313 13.074176042455461 14007.77670733246 15.932258774951945 0.2631826474420666
0.7756918475628669 13.07201581853958 12404.12940095243 16.568275157359153 0.266370064782713
0.7955841188987185 13.070987514591359 10996.361470546088 17.224649419860906 0.26956992861154927
0.8157066352901934 13.070734160223164 9757.369633908944 17.908081206698853 0.2728417539177401
0.8360526399948915 13.071345929572606 8667.321239896213 18.619415388895142 0.27618549960780936
0.8566070587491021 13.072513978388294 7706.220980721519 19.349818629574223 0.27951760041509865
0.8773957624967721 13.074527634732053 6858.732300174289 20.1102662427605 0.28292049105294537
0.8983689755853063 13.076852800352244 6109.83342476537 20.90200984822601 0.2863960293191336
0.9195576391043857 13.079753508151976 5448.219485293418 21.71988710552269 0.28989559997159087
0.9409239247085658 13.082852498595607 4862.428334659471 22.5667163761246 0.2934406891382458
0.9624821089878839 13.086343971982366 4343.752454422502 23.448372024926766 0.2970692061963092
0.9842202596814328 13.090040530902833 3883.3096570027337 24.365573911769125 0.3007772865639654
1.0061138440527977 13.093795516277162 3475.1536376560557 25.309361249208827 0.30447824703127996
1.0281623002356486 13.097644021093835 3112.26882332213 26.2920077053569 0.30826579157390394
1.0503625782938502 13.101549481720646 2789.767572994531 27.31501438037038 0.31214177064116494
1.0726900662140875 13.10535680241262 2502.9073490908113 28.375013225871033 0.3160754577499333
1.0951557670916146 13.10912961793895 2247.25380401084 29.471425631338654 0.32005585526049474
1.1177096330449 13.112511960272732 2019.3693613411817 30.612871070427524 0.32412528116960043
1.1403998306064937 13.115887653704188 1816.0280270042763 31.801202697958853 0.32828473387056095
1.1631506172793142 13.118869312498548 1634.6112182330305 33.031172571692636 0.33249762601485644
1.1859940057115705 13.121535973875906 1472.2795682699234 34.30654400483731 0.3367820113133153
1.208900623621447 13.123865195117665 1327.345145443142 35.6344292135532 0.3411721347110202
1.231866102981655 13.125805073623214 1197.4402551379285 37.01684930346555 0.3456667957305226
1.254860733870907 13.12724267305292 1081.245281449293 38.450528564845925 0.35022534076931017
1.2778750675946078 13.128153342919664 976.9845688150846 39.93680033667051 0.35486023185198884
1.3008930909004923 13.128481236723786 883.5356363873086 41.48455275019551 0.3596123724085776
1.3239277886049818 13.128315402662178 799.5670816717045 43.09624744499165 0.36448391311027534
1.3469352551069251 13.127457006526013 724.1589877487775 44.77447571600689 0.3694766063951296
1.3698888040611654 13.125890044349552 656.3853494837136 46.511992214587615 0.3745261267801364
1.3928103768679423 13.12366467544854 595.3973131480731 48.32075602604511 0.37970145829795465
1.415636418873134 13.120589497271197 540.5027426814936 50.20501477722632 0.385012247863793
1.4384019832373687 13.116864628821633 491.03210856584917 52.167965271867445 0.3904612944135658
1.4610487271843273 13.112213709441564 446.45229786964967 54.212995664479266 0.39605005962893386
1.4835950656396941 13.10674747829331 406.17432230327336 56.339161230112616 0.4017509566074874
1.5059942876685564 13.100498496874744 369.84712511992734 58.55010683726236 0.40758299967644396
1.5282313172473816 13.093195280637076 337.0552738078705 60.85500356029179 0.41357590990178067
1.5502696728584633 13.084759120448465 307.35227806711845 63.258110332134294 0.4197327485555593
1.5721525836155346 13.075567126300655 280.50607276519423 65.76395024453136 0.42605427581922484
1.593791033401417 13.06526531163982 256.22595684845476 68.3773964713068 0.43254633199350134
1.615216819454095 13.053946723837957 234.20415291462115 71.1035149352212 0.43922370342355566
1.636401005588245 13.041599802248966 214.24519656820658 73.94775467734674 0.44609346982706377
1.6572873605947798 13.028046156640489 196.1560351222335 76.91374946937074 0.453149390980915
1.6778943016292223 13.013364721844717 179.7184173978296 80.00751671874806 0.46039375057048865
1.698188616761 12.997555269315088 164.79244065408486 83.23877455548073 0.46785990562006086
1.7181598619680352 12.980719490036588 151.25110840873174 86.61460547482403 0.4755582079006608
1.7377424349956703 12.962299603287281 138.90541270032296 90.14254688587445 0.4834933616150059
1.7570166755029273 12.94293130187315 127.6748534186625 93.83066927157087 0.4916731008311668
1.7758642948913437 12.922269293445629 117.466250451443 97.68765048643988 0.5001167738031712
1.794295896217634 12.900265372981506 108.15351003988117 101.72275146013114 0.5088402302248658
1.8123026180549595 12.8769149768577 99.66339293717374 105.94587533745283 0.517850583236766
1.8298710100285844 12.85236115819865 91.91620194803075 110.36765826559807 0.5271607281239601
1.846952606859732 12.8264294066092 84.85435344656182 114.99953742343521 0.5367945067076403
1.8635412872292896 12.799036749289703 78.38904916200738 119.85378686736888 0.5467715291609048
1.879613532298735 12.770280964444709 72.48887083980374 124.9403466581698 0.5570881282000949
1.8951714668319997 12.740250420160645 67.09261137714871 130.2722479802483 0.567764483145534
1.9101692280922904 12.708616287456598 62.14603773157187 135.86772595000693 0.5788407953487753
1.9245935135919339 12.67565143335533 57.62363944904195 141.738449880246 0.5903171370036631
1.9377895582778328 12.6421444207837 53.635669843761136 148.18281596917024 0.9662519316301218
