M[M_sun], R[km], Lambda[1], P_c[MeV/fm^3], rho_c[fm^-3]
0.23841724892012095 16.20908015294055 2780876.1263280716 3.453507347168396 0.169602847481901
0.24843573586309625 15.86557647420858 2281299.4096026653 3.6359359674945773 0.17198339402865234
0.25873808289012923 15.561709935274179 1880127.9590532228 3.8255631681566444 0.17438466059250898
0.26932693042660005 15.292042733162825 1556391.1368472786 4.021549607844752 0.1767821828267079
0.28020371332911537 15.052089251771177 1293606.234959389 4.22413467880081 0.17916570971122903
0.29136020194860024 14.837804893733443 1079233.9947309203 4.434722403722737 0.18157302615193102
0.3028070010677715 14.64622638532963 903607.1429780035 4.653661612521395 0.1840079047239168
0.31453745232042535 14.474734635129352 759139.7338908272 4.881320541254787 0.18647197820313463
0.32655184102921575 14.320730009240663 639815.080733027 5.115179174924579 0.18890881081075533
0.33885130559909005 14.182618971064883 532291.4551889221 5.358123062075086 0.19136417365142547
0.3514314032046394 14.058348590089917 458481.61821182794 5.6107935292125735 0.19384963305329306
0.36430046502856284 13.94651705489534 389745.9088089302 5.873605164086678 0.19637058059132032
0.37745803075038836 13.84589677858611 332112.37029215624 6.143740825557616 0.198872083768748
0.39089960933207063 13.755262822804522 283683.66418632114 6.424074003360571 0.20139882610595364
0.404620093358466 13.673786389398325 242917.2669833698 6.715680005357609 0.20395981270056374
0.4186306562804742 13.600429556874767 208450.8371264668 7.019062319172458 0.20655358576851146
0.43292726590973934 13.534578739402408 179262.85395207125 7.330064229892987 0.20911766492841222
0.4475029079982757 13.47522896075506 154460.9691821684 7.653651017595556 0.21172613881028468
0.46236777656623573 13.422098108013602 133352.25939053416 7.990358186950624 0.21437886977137866
0.4775168891175781 13.37445234768611 115346.4309957339 8.338829271330102 0.21704685306027355
0.4929476416581103 13.331927487711772 99948.20271332718 8.697901097878859 0.21970366705663616
0.5086622512279755 13.293949367046487 86747.58544442175 9.071623962518602 0.22240900862740884
0.5246611985977327 13.260296829415582 75424.73486780633 9.460607401619448 0.2251653004448847
0.5409300889317452 13.230316938381897 65683.83659906432 9.860212415009945 0.2279055219121966
0.5574879104412188 13.203865484246062 57280.43216786482 10.275094131591928 0.23068224591970424
0.5743204851705225 13.180620913052788 50028.34037858125 10.706961885631147 0.2335093737226925
0.5914319836887899 13.160410436136491 43759.56238260248 11.153798676753963 0.2363523414254222
0.6088134673411253 13.142737133993768 38328.04419171112 11.614543923307888 0.2392016996639449
0.6264655831809918 13.1275731677529 33616.11604485472 12.094210307244499 0.24211043960899062
0.6443893498228741 13.114687829905048 29523.1945533976 12.593563942278726 0.24507913601475967
0.662584103986326 13.103879078671477 25960.01508066379 13.105537260151047 0.24801566175562312
0.681033616450478 13.094862264029945 22855.04667675167 13.638467824790956 0.25100982109868314
0.6997391389882436 13.08741889609725 20145.28864698013 14.193355962196277 0.25406498251680115
0.7187135750795263 13.081681217106896 17777.71996348937 14.765640988130846 0.25713095218813486
0.7379305193809576 13.0772080956009 15705.319594813349 15.358084131452596 0.2602309626305632
0.7573911728438105 13.074013360459322 13890.125816432868 15.974894264649587 0.2633963166225284
0.7770925332388057 13.07191179688692 12298.674483316787 16.614878815073773 0.26660362056971165
0.7970406196951487 13.070912869059535 10900.299672564612 17.273781416436567 0.2698080760361721
0.8172198265814322 13.070776509397039 9671.182804172438 17.95986673135352 0.2730851804663384
0.8376166555029716 13.07135035775919 8589.260993550548 18.674176580195148 0.276436039301258
0.8582427784421702 13.072724165153385 7635.808953477554 19.40926266861625 0.27978872095789187
0.8790694234720221 13.074618291738753 6794.8888947423875 20.17283196027963 0.28319656886315286
0.9001212592242728 13.077091626138564 6052.229865592876 20.9678522961175 0.286677758999561
0.9213561557647729 13.079960526550988 5395.9131636042775 21.79147027331739 0.2902018933071609
0.9428005588350824 13.083205667366666 4814.584555665794 22.641973825983822 0.2937536123478793
0.9644151703032654 13.086670605290424 4300.306999642724 23.527499103234845 0.29738910257881046
0.986185775616315 13.090260969889473 3844.270302169362 24.449364729064758 0.3011080019060059
1.008147573566359 13.094130486620614 3439.604910767679 25.3995933922611 0.3048318582763743
1.0302444970756757 13.097947359971501 3080.071268517832 26.38680576667484 0.3086270141351974
1.0525096633253392 13.101905147240657 2760.581942943059 27.414626027433545 0.3125114324135327
1.0749024837868153 13.105676587055617 2476.2422229053823 28.482917132697455 0.3164758923438675
1.0974155450861736 13.109414082169602 2223.0380809038415 29.58474858873945 0.3204656591809064
1.1200351208382286 13.11288658413913 1997.4571862715568 30.731905544719716 0.3245434460953185
1.142769479596216 13.116193496933313 1796.1279231791639 31.926258848638287 0.32871307613002937
1.1655824156150403 13.119198279180411 1616.4199726479883 33.16641818184254 0.3329608692053757
1.1884757703938351 13.121827863355282 1455.8726718612363 34.44858170199787 0.33725691521144546
1.2114412566740538 13.12423117682674 1312.352423577969 35.78364812257293 0.341659426346301
1.2344452073231245 13.126029368387275 1183.8427127639286 37.17365178915076 0.34616536693291394
1.2574887549962268 13.127395796901265 1068.7186668791883 38.61989610878363 0.35076386399270215
1.280541404603013 13.128225253842809 965.6594586273568 40.11473053442881 0.355413348354947
1.3036245140306837 13.128546368588506 873.0881961253613 41.671548512792064 0.3601811136327477
1.3266852729809107 13.128217824457172 790.1076036891792 43.29284463642098 0.3650691706616559
1.3497364082841623 13.127284537993349 715.477522640431 44.981232430770376 0.3700774768022814
1.3727435370736754 13.125679956675524 648.4592825479225 46.73502360973069 0.37517429419448406
1.3956835713898748 13.123223781294977 588.1288626544348 48.55529883978572 0.38036948751207905
1.4185629324951798 13.120202575932927 533.8798291863058 50.45176759318193 0.3857014054969749
1.44135298958162 13.116270222694684 484.97372754298044 52.4276714324552 0.39117260114345287
1.4640472484953007 13.111566956985408 440.8787098692451 54.48643589725506 0.39678323611436067
1.4865870609740328 13.105925449804793 401.10239997776426 56.63177406586659 0.40253119967636486
1.509012042178873 13.099446606751332 365.20322129654056 58.8604604431826 0.4084002949704568
1.5312707400896923 13.09195051619363 332.7485037760718 61.1819556553676 0.41442195890226347
1.553343548846697 13.08356905947197 303.44552975201117 63.6027025647709 0.4206087964622611
1.575226600100272 13.074121238840817 276.9149079683294 66.1272843472127 0.4269608611945244
1.5968893010737535 13.063664229799715 252.90772615805488 68.76065620757166 0.43348739486958204
1.618326281580516 13.052232742402776 231.16941964232416 71.50798085311136 0.44020144031243763
1.6394826437329713 13.039579025243023 211.46368493101676 74.3747930767093 0.4471093681973751
1.6603943335049762 13.025915516627647 193.58122901877658 77.3670124976867 0.4542145174712082
1.6809951714722995 13.011072781488874 177.36088680769907 80.49094670420818 0.4615209552597655
1.7012785628282368 12.995047157283269 162.6309332686096 83.75210398061616 0.4690441027097386
1.721247678317604 12.977975210661386 149.2485771141103 87.15729131982738 0.47679280532328794
1.7408019283276506 12.959366293064301 137.0749540335402 90.71654608198492 0.48478039580431437
1.7600743763373674 12.939907659381918 125.98780490839934 94.43807435902445 0.49301549021709357
1.7788756834771162 12.918799017012162 115.90150364765496 98.33071974009991 0.5015199151108362
1.7972792306960448 12.896557306764713 106.71151716117042 102.40392539292688 0.5103081137824266
1.8152523122337985 12.872932036957588 98.32706555912041 106.66777169060273 0.5193858715012136
1.8327686222580584 12.848126309757577 90.69090222478279 111.1330881414927 0.5287679525632689
1.8497990831092757 12.821879235271743 83.71924008856318 115.80761571620567 0.5384659216233209
1.8663406354917291 12.794255987042199 77.34483249416488 120.70621532261003 0.5485056072123281
1.8823611547217085 12.765218341732858 71.51752003948863 125.84264507678533 0.5588975448725859
1.8978524543973398 12.73481186469794 66.19129976731472 131.23127123110675 0.5696678375882508
1.9127668437919843 12.702900795634722 61.31563970835667 136.8898630725386 0.580847886143273
1.9208462636333363 12.675652453117587 58.36944858290957 144.79223474307315 2.6231935332926257
