M[M_sun], R[km], Lambda[1], P_c[MeV/fm^3], rho_c[fm^-3]
0.23841724892012095 16.20908015294055 2780876.1263280716 3.453507347168396 0.169602847481901
0.2484153090625519 15.866273811760719 2282220.964747156 3.635575010866413 0.1719788025238273
0.25869605651725563 15.56293377155062 1881559.2103877563 3.8248206263685933 0.1743755770025958
0.2692640763957715 15.293480906766321 1558127.3460825917 4.020353218663395 0.17676754727504615
0.2801163080706584 15.053870598510677 1295437.054864843 4.222496235063462 0.17914655065370844
0.2912486544215349 14.839736137358575 1081158.0569150604 4.432619258364205 0.18154936151866577
0.3026690545113576 14.648428868821513 905490.8830227688 4.651069925972643 0.18397983540154503
0.31437495638046653 14.47688796784941 760972.0506561233 4.878215502682575 0.1864396233607157
0.326359860417158 14.323138262845944 641505.9996539954 5.111379521312762 0.18886921800345272
0.3386307818094215 14.184867800997834 542415.6739226141 5.353738148107814 0.19132042048868567
0.35118343624332593 14.060570443280618 459933.9344469448 5.605795816799743 0.19380159981795678
0.3640183708524703 13.948812909048677 391084.0040981136 5.867965106161192 0.19631835267463338
0.3771456204178148 13.848125357411623 333354.8287720951 6.137164836926845 0.1988111889710562
0.3905508942755536 13.757448351637434 284819.6621335799 6.41677070596209 0.2013337323799387
0.40423861973590386 13.675884792290775 243948.95861508482 6.7076166072995065 0.20389087452003415
0.4182159195809058 13.602487423352946 209381.72497356572 7.009835958769881 0.2064747048185099
0.432473054834351 13.53649337551553 180104.0153638032 7.319981977231519 0.2090345537310051
0.4470124987514582 13.477171570843467 155233.59718921143 7.642673318524021 0.2116388605008903
0.4618367802096517 13.42381536974625 134034.17852787653 7.978443942072047 0.21428765128106275
0.4769474805376666 13.376128629535664 115965.93493838575 8.325418748517302 0.2169441786853721
0.49233795089006527 13.333475171627864 100505.29469173319 8.68344053706206 0.21959727791214814
0.5080074042442744 13.295459899717335 87257.87784052969 9.056066358913963 0.22229852396300923
0.5239580972342343 13.261585745701666 75875.97018277607 9.443901418675699 0.22505074208960632
0.5401962576993877 13.231653555508808 66089.09067487698 9.841612842552427 0.22777797859811633
0.5567063414553078 13.205116826737832 57651.01718611624 10.25520827845061 0.23055083607627044
0.5734868295726766 13.1817652385362 50362.145793598254 10.685732443306074 0.23337430288681643
0.590553271879255 13.161329430747788 44057.11055554997 11.130297685952915 0.23620281802189572
0.6078832630449126 13.143608425349427 38598.54049638426 11.589540572516487 0.23904794122687356
0.6254906945721217 13.128404977005813 33859.35145640564 12.067633135161364 0.241952410482275
0.6433640406804799 13.115426849372303 29742.165806621608 12.56436334319979 0.24490599187701612
0.6614984027568295 13.104466404285997 26157.240636862723 13.074490597026335 0.24783758738680148
0.6799010628532542 13.095252890672915 23031.269096693068 13.605581644637951 0.250827819241823
0.698551784140015 13.087785194859194 20305.015185073775 14.15854293022089 0.2538784745786817
0.7174668293098269 13.08190714152676 17921.29053955822 14.727479168076798 0.25692650339498757
0.7366382770565433 13.077439751219103 15835.476608156065 15.317765463233833 0.2600217689288492
0.7560455819156529 13.074181837185142 13910.4379593267 15.93231506876245 0.2631829295603779
0.7756941338425564 13.072005661758029 12404.006298173652 16.5683366850441 0.2663703731307609
0.7955816944574963 13.070935148716451 10995.965401252655 17.22471428288447 0.2695702430087465
0.8157082266142315 13.070738188819917 9757.129366539246 17.908149570062708 0.27284207527120374
0.8360531496301349 13.071369680526374 8667.556415191822 18.61948993019236 0.2761858500016855
0.8566084874419188 13.072566864588698 7706.607132286215 19.34989709275151 0.27951795828074105
0.877398290358972 13.074533387937215 6858.522051794633 20.11034882303705 0.28292085544710277
0.8983737391113271 13.076836703878643 6109.891852696419 20.90209674991686 0.28639640115806697
0.9195619433954377 13.079749942715194 5448.010024953258 21.719981575200563 0.28989600419277356
0.9409321783829224 13.082875226766145 4862.210640668032 22.56681569077683 0.29344110209217655
0.9624841324434117 13.086349017395033 4343.565983784278 23.448476441914217 0.29706962833519357
0.9842223842930221 13.090054593602536 3883.2737938339333 24.365687244656865 0.30077774474821256
1.0061166323974067 13.093788757101054 3474.913893927596 25.30948030420404 0.30447871359656
1.028165574651923 13.097642861152076 3112.2262590030737 26.29213277958729 0.3082662681620664
1.0503692022586146 13.101530546142875 2789.628862578982 27.31514580004027 0.31214225834345205
1.0726957158130024 13.10532899901716 2502.7300884766123 28.37515557160805 0.3160759859991791
1.09515821699499 13.109134241572864 2247.2569604416635 29.471575119500557 0.3200563958467644
1.1177134067414591 13.112517696931038 2019.3623082661518 30.61302808613287 0.3241258327615754
1.140402242738382 13.115893610924156 1816.0473760464604 31.801367649600472 0.32828529886283436
1.1631558459792382 13.11887024178707 1634.566986032087 33.03135094526491 0.3324982369799194
1.1859970135683549 13.121557616792167 1472.3671355454644 34.30673132815278 0.3367826376299517
1.2089012503529388 13.123855014407956 1327.3151442496237 35.63462599884543 0.34117277733619067
1.231869665761116 13.12582426192201 1197.4554016403674 37.01705608036221 0.3456674532010056
1.2548629393981556 13.127253159369333 1081.2273124872404 38.450751887894555 0.35022605085015096
1.2778758115644893 13.128129298838383 976.9903394038198 39.93703493930511 0.35486096114128585
1.3008972076119893 13.128473050205661 883.4934249891543 41.484799294207924 0.3596131222637694
1.3239309382997722 13.12829839879838 799.5459565486302 43.096506635481056 0.3644846847041627
1.346933352038554 13.127502477125354 724.1877755413949 44.77474828726972 0.36947739853388
1.369890148318998 13.125894668627426 656.3854844003713 46.512286208877 0.3745269811778693
1.3928136982945596 13.123642391815368 595.3991705711231 48.321065178791926 0.37970233883257093
1.4156384827687591 13.120600629454419 540.5068677382715 50.20534000729125 0.38501315620107346
1.4383919091867567 13.116733139884364 491.00080652676667 52.168307556898135 0.3904622318947766
1.4610527291452744 13.11216617179956 446.4033345690486 54.21335603120658 0.3960510258818072
1.4835991396441037 13.106746538583373 406.17308035060836 56.33954961409072 0.4017519979831371
1.5059856669099319 13.1003580301469 369.85646292985695 58.550515782494905 0.40758407660613866
1.5282385956422952 13.093171231012338 337.0305073328276 60.85543435236797 0.4135770246559326
1.550271820408806 13.08476402286272 307.3639141557416 63.25856434033437 0.4197339027688457
1.5721524861329754 13.075576643344183 280.5202975183879 65.76442891698241 0.4260554701949812
1.593799689901487 13.065262351672306 256.20535267077173 68.3779013638033 0.43254757171565295
1.6152157554904734 13.053955601323748 234.2076923368761 71.10404773057995 0.43922499137799986
1.6364029139493892 13.041628860549235 214.243639565483 73.94831717088826 0.44609480796497597
1.657289805863568 13.0280400855255 196.1454654768083 76.91435526258545 0.45315083212611523
1.6779038397341488 13.013409336490932 179.7116447352287 80.00815649433457 0.46039524775517354
1.698188625186207 12.997587313350552 164.80248448606278 83.23945053645987 0.46786146503720893
1.7181544414497667 12.980577190567196 151.23672796430887 86.61532006380315 0.4755598335736353
1.7377427477490057 12.9622987162631 138.90827359746598 90.14330265271983 0.4834950562127958
1.7570212746519984 12.942967022639529 127.67826546892084 93.8314689639172 0.49167486818303774
1.7758650250443013 12.922233230817248 117.46676596315076 97.68849706918667 0.5001186209995899
1.7942996100369049 12.900200149748473 108.14714726729528 101.72364813704199 0.5088421625027033
1.8123087352541485 12.876967189186406 99.66494002128051 105.94682554452453 0.5178526040833316
1.8298747287506716 12.852399932937606 91.92095253461221 110.3686656921699 0.5271628434850899
1.8469733723250983 12.826522622316936 84.85315242727944 115.00060605881991 0.5367967249864612
1.8635440176820322 12.799031853832963 78.3897515049069 119.85492102593005 0.5467738572571574
1.8796145823678574 12.770322475018132 72.48970930731224 124.94153398072571 0.5570905091875642
1.8951682632328843 12.740227266533951 67.09082671354538 130.27350983184914 0.5677669875174023
1.9101726338122618 12.708610130480496 62.14364937724555 135.86906771879669 0.5788434315360157
1.9246173663498813 12.675837347366024 57.62687519363863 141.74456547157033 0.5903381248138634
1.9384429735775124 12.641325030966025 53.47973589681218 147.9176357205079 0.6022698057923648
1.9516588598503168 12.60543882739093 49.68451807206544 154.4072684739179 0.6146739318345259
1.964265424621304 12.568049765167396 46.19313410787477 161.23276678458413 0.6275781456390046
1.9762321828636185 12.529351365250848 43.00072362899996 168.40291717229368 0.640953373125447
1.9875055852191135 12.488941007820175 40.06320188421513 175.95444681431403 0.6548892467306247
1.998137891879851 12.447202669097477 37.3649125368902 183.91316539129502 0.6694252755658511
2.0080593346631 12.40390175600071 34.88331388875049 192.3001224922701 0.6845622589533864
2.017244742958384 12.3589425163613 32.601341488178555 201.13715448534768 0.700325822884352
2.0257395582591555 12.312785553510224 30.502411373783602 210.47020206727848 0.7168094968102031
2.0334580677507414 12.264865674991237 28.569339577150338 220.32272569987998 0.7340050439695089
2.0404406705231413 12.215577784360608 26.78794248874007 230.72993512498755 0.7519696462931419
2.0466209673895133 12.164647533248662 25.14869933965083 241.7436358197519 0.7707943447314245
2.052058166686325 12.112342122496699 23.634158431972605 253.38448628450345 0.7904420069558189
2.056664092760154 12.058488515474792 22.241135351739242 265.725189308921 0.8110750938281343
2.0604959232769504 12.00316712029994 20.952441541009 278.7886809692949 0.8326560863642056
2.0634825101198357 11.946385022664556 19.76666914213066 292.6546617009041 0.855328331092691
2.0656487608501917 11.88812248869769 18.670216502564024 307.3656386938099 0.8791184965481443
2.06697955348394 11.828474096300123 17.659266360909314 322.9944569049351 0.9041104479972318
2.067463041032173 11.767391729119165 16.72417507368562 339.617891391402 0.9304224183150793
