M[M_sun], R[km], Lambda[1], P_c[MeV/fm^3], rho_c[fm^-3]
0.23841724892012095 16.20908015294055 2780876.1263280716 3.453507347168396 0.169602847481901
0.2484149005530202 15.866178895262951 2282269.607326618 3.6354864761877654 0.17197767632923086
0.2586847158307171 15.563309389517897 1882021.4236261994 3.824638512860457 0.17437334918935726
0.26924719915488987 15.29387772230404 1558469.4362476834 4.020059822598676 0.1767639581308701
0.2800957682637085 15.054288744414317 1295894.893126008 4.222094465157482 0.17914185257798984
0.29122086775308514 14.840208696993285 1081611.2698749723 4.432103578340978 0.181543559076822
0.3026373135757126 14.64890614672285 905903.3600289705 4.650434507789214 0.1839729534899033
0.3143321785206705 14.47753185023576 761403.7486028221 4.877454280828191 0.18643169134551796
0.32631196639948873 14.323720234848643 641948.6110386389 5.1104480963120995 0.18885951245280638
0.33857708975800505 14.185432956811043 542828.4383487207 5.352663334817796 0.19130969588128308
0.3511214100537352 14.061191249738139 460328.7894051229 5.604570884349891 0.19378982693793195
0.3639525517784951 13.949399831737674 391436.88969289814 5.866582832152242 0.1963055525770578
0.37706784606435195 13.8486796162981 333662.2059833445 6.135553336833089 0.19879626620009364
0.3904657074610096 13.75801709811477 285111.7670312434 6.4149810944077865 0.20131778171028458
0.40414622245579773 13.676373647905075 244198.19300623462 6.70564087034303 0.20387398291800693
0.4181110302728831 13.602986809092775 209623.18547268593 7.007575486722721 0.2064553788682162
0.4323607767698481 13.536913883113957 180305.7358164558 7.317511969578224 0.20901419267672852
0.4468942075427724 13.477530321346835 155414.5442187969 7.639984109118107 0.21161747991384505
0.4617080113630393 13.424318038762745 134213.6349182986 7.9755254873426304 0.21426530684906678
0.47680721461053205 13.376573257564504 116119.96469376104 8.3221340997419 0.21691903057858367
0.4921877773594533 13.333866349246584 100641.76569587205 8.679898915437441 0.2195712215164442
0.5078444840215726 13.295819110667662 87383.47010632553 9.052256279444837 0.2222714661100018
0.5237905503040987 13.261969381695092 75992.65025242194 9.43981033749139 0.225022688216131
0.5400133962607017 13.231845148852775 66186.9652868764 9.837058508344631 0.22774674804807987
0.5565110117592035 13.205360148449724 57738.80269793903 10.250339260283356 0.23051866059400733
0.5732867009698634 13.182095046618977 50445.92442997101 10.680534740832568 0.2333412328698569
0.5903330173951363 13.161640070517521 44133.85124424923 11.124544427930305 0.23616621332177098
0.6076602548860909 13.143918245330172 38663.85627794641 11.583419859697816 0.23901030182227484
0.6252485854204486 13.12860261965026 33919.18351110405 12.061127511407747 0.24191372773464073
0.6431119763714694 13.115578142109044 29793.939520709955 12.557195083927894 0.24486336906713757
0.6612312403073933 13.104528958938719 26205.09855565397 13.066892135756833 0.2477940048868353
0.6796242329657879 13.095367955094407 23074.546900267833 13.597533399408132 0.25078327787005295
0.698259139184947 13.087891761414681 20344.388851354768 14.150023571907184 0.25383283282147096
0.7171666971072538 13.081982139823326 17956.216562710775 14.718141317676876 0.25687647663415303
0.7363189649446429 13.077474107587344 15867.442886675159 15.307900363544313 0.25997058378774707
0.7557154343800998 13.074247204603239 14036.509668348752 15.921897403838821 0.2631307210847079
0.7753511908715403 13.072081484513246 12430.602439912975 16.556950693513087 0.26631331185396007
0.7952258310934962 13.070986436124258 10946.650118200923 17.212711190796448 0.26951206288850915
0.8153393420951827 13.070761376754843 9778.764785824995 17.895498855570718 0.27278260846485924
0.8356686775609276 13.071320967191335 8686.196178123215 18.605696290003415 0.27612101068131184
0.8562169177713943 13.072566885356498 7723.9324177885555 19.33537786470839 0.27945173699007125
0.8769844385440684 13.074499821045306 6874.747311340185 20.095067897299906 0.2828534267547975
0.8979467358031352 13.076799853694824 6124.356427581694 20.8860163345554 0.28632759554062714
0.9191193491363197 13.079694533225634 5461.075105119814 21.702501167782543 0.2898212082252279
0.9404752825635959 13.082786627173697 4873.96812588204 22.548438964988517 0.2933646909989626
0.9620149846367811 13.08621840095738 4353.964918575024 23.42915579627721 0.2969915184797683
0.983726333466767 13.089839890520562 3892.972381360445 24.344717349696896 0.3006929672778123
1.0056197682460644 13.093726485723682 3483.618723776856 25.287451873029 0.30439238625563925
1.0276508064234444 13.09753557918844 3120.1656322504136 26.26899085825135 0.308178087201591
1.0498524775314662 13.101542201787089 2797.0022199959562 27.29083005774369 0.31205202190365006
1.0721551511964513 13.105244479898571 2509.2036292162666 28.348818883004313 0.31597824976777855
1.094595929102025 13.108915362858193 2253.0743288909116 29.443917230523176 0.31995637806049043
1.117145261199259 13.112428628446605 2024.7017746038034 30.583977773997542 0.32402377979172453
1.1398214851503665 13.115793604612994 1820.937532357222 31.770849388259744 0.32818076773064525
1.1625686822513717 13.118826136009712 1638.942800730681 32.99835026557297 0.33238520306974034
1.1853887938657122 13.12145566816503 1476.382436421479 34.272075238499795 0.33666676478493124
1.2082836009284224 13.123813799489142 1331.0054080340196 35.59821977549477 0.3410538885959668
1.2312294989277346 13.125731367697743 1200.8751837317327 36.97880178458205 0.34554581934960077
1.2542138735054276 13.127203014778432 1084.3200817619177 38.40943756662174 0.3500946873022904
1.27723660653628 13.12823198850883 979.8296508820226 39.89363440650735 0.3547260455888385
1.3002320417124649 13.128525154627281 886.0617628413036 41.43919017960863 0.3594744036997211
1.323243136265286 13.128272998259085 801.9070230134802 43.04855856345175 0.36434194629052985
1.3462474965749704 13.127524067094196 726.3306844824302 44.724229216285075 0.36933031309306374
1.3691973642807531 13.125934842888077 658.3315723192871 46.45790182284876 0.3743689308421747
1.3921010372608207 13.123708288363881 597.1724347897909 48.26387741506182 0.37953945557789825
1.414943626816585 13.120802500931172 542.1159297232497 50.14517898050948 0.384845132056481
1.4376758678790813 13.116926088138838 492.5167941732075 52.10499251665137 0.39028881893403405
1.4603160210405222 13.112287240059652 447.78073285748104 54.146697156231724 0.39587229315041483
1.482864261291317 13.106973583589719 407.4346054312499 56.26771024630636 0.40155937477384296
1.505240186271215 13.100600744660344 371.0030869312548 58.47487422445636 0.4073848796635628
1.5274720339622847 13.093315151329097 338.088517621205 60.77575294452971 0.4133708342798073
1.5495084192321287 13.085008478472774 308.3215701422166 63.174589957495215 0.41952041687062935
1.5713790564612022 13.07584195764428 281.40187417226105 65.6758938644797 0.4258345589642214
1.593037249965733 13.065589521968429 257.02036256503516 68.28451805097659 0.4323182766433265
1.6144567121993345 13.054358792003187 234.9541475731201 71.00550509455657 0.43898677904389194
1.6356356501827907 13.04201518755898 214.93018171748545 73.84428336123534 0.44584731786141285
1.6565330499237094 13.028568933394613 196.77673353556645 76.80231648987827 0.45288429870248215
1.6771298002788892 13.0139428757549 180.30448782588607 79.88983475346753 0.4601183545725388
1.6974269988880135 12.998218617962285 165.34203655845428 83.11443495724014 0.46757306722125025
1.7174017549215725 12.98134166691922 151.73884218632682 86.48316659627206 0.47525918757022956
1.737022798397412 12.963159614448578 139.36571023026698 90.00353634737432 0.4831816689908068
1.7562795787559582 12.943776284815254 128.09789474748607 93.6835820310202 0.49134803218324313
1.7751285990093333 12.923148649069061 117.85351243631915 97.53194158235729 0.49977702564378396
1.7935764028380334 12.90113730669699 108.50592041754267 101.55783204454188 0.5084848400861498
1.811584272415499 12.877855012864147 99.98848801065746 105.77111389724115 0.5174789105069285
1.8291832672468038 12.853550238060453 92.22479668467464 110.18237674547751 0.5267716800913863
1.846234057313107 12.827438829203626 85.13332716377066 114.80300265994629 0.5363865388360252
1.8628608541796343 12.800219635395585 78.65074694024707 119.64520598436201 0.5463433735319468
1.8789587211238277 12.7716223907677 72.73057715078586 124.72199043870447 0.5566502493610197
1.894514632478436 12.741537275287417 67.31372261835618 130.04019053175324 0.5673039233257765
1.9095244944280154 12.70999931640187 62.35097557835559 135.62097714924334 0.5783560053871067
1.923981886464149 12.677211383243812 57.81856111463156 141.48062998864873 0.5898252570849194
1.9378297562567357 12.642874659798528 53.65906322527953 147.6366945997081 0.6017293933085891
1.951082479866704 12.607059133571488 49.84740666066215 154.10806162164232 0.6141037755928326
1.9637080206411115 12.569837633119755 46.350810832157585 160.91515115811694 0.6269804621235999
1.9757032391595182 12.531214380612397 43.14232842839323 168.0668180777796 0.6403309303558511
1.987000831591157 12.490811302203845 40.19169488805828 175.59580527450336 0.6542307583767579
1.9976599015884262 12.449175798318699 37.48381401441443 183.53024596820978 0.6687281280250127
2.0076086167348697 12.406004244801233 34.99599508511587 191.8951480083889 0.683837960059091
2.0168203605537656 12.361163753540692 32.70573890592386 200.7041718960144 0.6995575746417587
2.025333495225196 12.31495729941193 30.598573004312044 210.00699059235853 0.7159940166703138
2.0330951278310385 12.26718345824161 28.658216648324597 219.83130358247035 0.7331540763619335
2.040114389596112 12.218060947870452 26.873935308965734 230.20346607121226 0.7510647290050695
2.0463524151436694 12.167325663549608 25.22762986659107 241.1821239254041 0.7698412347837316
2.0518025246644434 12.114969936815378 23.707446679054662 252.78391946020986 0.7894329701825863
2.056461628184869 12.061217785380586 22.30735694879414 265.0820219326733 0.8100044695723391
2.06030980656608 12.00601281933192 21.01632060510088 278.10109143757757 0.8315257085436214
2.063353846877493 11.949384711300597 19.82605354809199 291.92041298702844 0.8541371709207058
2.0655569161215452 11.891237732264107 18.72583177475171 306.5755518747747 0.8778454334084275
2.066942402860847 11.831652437534489 17.709681482313442 322.14898187080706 0.9027665537425802
2.067469475876515 11.770658405441303 16.77185739081222 338.7100946878109 0.9289945307635492
