M[M_sun], R[km], Lambda[1], P_c[MeV/fm^3], rho_c[fm^-3]
0.23841724892012095 16.20908015294055 2780876.1263280716 3.453507347168396 0.169602847481901
0.24841969837075925 15.86608983817223 2281982.412262425 3.6356386402515932 0.17197961191367162
0.25870587511043663 15.562624754646732 1881304.8604079625 3.824951514130815 0.17437717816602633
0.26927571704905895 15.293343304315458 1557817.5546328607 4.020564093385016 0.17677012692716149
0.28013219486957897 15.05349989192892 1295033.599840188 4.222785010205331 0.17914992743096814
0.2912676716702848 14.839528242192765 1080880.766519799 4.432989917328241 0.18155353218067674
0.302695070754262 14.648028157659356 905172.7838761285 4.651526662028627 0.1839847820921857
0.3144021226636887 14.476579713536644 760655.9888436946 4.878762679951828 0.18644532500786443
0.3263937778155498 14.3227210944822 641229.4821493088 5.112049064124888 0.1888761947129767
0.33866991552736814 14.184425129228439 542141.000128819 5.35451078296377 0.19132812992582476
0.35122838279307267 14.060261219864593 459709.26749488205 5.606676386879097 0.19381006301598774
0.36406845452767617 13.948399149368736 390864.7878259995 5.868958808200855 0.19632755452823575
0.37720156837479196 13.847754531805945 333134.031761669 6.138323364433604 0.19882191713713215
0.3906130103709437 13.757100051129422 284635.43000722677 6.418057309584331 0.2013451997787185
0.40430614149079835 13.6755354422084 243770.51052960398 6.709037053704766 0.2039030186545557
0.41828666013075894 13.602104440496575 209224.71325846203 7.011461167634393 0.2064885995737102
0.43255114051591764 13.536122370640287 179957.5651321874 7.321757874404317 0.20904919301306427
0.4470968142564462 13.476833030809415 155101.14809200336 7.644606859663556 0.21165423313961026
0.4619314169435347 13.423577261117067 133927.20204171183 7.9805423544756 0.21430371726035585
0.47704757645290174 13.375871822906062 115858.73639777403 8.32778053939785 0.21696226115730055
0.49244481720351907 13.333257384104433 100406.40057055255 8.685987153451457 0.21961601386177274
0.5081213618516894 13.295206619195095 87168.14110610296 9.058806065760749 0.22231798040368045
0.5240824896258488 13.26131930331687 75797.12497808297 9.446843242813348 0.2250709151339499
0.5403235079801492 13.231310987516023 66013.4483594002 9.844887896326009 0.22780043670638886
0.5568335082871408 13.204901752219834 57587.479731639185 10.258709691223798 0.2305739741383416
0.5736382344058657 13.181663967354389 50306.30605039039 10.689470290690146 0.23339808467829323
0.5907106560792758 13.161261049844542 44004.95241626915 11.134435198029355 0.23622914265190975
0.6080492492339482 13.14348843963554 38549.466218737725 11.59394242522485 0.23907501047844318
0.6256614943484025 13.128297013073439 33815.94528472306 12.072311891552724 0.2419802305898594
0.6435401049142125 13.115226832109013 29702.024942636657 12.569518843558166 0.24493664672685744
0.6616957068854852 13.104273852541096 26119.74547511489 13.079955602925176 0.2478689330252082
0.6800991516590587 13.095158857088009 23000.877891318796 13.611370250037375 0.25085985509780945
0.6987569365463129 13.087687693289627 20276.755482467175 14.164670486622592 0.2539113024550643
0.7176887751821064 13.081907506070557 17895.19098392861 14.734195672565372 0.25696248651201165
0.7368645294275549 13.077369034851472 15811.388518340658 15.324861330703461 0.26005858588854613
0.7562830704779152 13.074205354416197 13987.080474575234 15.93980852140142 0.2632204832485272
0.7759427824376746 13.072032293540596 12385.48622936307 16.57652696566608 0.2664114189956181
0.7958416277910527 13.070936001963192 10979.137538771865 17.233348611107516 0.26961209441257655
0.8159699473467054 13.070759064593132 9742.418136806315 17.91724991668186 0.2728848529775864
0.8363296543803891 13.071376952426208 8653.509325952078 18.629264113863226 0.27623119635238835
0.8568964897271559 13.072597015389151 7694.341528905698 19.360342144466635 0.27956559750809074
0.8776931121541128 13.074549542553935 6847.608880591336 20.1213420241343 0.2829693641033836
0.8986822714329373 13.076863011254664 6099.680543614633 20.9136653070581 0.28644590122999286
0.919880097823515 13.079762337883018 5438.592401330351 21.7325578097971 0.2899498159611285
0.941255887868195 13.082911905715426 4853.976101259915 22.580037005999138 0.29349607680102835
0.9628239568752539 13.086351614111562 4335.769499868724 23.462377109238087 0.2971258262043218
0.9845673438337986 13.090067832954201 3876.424592503899 24.380775112060316 0.30083874225128265
1.0064790185942731 13.093877385377603 3468.7834949916587 25.32533006446085 0.3045408273098031
1.028532317116177 13.097696872487296 3106.56436292118 26.308784001206774 0.3083297166845197
1.0507455336181684 13.10161833753653 2784.5765985980643 27.33264192408873 0.31220718697796424
1.0730725462199675 13.105372659494929 2498.081664295303 28.394106633970626 0.3161463139528647
1.0955409361807034 13.109072557697532 2242.849196111854 29.491477231188654 0.32012836681876616
1.1181349003593453 13.112656673101641 2015.4728640551534 30.633932536035612 0.3241992695351885
1.1408172255757862 13.115921789835381 1812.4599091011394 31.82332882679993 0.32836052027506474
1.1635852689834039 13.118907579630335 1631.2363640920748 33.05509950801751 0.33257958054417686
1.186439336703074 13.121659149159322 1469.447540514783 34.33167164963472 0.33686602574542507
1.2093431198903293 13.123905027593485 1324.6033159756141 35.66082630063551 0.3412583374571433
1.2323328725815474 13.125911483725673 1195.0501661103249 37.04458690147253 0.3457549905542804
1.2553317212762052 13.127303917404857 1079.0302850978214 38.48048626222728 0.3503205946496235
1.278349191958056 13.128162566770044 974.9597729030365 39.96827139221203 0.35495806325107027
1.301376505949307 13.128437748793539 881.6702974660863 41.517625971457555 0.35971296348126625
1.3244104190744679 13.128283362972986 797.9034272919619 43.13101745239932 0.36458742124917065
1.347424728276528 13.127426082444769 722.6458694387443 44.81104104936154 0.36958287151336566
1.3703876262798487 13.125835963500244 655.0072042699359 46.55143219882137 0.37464074612592985
1.3933215504918146 13.123624235975106 594.1208549607553 48.36222991906115 0.3798195850131429
1.4161585703758106 13.120570399570122 539.35486458165 50.248645893276716 0.3851341055072567
1.438917623415195 13.116695602784484 489.95198837311926 52.213884816601855 0.3905870630173179
1.4615824973497542 13.112123151452245 445.44359436572796 54.26134143283656 0.39617968934790254
1.4841293486186014 13.106616827870608 405.27457476117786 56.39126676247414 0.40189066739803314
1.5065106982286707 13.100228522302137 369.0497551889436 58.60497140158496 0.40772748180706386
1.5287591217778451 13.092861620589307 336.26058416369455 60.912799702259576 0.41372546810581134
1.5508260761964905 13.084549085616052 306.64239462328925 63.3190218332032 0.419887602286873
1.572692441301944 13.075272633775809 279.87619721796403 65.82817147194935 0.42621451958696166
1.5943507983361664 13.065057117586049 255.62813803447725 68.44513624707983 0.43271266146195864
1.6157602331444978 13.053606587777372 233.66081576700967 71.1749991348096 0.4393965059659166
1.636935515482157 13.041200293464028 213.74941015870192 74.02322428136443 0.4462730074233176
1.657840137056298 13.027694715086996 195.7001573024307 76.99503034193847 0.45334275323148143
1.6784557597196388 13.013102550719418 179.3050864549787 80.09335810403354 0.4605946341460623
1.6987494554463816 12.997234966065804 164.41238554898575 83.32947486250629 0.4680691417058048
1.7187010643520526 12.980140391848762 150.88617341820193 86.7104872262048 0.47577633661033986
1.7383367109788423 12.962043469039356 138.5843138906808 90.24395506364398 0.4837207413617882
1.7575612843206563 12.942401482187508 127.37899868910532 93.9379727291077 0.4919102457373357
1.7764122613147022 12.92174216896547 117.1873158842422 97.801247251952 0.5003646356208526
1.7948435466638228 12.899704944635255 107.90379458233512 101.84307163796072 0.5090995120355392
1.8128514485884446 12.876381819226658 99.43060318308122 106.07338021907606 0.5181217533951437
1.8303865666646628 12.851646675986878 91.70061014017377 110.50284316529346 0.5274445849232025
1.8474541217464875 12.825606137341968 84.64784967675855 115.14293794075137 0.5370921782381086
1.864053004186136 12.798225868306035 78.20163732311327 120.00598225622895 0.5470839418398737
1.8801119662638766 12.769453630700804 72.31512479704331 125.09967727187377 0.5574076405287506
1.8956459268470496 12.739212047769309 66.92526405309893 130.441582584067 0.5681005581783296
1.910641488465086 12.70779277215154 62.007267904373904 136.0477880116829 0.5791945651734218
1.9250519517992999 12.674692521559503 57.49024492477115 141.93470778881513 0.5907076009348533
1.9388879161789618 12.640300117474373 53.357471341431165 148.1200374127125 0.6026591414684427
1.9520824907868473 12.604238473205488 49.563192861080594 154.62283863359275 0.6150847134430575
1.96466429004895 12.566808631251993 46.0865384265969 161.45983124474134 0.628002511853338
1.9765976978679936 12.52793224967685 42.89817457082814 168.6450836012709 0.6414018561627894
1.9878853564495842 12.487682684666616 39.97101861933388 176.21286731280847 0.6553637229687895
1.998467360328858 12.445674289971263 37.27565153118084 184.18909229180127 0.6699276312797221
2.0083860388197348 12.402347782277483 34.800114984954845 192.59195060971714 0.6850841950041849
2.017550531212582 12.357410838344569 32.52419650203303 201.44918083991206 0.7008794564586396
2.0260169077013788 12.311069212236813 30.43088100937525 210.80402953319472 0.7173971974250277
2.0337154451061177 12.26322623203853 28.506656667356953 220.67689623722146 0.7346183408565596
2.0406586387405463 12.213739089269195 26.728957549312284 231.1093843425384 0.7526218596653145
2.0468482056935056 12.162865468617769 25.092360354774502 242.14711443797808 0.7714770566417276
2.0522438782811485 12.110465176337271 23.58268446897685 253.81738173564594 0.7911693322283756
2.0568408419003674 12.056444556129486 22.18966492205102 266.1865003832408 0.8118393649105935
2.060608998219038 12.001109879112773 20.90758642717958 279.28435334033765 0.8334709577789925
2.0635829833989088 11.944185125809579 19.72185385268998 293.18399410039507 0.8561870587419187
2.065715721139749 11.885948865560872 18.631069248926327 307.9352610695295 0.8800363263772409
2.067015109276095 11.826192697383133 17.621897144769317 323.60404227368923 0.9050793923678168
2.0674689171631417 11.765031918017963 16.6907845967462 340.2710700305342 0.9314473663117536
