M[M_sun], R[km], Lambda[1], P_c[MeV/fm^3], rho_c[fm^-3]
0.23841724892012095 16.20908015294055 2780876.1263280716 3.453507347168396 0.169602847481901
0.24841670389252082 15.86615356449192 2281953.665722175 3.635583201782663 0.17197890671537985
0.2586988220399603 15.562842122175216 1881495.0181431144 3.824837475178154 0.17437578311581262
0.2692647941439708 15.293482626676296 1558129.3181122623 4.020380363662714 0.17676787934260918
0.28011959828897826 15.053758565204035 1295336.5102234716 4.222533407470723 0.1791469853273397
0.2912492515602684 14.839747458532662 1081101.1158729563 4.432666970745224 0.1815498983793228
0.30267349222345813 14.648319002432 905512.4042583308 4.651128717900947 0.18398047214891297
0.3143776072912185 14.476875257050548 760920.6882496122 4.8782859357164625 0.18644035728065247
0.3263648672624165 14.32307540073057 641465.2184865772 5.1114657043355605 0.18887011604000106
0.33863525889131485 14.184858937346556 542418.2883338748 5.353837600155443 0.19132141283235699
0.35118823911945785 14.060528211129968 459916.34003442404 5.605909161058217 0.19380268917464472
0.3640257809975975 13.948686048253709 391045.4277856942 5.868093011315449 0.19631953709859296
0.3771522734471598 13.848095773639795 333321.95335419505 6.137313955974691 0.1988125698393576
0.3905578493958882 13.757426039227875 284803.20543787087 6.416936308849803 0.20133520838569502
0.40424880849322226 13.675890452638523 243927.61985989285 6.707799436028889 0.20389243761785736
0.41822214057773943 13.602446692401896 206774.8524565587 7.01004514040625 0.20647649322103045
0.432482588619 13.536373274943466 180080.19251067084 7.3202105522358565 0.20903643794705737
0.44702352775130355 13.477055426734289 155209.29495250553 7.64292218188193 0.21164083909157738
0.4618497568068716 13.423774733693726 134027.3418453021 7.978714023718699 0.21428971909487057
0.47695910738591685 13.376122597680475 115948.83477545915 8.325722725249522 0.21694650600857948
0.4923510888602827 13.333488811107117 100498.43834943285 8.683768299513964 0.2195996893239388
0.5080227929199197 13.295391612406833 87241.35825333092 9.056418970515844 0.22230102808739027
0.5239744620468422 13.261575751811169 75865.42161884795 9.444280040893046 0.22505333842522077
0.5402139421243407 13.2315166496239 66076.47316452066 9.842034347214398 0.22778086899259237
0.5567222944418732 13.205027217845222 57641.76384588512 10.255658912709864 0.23055381396095226
0.5735058831860819 13.18174245925723 50357.01945469462 10.68621350354103 0.23337736359877706
0.5905775646680428 13.16134875215575 44050.26129955382 11.130830176131917 0.2362062059532635
0.6079023833735702 13.143592674145756 38591.679782140134 11.590107079006277 0.23905142496604068
0.6255109057255072 13.128361556754548 33849.927951897596 12.06823527436731 0.24195599083057465
0.643384772854818 13.115302850801646 29735.493808338775 12.565026828948808 0.2449099369947727
0.6615234565769448 13.104444966858843 26154.086946992164 13.075193909866927 0.2478416213787854
0.6799257820487643 13.095228117885295 23026.51041005464 13.60632659790211 0.25083194203372894
0.6985768389926179 13.087780791064779 20301.28069516906 14.159331499034348 0.2538826992708477
0.717498693140867 13.081932463275821 17918.16776978179 14.72834351834516 0.25693113408002755
0.7366673643389742 13.077430691712841 15832.218472713887 15.318678628071712 0.2600265068912163
0.7560755093122725 13.074182392818571 14005.32661079479 15.933279392582202 0.26318776230140484
0.7757248294625713 13.072019853364454 12401.754031477214 16.56939066840143 0.26637565520355466
0.7956160749311496 13.070950298703659 10920.650235737174 17.225825402449946 0.269575628710151
0.8157431575112466 13.070734138710009 9755.47269887827 17.909320652465453 0.2728475801405534
0.8360895612617002 13.071361421803799 8665.517732705206 18.62076684502192 0.2761918523541167
0.8566446210938222 13.072613902936583 7705.125595087034 19.35124119188001 0.2795240886327689
0.877437604486047 13.074499073301638 6856.869045977018 20.111763450763586 0.2829270976407591
0.8984134787957399 13.076851505644202 6108.6226577523985 20.902199449460955 0.2863933852624505
0.9196092243352891 13.07979869034408 5446.917342746391 21.71175371011962 0.289836715640972
0.9409910016423897 13.082938013613868 4860.90351747934 22.571372746843103 0.29349298982412203
0.9543072192061544 13.07967996535522 4516.237235995919 23.634444433437427 0.6890162336001981
0.9573702313464902 13.061630692802558 4389.329156288062 24.96841143064607 1.0080646952364933
0.9547961191423278 13.031869585424607 4361.629192851286 26.63633695750546 1.306819735878834
0.9487105300122135 12.992714774774514 4389.006130401428 28.582937879020648 1.5950232404361104
0.9401522025089887 12.944983206809724 4450.111530382005 30.830587322989913 1.8690171566801863
0.9298334744727571 12.88950126916718 4534.660726618626 33.38724568835865 2.121290533103033
0.9183075950436329 12.827393529800956 4632.45160302623 36.24890351070959 2.4293188640985077
0.9058606167276356 12.760292791884414 4744.146956712565 39.42723991728706 2.723681075660863
0.8922661659174332 12.684556791987617 4864.904413272314 42.936007245398095 2.9313163205284023
0.877816766451245 12.59831083251547 4982.542080459206 46.610236353076836 3.012418187404651
0.8629417606008795 12.500291051134079 5081.460541968845 50.46414765816119 3.054661906270766
0.848172934350734 12.390200224986769 5143.576607230654 54.48173553054628 3.0740751813513856
0.8340481680001421 12.269665419027298 5157.285778863066 58.6482907961802 3.0935971310904886
0.820953507763384 12.13983789088659 5113.753136913382 62.871066562983806 3.1132601305219487
0.8091372114981126 12.002037506934675 5009.952111188315 67.25542062238094 3.1336428777952454
0.7987999301956521 11.857606178366614 4846.533222137784 71.80391965887878 3.1547539421781896
0.7900269855641255 11.707614291019844 4628.284001609288 76.51821281480127 3.176597206795697
0.7829213110095274 11.553515605277266 4363.576717012744 81.36671468030198 3.199016720970541
0.7775064782849163 11.396758782792975 4064.306155326546 86.3506549463474 3.222013362564388
0.7737776884025603 11.238330010587974 3739.955671367488 91.51937223795773 3.245818927469423
0.7717367415365433 11.079922863891058 3404.5373192219813 96.87674802392266 3.270446807277454
0.7713243250675546 10.922552093773458 3067.905173958229 102.42756418273045 3.295914339953917
0.7724723492483692 10.767321592294321 2740.104005664299 108.17092983218389 3.3222111904772462
0.7751134162396505 10.615315986591947 2428.0055134593617 114.07226193033146 3.3491644138407697
0.779167207382954 10.467259764605107 2137.2487006607944 120.1919547950914 3.377057327779241
0.7845350009233062 10.32390253417759 1870.880107148519 126.5370152111514 3.4059162602554585
0.791118839762079 10.185729554284483 1630.6691745766996 133.11524866229612 3.4357708562861204
0.7988224821188988 10.05298524869146 1416.4061567069878 139.9352325981716 3.4666530852576836
0.8075512650776395 9.92607428555869 1227.295735732617 147.006374783882 3.4985963622479144
0.8172054828791644 9.805055373082173 1061.836701940779 154.3390086688369 3.5316360350313043
0.8276863906837403 9.689804138805586 917.8603793805261 161.92948315226616 3.5657508187675235
0.8389207919545986 9.58045149231743 793.2886074920638 169.79497316255092 3.6010120596616817
0.8507970231379842 9.476702357057247 686.0540174579899 177.9618298256711 3.637534685054605
0.8632684540214434 9.378378921568386 593.7212902043037 186.4433506504535 3.675356689675267
0.8762087586585072 9.285340606969799 514.5527730954074 195.25435961271825 3.714542512079848
0.8895921135751215 9.197196332618093 446.52172251078434 204.41049589946982 3.7551565617104585
0.9033208102876124 9.113725641196767 388.2696281834788 213.92845233371375 3.7972542848106383
0.9173386020201173 9.034630399484344 338.3172208830282 223.82638163380975 3.840903062223305
0.9315718727056769 8.959608250428964 295.451232705867 234.12376011597183 3.8861848709492346
0.9459889673704847 8.88841223399488 258.57913883822783 244.84124588136424 3.933166869446449
0.9605108713679296 8.82070092090801 226.81097441148395 256.00140685938595 3.9819384335028647
0.9751058471291386 8.756192712435258 199.4410712764781 267.62812093775096 4.032592229244146
0.9897055615516047 8.694703154870355 175.41343772699392 279.7471040287713 4.085214779981694
1.0042677496727384 8.63589170728772 155.37262652083334 292.38626620732197 4.139925645876168
1.0187522472105448 8.579566066987374 137.6223338842194 305.55668970494 4.19671918197935
1.0331434202207632 8.52548648504488 122.20908434922151 319.29531885368715 4.255764832445959
1.0473780041850524 8.473409220031725 108.77524089502505 333.64599549061097 4.317212131142048
1.0614077900199688 8.4231851902645 97.06942562956552 348.64518549681907 4.381210556906484
1.075224090129202 8.374545359421596 86.79804144836521 364.33282260083956 4.447900580742964
1.0887924599146872 8.327402425748724 77.81717194460359 380.7513325025589 4.5174348699534495
1.1020654116446535 8.281546039487724 69.90712711346589 397.90855408173934 4.589794997562327
1.115024582208468 8.236752095047276 62.86008838316345 415.8730010162256 4.665249934964553
1.127635111815227 8.193007381825138 56.82720736732213 434.7125630695001 4.744070526176405
1.139888111258927 8.150001620982374 51.40279770511568 454.47978187115643 4.826429911885508
1.1517398481927892 8.107763884353798 46.58098661411716 475.17635714155244 4.91225015986558
1.1631791959475977 8.066123971350235 42.31412624512646 496.92918029703554 5.002071284784709
1.1741732325217058 8.024994132038765 38.51785220239209 519.7898317802347 5.096041541334219
1.1847056740119406 7.984231181479393 35.135356609835306 543.7950602032133 5.194228381454888
1.1947474346174802 7.943730965976558 32.11264329641204 569.0858981322166 5.297210553606935
1.2042947093065501 7.903546509209976 29.41603257971139 595.6699156882902 5.404878454532635
1.2133344180229484 7.863332725183379 26.996165770893704 623.7173425446302 5.5179432256295815
1.2218254263850785 7.823245204094101 24.82589141548622 653.253591588253 5.636331429047162
1.2297696993549112 7.783116826729208 22.874645468370797 684.4578181413054 5.760796488536632
1.2371437057701364 7.74290253070046 21.09739382243306 717.3791582425586 5.891332514457025
1.2439321880463603 7.702508059935972 19.53966509567381 752.1941780784095 6.028613148233601
1.2501335092135033 7.661920923375254 18.11431767544599 789.0393660899795 6.173084162571614
1.2557196489595073 7.621164327989798 16.807877483661784 828.0208167624933 6.324958474937424
1.2606941720487468 7.580066340630887 15.64350195797853 869.3482023843154 6.485007054785002
1.2650456834280244 7.53860943254898 14.588192557609894 913.1968631960694 6.653754048366931
1.2687524642447379 7.496861082290733 13.647129622356221 959.7602396153549 6.831782444688035
1.271822432580408 7.45470253849918 12.766831070687777 1009.2454948575593 7.01969624900711
1.2742432637303793 7.412138850585158 11.976571150859966 1061.8908220644375 7.218209022361888
1.2759981921289805 7.369215210048306 11.274422978424706 1117.9673286909308 7.4281606707772445
1.2771012011650849 7.325795582867799 10.622030974337777 1177.7621346656713 7.6503967723752675
1.27753148514735 7.281958586622377 10.02852763837546 1241.5924827658332 7.885841725921888
