M[M_sun], R[km], Lambda[1], P_c[MeV/fm^3], rho_c[fm^-3]
0.23841724892012095 16.20908015294055 2780876.1263280716 3.453507347168396 0.169602847481901
0.2484159554179576 15.866223497224482 2282239.2680485323 3.635582420039323 0.1719788967713089
0.2586978663825802 15.5628777421464 1881472.8793590711 3.8248358671207834 0.17437576344428174
0.2692642250581634 15.293529096510046 1557928.550732204 4.020377772928842 0.17676784764989578
0.28011921930776756 15.053766106361746 1295355.1654573877 4.222529859710616 0.17914694384178945
0.29124949855137383 14.839753416679768 1081174.9528994893 4.432662417036746 0.18154984714090475
0.30267341097509187 14.648352192241735 905467.2675998195 4.65112310674425 0.18398041137714785
0.3143778063386917 14.476856991022398 760929.0162535872 4.878279213513351 0.18644028723455888
0.3263629036233516 14.323129246701425 641527.929262359 5.111457478924271 0.1888700303303134
0.3386354800798658 14.184778610784743 542407.4234928131 5.353828108320986 0.19132131812176956
0.3511880401831576 14.060528157760631 459934.7708414425 5.605898343320085 0.19380258520488444
0.3640229501302548 13.948776154367042 391072.1373874213 5.868080803850563 0.19631942405534633
0.377152271868616 13.848081974564638 333327.70340459445 6.137299723800836 0.19881243804695403
0.3905567143241397 13.75744833810641 284808.5310262275 6.416920503412734 0.20133506751305433
0.4042467427987523 13.675928441088296 243939.93648347034 6.707781986507506 0.20389228843283055
0.4182215715847453 13.602440450685096 209370.49651928566 7.010025175681316 0.2064763225322214
0.4324802845767878 13.536408857552066 180088.05762415152 7.320188736544878 0.20903625811341697
0.44702131848283283 13.477028083050147 155199.54495278676 7.642898429802044 0.21164065025042192
0.4618474440324251 13.423805796516904 134031.38091716878 7.97868824649123 0.21428952173785817
0.4769592812373928 13.376110089019775 115950.46029389695 8.32569371294782 0.2169462838830156
0.49235016514168317 13.333484086520084 100496.45096522532 8.683737017012438 0.21959945917252097
0.5080195234234851 13.295442369633605 87250.94829796313 9.05638531631398 0.22230078908700865
0.5239729107933909 13.261577167553899 75867.80452445448 9.444243904133279 0.2250530906237129
0.5402118286668077 13.231548508962065 66077.80876219811 9.84199411756724 0.22778059312482526
0.5567193764938598 13.205022122215341 57642.51662181271 10.25561590280769 0.2305535297425951
0.5735051056817299 13.181695708567217 50355.328553772924 10.686167589648953 0.2333770714748632
0.5905756410251172 13.16137475041076 44051.67558920495 11.130779353518268 0.23620588259795336
0.6079013007888997 13.143582201110256 38590.69096567206 11.590053009715039 0.23905109246621759
0.6255109027073906 13.128323619897952 33851.662137519306 12.068177804117939 0.241955649109744
0.6433806480117857 13.115356245668417 29737.23534457544 12.564963503462096 0.2449095604584229
0.6615214333590081 13.104443041975337 26153.087075851636 13.07512678307897 0.2478412363596177
0.6799240456058797 13.095227422819116 23027.500691665457 13.60625549673566 0.25083154853882444
0.6985740979486038 13.087756726316787 20301.134949941716 14.15925623496949 0.2538822960498482
0.7174956702626186 13.081928729969656 17918.341421191235 14.728261021256776 0.25693069210870295
0.7366644767482077 13.077481344019995 15832.93524106334 15.31859147184874 0.2600260546805229
0.7560726985186929 13.074177920872584 14005.334386649425 15.933187353456692 0.26318730104425364
0.7757215399850758 13.072012442747328 12401.925596828762 16.5692900716078 0.2663751510593639
0.7956155143583784 13.070940554127764 10994.049436385047 17.22571935223696 0.26957511467475936
0.8157397674475052 13.070735084215693 9755.290053329756 17.90920887903798 0.2728470547308012
0.8360868409305322 13.071359167311742 8610.869802173062 18.620644970237866 0.2761912794612429
0.8566426887938539 13.072542358680217 7705.156118619257 19.351112904601877 0.27952350352252
0.8774346967761836 13.074492658801017 6857.262320571252 20.11162843178464 0.28292650185531104
0.8984097387886864 13.076843247336308 6108.855796249791 20.903443321604456 0.2864021629306524
0.9195983617744684 13.07975950717956 5447.049506586472 21.721445418454273 0.289902267752305
0.9409692289102113 13.08285980897198 4861.449268224299 22.568354610101444 0.2934475009746171
0.9625242619611334 13.086316743320253 4342.445704348513 23.450094425363073 0.2970761695479276
0.9842578424643018 13.089961720722922 3882.455934829385 24.36744338727412 0.30078484451333
1.0061652493799136 13.093838139858466 3474.0732169503412 25.311325115033558 0.304485943235936
1.028200294055733 13.097586470515534 3111.602604318591 26.294070862929267 0.3082736531171916
1.05041377442031 13.101558008661092 2789.0965909187803 27.317182210770593 0.31214981552398297
1.0727430864685406 13.105355861310134 2502.0828433600814 28.37736129174056 0.3160841714919158
1.0952045459218707 13.10913350245842 2246.7475848821377 29.473891517307248 0.3200647725157482
1.1177582689790735 13.112543124649925 2018.9562692818863 30.61546112945737 0.3241343799777252
1.1404524259188504 13.11593135522921 1815.6854070098675 31.80392366695986 0.3282940537321072
1.1632026380672154 13.11882744069927 1634.0695797917588 33.03411494904145 0.3325077042441555
1.1860471979279474 13.121557679814163 1471.9579377592095 34.309634016268696 0.33679234278519476
1.2089510505100474 13.123883193179 1327.0521226075298 35.63767530899281 0.34118273521175724
1.2319227701895523 13.125846067619603 1197.2067154564513 37.02026021978674 0.3456776411239747
1.2549161714406611 13.127274574927775 1080.9662127353045 38.45421242840276 0.35023705402930694
1.2779364298696179 13.128221359433114 976.8223824712637 39.94067026824251 0.35487226197978483
1.300950772696989 13.128504559222014 883.3164285368342 41.488619666932216 0.35962474179690657
1.3239881716943245 13.128340750587773 799.4125746904276 43.10052297847641 0.3644966411062347
1.3469883923051744 13.127436834298441 724.0193821626987 44.778971979489086 0.3694896733065104
1.3699530095745538 13.125901427892739 656.2365007955334 46.51684187752833 0.3745402207308411
1.3928848053073373 13.123740669721135 595.2558631538216 48.32585574472071 0.3797159834117485
1.4157011011257528 13.120577554089653 540.3434833230602 50.210379709628896 0.3850272316203205
1.438471150802594 13.116892957191167 490.91055870646653 52.17361154579382 0.39047675893944966
1.46111110527886 13.112168513393424 446.31499433228146 54.218940217462126 0.3960659987847017
1.4836608398562054 13.106728819452048 406.0571358145265 56.34556796629261 0.4017681350170719
1.5060477276673838 13.100346344681347 369.7547654181088 58.556852757156925 0.40760076460160816
1.5282889830152442 13.093043787457196 336.93202501477504 60.8621098718449 0.4135942987969038
1.5503413106322117 13.084769993226727 307.27345393401885 63.25930838328917 0.4197174820102596
1.5722162568021083 13.075532903669163 280.441394001835 65.77654513776062 0.42608306049087025
1.584052371453594 13.062509528570454 265.397215788078 69.00447340341876 1.156492632731661
1.5816151563710077 13.037903399432642 263.042523655485 73.33319738066535 1.8263224321803964
1.5712278430367606 13.00212341326618 266.5936522405567 78.9908888407581 2.431648895273134
1.555886932138737 12.957602634489586 273.76015961983126 85.87119702485596 2.990869737109821
1.5372842562019156 12.90581424713319 283.2934858851678 93.97994765920143 3.644851029764028
1.5159873785725402 12.84740446562871 295.05121359481046 103.37083542621546 4.222797425353609
1.491627164966041 12.778928595203483 309.05126507384136 113.71382988363362 4.419996909185018
1.4640896953220703 12.695302600929784 324.65200413135096 124.61982219515204 4.474586012968776
1.4351024145839024 12.598712499064561 340.38674223771517 135.9720445067364 4.530311564409953
1.4056490244927111 12.490769769772422 355.21794126771795 147.7923701374043 4.588105692410001
1.3763476788429623 12.372863821631324 368.48291134023526 160.1055081869627 4.648125453636425
1.3476206021998627 12.245997997660908 379.4955081900866 172.9376126518052 4.7104637405114085
1.3198071027010285 12.11093938622236 387.6372803433563 186.31816208724223 4.775248889374163
1.2931928298606112 11.968845734065217 392.5069992081096 200.2780155820015 4.842612564690638
1.2679424305530869 11.820425334702124 393.7688821838956 214.85070451658265 4.912678594363768
1.2442192812182602 11.666704175765544 391.2642698172866 230.0731597362476 4.985620884316762
1.2221439050012952 11.508500313584328 384.9001508747596 245.94210612122598 5.0613450586976185
1.2017611855107038 11.346888849814915 375.01206615321786 262.51202780688755 5.140124671197967
1.1831581404281393 11.18270005067925 361.73242220197835 279.8511346987047 5.2222258661046554
1.1663048817189543 11.016881185840061 345.6634120155274 298.00746285991653 5.307864670114924
1.1511954818466288 10.85043146559858 327.35713277197794 317.0345146469196 5.397247335810731
1.1377853403480043 10.684038680453147 307.3287458780239 336.98868457781987 5.490595868977673
1.126007710873185 10.518702566715088 286.27451150780973 357.8521387229225 5.58774879764189
1.1157644000458693 10.354965299968496 264.7759121050673 379.7317986202767 5.689172328992331
1.1069775652594642 10.193479926499677 243.2641113178289 402.7302843342773 5.795318549001452
1.0995287834411207 10.034897496727861 222.26758995100604 426.9152339192949 5.9064271388630285
1.0933129874450873 9.87959180333487 202.09241214999273 452.2490402385558 6.0221950718699055
1.0882091654614159 9.727942170517823 183.0168643569038 478.9437067905986 6.143609786683866
1.084086807451586 9.58024739791885 165.23081140178496 507.056674031571 6.270831462082558
1.0808528942540192 9.436711317576355 148.78043009945128 536.6128405862561 6.403842679159435
1.0783677944106644 9.297475054809423 133.7599872015743 567.8385732341794 6.543661697021045
1.0765385488092383 9.162429295961573 120.085791591479 600.6967275991939 6.68990468254656
1.0752445276008638 9.03174007860885 107.76414807578132 635.4599869488356 6.8438141771852825
1.074400087927361 8.905294926796646 96.71747699079677 672.1191406089786 7.005075758048979
1.073886997017312 8.783090142476746 86.85063915725675 710.9535748513235 7.174967961599477
1.0736387446301408 8.66490587937629 78.0528841848083 751.9904531581559 7.3532933112929255
1.0735574307743894 8.550624550395257 70.2397033267085 795.4935403652647 7.541152327732684
1.0735743426271465 8.440085098829552 63.32380521943403 841.6438502523213 7.739176695102886
1.0736076926652944 8.333241957624036 57.18851250018482 890.5600447524743 7.947554605220611
1.073610122386205 8.229766521306642 51.75965476843103 942.547791190528 8.16751022975274
