M[M_sun], R[km], Lambda[1], P_c[MeV/fm^3], rho_c[fm^-3]
0.23841724892012095 16.20908015294055 2780876.1263280716 3.453507347168396 0.169602847481901
0.24840635509772324 15.866495128693845 2282448.755565643 3.635405146665487 0.17197664178694844
0.25867822713417843 15.563401258064319 1882153.8634253605 3.8244712255751954 0.17437130274682508
0.2692331353104919 15.294196009184484 1558880.036950068 4.0197903217431605 0.17676066129924103
0.2800768986368342 15.05463347394361 1296269.130752772 4.221725428347366 0.17913753726504314
0.29119518998446164 14.84068493691027 1082048.7273920313 4.431629926289581 0.18153822953455037
0.3026050096499622 14.649465990191569 906414.2025913168 4.649850893438804 0.1839666326408985
0.3142949240443176 14.478046125196824 761852.6364979042 4.876725143696948 0.18642379956620264
0.32627024328345655 14.324217562597651 642327.0491384397 5.1095926622722905 0.18885059873630525
0.3385277341368906 14.18597627127613 534557.2671585506 5.3516762383427645 0.191299846522086
0.35106543083122094 14.061657412668351 460674.50805942697 5.6034459505275604 0.19377901514914495
0.36388900502525057 13.949933119148833 391738.15742550895 5.86531343496828 0.19629379773850075
0.3769979396639769 13.849163862423804 333928.34437725315 6.134073485377319 0.19878256251840062
0.3903885593321874 13.758589966402987 285388.93200559856 6.413337724144665 0.2013031344779713
0.40405920206170254 13.676859505680904 244429.23206020126 6.703826629633745 0.2038584720313262
0.41801572828033695 13.603449943310883 209832.90433427718 7.00549986145405 0.20643763326909628
0.43225742738818135 13.537313388902533 180498.073171464 7.315243998400571 0.20899549707301884
0.4467796855931495 13.47800257192759 155585.44439477334 7.637514924870558 0.21159784863908473
0.4615883423619112 13.424700759036563 134367.033714725 7.972845876704963 0.21424479106821004
0.47667129787765733 13.376977635462234 116269.99610305206 8.31911837741273 0.21689594144109467
0.4920508552295594 13.334248139674594 100771.632990565 8.676647333667532 0.21954729900008288
0.5077022354912103 13.296254867741055 87502.22147269834 9.048758303227846 0.22224662470523063
0.5236326029190362 13.262272127810906 76098.73414400306 9.43605446036857 0.22499693294586245
0.5398480912960514 13.232178486119519 66279.40000454364 9.83287749539906 0.2277180774832855
0.5563320970657503 13.205561255036393 57823.89823643301 10.245869454437264 0.23048912318959022
0.5730968080371933 13.182235764904444 50518.39718483067 10.675763300553566 0.23331087491617403
0.5901372188339469 13.16181479429892 44200.549876560886 11.119263200362456 0.23613261188226456
0.6074508088872848 13.1440500418093 38722.701539957336 11.577801442112746 0.23897575128887227
0.6250316385258317 13.128718744532506 33973.095594449194 12.055155893106562 0.24187822020877367
0.642880569223807 13.115723827534254 29847.218218670925 12.55061548586919 0.244824246464774
0.6609896568381991 13.104712542779549 26250.936628896205 13.059917805062613 0.24775400221307492
0.6793702964664978 13.095467527072051 23114.936794491714 13.59014637696067 0.25074239590091424
0.6979930439248384 13.087972638358083 20380.700767098388 14.14220429627496 0.2537909416992962
0.7168897060568988 13.082078005519406 17989.334243363104 14.709571161562767 0.25683056273193
0.7360265262432051 13.077531880170744 15896.164324108655 15.298846482247333 0.25992360765914285
0.7554108253556224 13.074310577030563 14063.22048824915 15.912336581224002 0.26308280670288337
0.7750358448801566 13.072092122301688 12454.444666944099 16.54650162700862 0.26626094600821903
0.794898038176204 13.070986130097545 11041.38338416309 17.201696015402096 0.26945867129372847
0.8149964323760608 13.070730101397858 9797.958269162158 17.883889583101848 0.2727280371315054
0.8353170255270659 13.071283393768859 8704.225453086096 18.593038725043424 0.2760615116731929
0.8558474936762726 13.072541382037926 7739.948553451729 19.322054728015225 0.2793909709972119
0.8766014649159628 13.074388795208025 6888.867819456417 20.081046079445137 0.28279155400847616
0.8975550082202505 13.076746384322622 6137.500700255794 20.87126118444066 0.28626446052879806
0.9187143174571849 13.079643100064308 5473.05265025613 21.686462112410894 0.289752579580806
0.940067317845422 13.082809409919129 4884.678605517393 22.531577819974874 0.29329458174565104
0.9615839212598772 13.086180512245903 4363.849349252563 23.411428920289538 0.2969198519450907
0.9832831926511033 13.08981012683455 3901.6668319466185 24.32547814129976 0.3006151866583325
1.0051638007310242 13.093639907988694 3491.611099469707 25.267241882223125 0.3043131852107514
1.0271848921692108 13.097512309846225 3127.550131953416 26.247759707891582 0.30809718712404155
1.0493517871908908 13.101337799733482 2803.51407851021 27.26852244314462 0.3119692376852066
1.0716605093709297 13.105171186647583 2515.291684048925 28.324658345011162 0.31588858929574315
1.0940864167793232 13.108831881239285 2258.589293904424 29.418545164839195 0.3198646263781772
1.1166324162585313 13.112381478481904 2029.718793121977 30.557328898559902 0.32393016300478855
1.1392806948455243 13.1156930548031 1825.4284999726146 31.742854478568706 0.3280848795811578
1.1620217241915232 13.118707707758432 1643.0915738712242 32.96807964020908 0.3322815201401648
1.1848260824350085 13.121430388434606 1480.2478630569615 34.24028680738851 0.33656047997356087
1.207710358459968 13.123772429681782 1334.4517063871622 35.56482672891751 0.34094483973359047
1.2306401526736026 13.125678645747065 1204.0289636187367 36.94371436918851 0.3454342549518483
1.2536225772881637 13.127170909664626 1087.1451771221525 38.37154532188336 0.3499742046330396
1.276620497233244 13.128106140296238 982.3861953261247 39.85382961760888 0.35460230782024227
1.2996251234561191 13.12856061441331 888.4693254294383 41.397360718149116 0.3593471808215846
1.322621132715357 13.12833779672213 804.0901382914222 43.0045849701517 0.36421103965166546
1.3456178826220353 13.127529166645045 728.2928203156443 44.67678334805305 0.3691890697087472
1.368560885403379 13.12601882163529 660.1309644844807 46.40802914063063 0.37422399229009695
1.3914555646744289 13.12379707924015 598.8232130539491 48.21143516348358 0.37939008857939593
1.4142825175778575 13.12085871781529 543.613597877125 50.09001152634656 0.38469105449512736
1.437009191369864 13.117052272984475 493.9023427524251 52.046934279897286 0.39012980378231377
1.4596603260020202 13.112524219436418 449.04443231008486 54.08557425414608 0.3957084040472082
1.482168539252832 13.107089646847399 408.60639146325224 56.20184062687461 0.4013827582767711
1.504592298728829 13.100999851046058 372.05455547290705 58.40552018230292 0.40720224047010245
1.5267948313815325 13.093633970374503 339.07680013105534 60.70269680932888 0.4131817880216653
1.5488355410388437 13.085377682373258 309.2163433689166 63.097599904495254 0.4193246870532408
1.5706983721270908 13.076184903050525 282.2225506222778 65.5947247362723 0.4256320270686036
1.5923423184157273 13.066027209347677 257.78732069607724 68.19890648149885 0.43210806444993605
1.6137707278609406 13.054846074454272 235.66275978777935 70.91516623690543 0.43876839813781776
1.6349342577458144 13.042443416846103 215.56444356265936 73.74792901533016 0.4456161856605967
1.6558240631091912 13.029077394112482 197.37819231698148 76.69961409630274 0.4526399759567614
1.6764094727420222 13.01444115244851 180.8863418198561 79.78137635818698 0.459864543311543
1.6967401223033978 12.998791762114827 165.82542130036572 82.9998444014758 0.467308718839887
1.7167153975688196 12.981917160090964 152.1816310968803 86.36203736662912 0.47498362144647877
1.7363234531033007 12.963737977869304 139.77151970392816 89.87543366612218 0.4828944342148161
1.7555869523204832 12.94451746332331 128.49395805899502 93.54804108278384 0.491048481300267
1.7744396691735471 12.923775807522105 118.20372350283976 97.36714471319239 0.49938318294058653
1.792901612284327 12.901933283132639 108.8343965606618 101.39535348378527 0.5081182005884178
1.8102876819542992 12.878949329438125 100.53134375522835 105.6823168993985 0.6178663136415807
1.8246596014711256 12.853776914390298 93.72545047070747 110.34659298709774 0.7670580010568433
1.8360921865222415 12.825165536172232 88.06777700814567 115.45172704287226 0.9158739897860095
1.8447906885354317 12.792179532073293 83.26595711367429 121.01936180767511 1.063829956787382
1.8510465667313787 12.75504988320543 79.1527216895294 127.07256070967814 1.212403546632645
1.8551015989913775 12.713557310039215 75.57084153699277 133.63954040132174 1.3597437180013219
1.8571940365721273 12.667692664694696 72.3916855553245 140.74279380169884 1.5082334731553317
1.8574912238466545 12.617736223859001 69.56327324249051 148.41018704699752 1.6573446570909343
