M[M_sun], R[km], Lambda[1], P_c[MeV/fm^3], rho_c[fm^-3]
0.23841724892012095 16.20908015294055 2780876.1263280716 3.453507347168396 0.169602847481901
0.24841597407885374 15.866206891245694 2282079.3232425977 3.635567748547213 0.17197871014438046
0.25869599051776876 15.56299343921544 1881722.1720734197 3.8248056877378507 0.1743753942567925
0.26926211732981015 15.293620473398022 1558108.6315062603 4.020329151214963 0.176767252855479
0.28011433969909266 15.05390813073069 1295447.4713838238 4.2224632771532615 0.17914616526208169
0.2912440500715586 14.83988411221019 1081200.8010026608 4.432576955587849 0.1815488855269876
0.30266719297646827 14.64840430391886 905484.7688187967 4.65101779998194 0.1839792708497717
0.31437009207656463 14.477003446099122 760992.2768944649 4.878153055639058 0.18643897265567436
0.3263555525225704 14.323203226912426 641541.4977453197 5.111303110323719 0.18886842179256771
0.3386267623130883 14.184937705253935 542434.9217579458 5.35364997285163 0.19131954066610254
0.35117666968238304 14.060667655079733 460007.49066999764 5.605695324806942 0.19380063398496342
0.3640136875225817 13.948838172914275 391120.04694091907 5.867851704625085 0.19631730255669874
0.3771386663416912 13.84816666895727 333388.2439980589 6.137032627447688 0.19880996468829992
0.3905437305991806 13.757499392909663 284848.5678581884 6.416623882194475 0.20133242375103041
0.4042303507899079 13.675928321710384 243961.1926701223 6.70745451144391 0.2038894886783238
0.4182046139938124 13.602524880931895 209408.70388952573 7.009650499061528 0.20647311922708017
0.43246394417021344 13.536572067276431 180124.02577860685 7.319779323879891 0.20903288319533436
0.44700320930662074 13.477162416993679 155240.78005573296 7.642452678107539 0.21163710629698937
0.4618284539144637 13.423916825632354 134054.8613469345 7.978204490186312 0.21428581797649812
0.4769342863657537 13.376200075535262 115983.5867815822 8.32514924648414 0.21694211530923266
0.49232560570044015 13.333584390722368 100515.06672607725 8.68314994750475 0.21959513998853708
0.5079929215070416 13.29551610241264 87273.6114707611 9.055753739086901 0.22229630384623833
0.5239447343647515 13.26164041555895 75890.4042187092 9.443565738922487 0.22504844022442677
0.5401782524095219 13.231593586736954 66094.77934083437 9.841239145287892 0.22777541603450416
0.5566828445476392 13.205120254828508 57660.1444971839 10.254808756273915 0.2305481959508348
0.5734720985648443 13.181740970956957 50366.532576651836 10.685305946966249 0.23337158933380658
0.5905387012865828 13.161491222537471 44065.93418472063 11.129825594757962 0.2361998143748222
0.6078654646121386 13.143624296045619 38603.4199453061 11.589038324342043 0.2390448526450683
0.6254701988505893 13.128424159933825 33864.81679478983 12.067099297054472 0.2419492362555523
0.6433413828839949 13.115460133200244 29747.76058425624 12.563775119283482 0.24490249426968916
0.6614763874841888 13.104460847500647 26160.49844437917 13.073867064910933 0.2478340109931825
0.6798774448920177 13.095256706555999 23034.23406497354 13.604921196805213 0.2508241641279923
0.6985240158373639 13.087746071267963 20307.443710527074 14.157843815722805 0.2538747291306081
0.7174434770173063 13.08190553965777 17923.86362902768 14.726712871543535 0.25692239802471967
0.7366144517448837 13.077461044435173 15724.313502635921 15.31695589120247 0.26001756845850815
0.7560174184825841 13.074192776522976 14009.41871011537 15.931460142926374 0.2631786450709996
0.7756652062614359 13.072011419955281 12406.371762423285 16.567402274693016 0.2663656903020812
0.7955536740537696 13.070918537901145 10998.08536061017 17.223729220077434 0.2695654683163477
0.8156777775325543 13.070742734163764 9759.25662862004 17.90711134902767 0.2728371949390081
0.8360205170348155 13.071372156888032 8669.38371536849 18.61835788803733 0.2761805286475715
0.8565784687455453 13.07259238669662 7708.103721449265 19.34870549078466 0.279512523458726
0.877362409075863 13.074509672482213 6859.80215207612 20.109094696601854 0.28291532148227855
0.8983392963509599 13.076826199376182 6111.158753747774 20.900776996227346 0.2863907541355595
0.9195277934681424 13.07974981784689 5449.276982495568 21.718546890959146 0.2898898654001589
0.9408933470940578 13.082859340993394 4863.183553587162 22.565307428434952 0.2934348306825836
0.9624472928702291 13.086274005175898 4344.121112053821 23.446890693130506 0.29706321744134645
0.9841831566437278 13.090015100692872 3883.97755641358 24.36396609593592 0.3007707864570517
1.0060765639277218 13.093796109303863 3475.735423101854 25.307672257145068 0.304471628030928
1.028120313364091 13.097668146668031 3112.941065641792 26.290233321957928 0.30825903038799796
1.0503357758753298 13.101605401062535 2790.273093852669 27.313149978053694 0.31213485178895123
1.0726471524613927 13.105301705997046 2503.308260853184 28.372993823487324 0.31606796368788037
1.095108361401927 13.10900916918557 2247.603308097203 29.469304904014926 0.32004818618450764
1.117662820573454 13.11252594044065 2019.8356979245934 30.610643554841378 0.3241174559669005
1.1403444645340788 13.115785170052854 1816.3664371323082 31.79886260061989 0.32827671857042495
1.1631060680193934 13.118844768296318 1634.893396251604 33.02864206842816 0.3324889585364477
1.1859466593725752 13.121539406731346 1472.6801735881863 34.303886538059785 0.33677312605709797
1.2088513192280508 13.123846829148809 1327.5792056870202 35.63163751672011 0.34116301810157745
1.231814692748624 13.125801282710619 1197.7463522809146 37.013915863292866 0.34565746852638013
1.2548103111929572 13.127253737023493 1081.4760618900395 38.44736039940563 0.35021526722968455
1.277828498098345 13.12818108746102 977.2275548128645 39.93347215683423 0.3548498858218295
1.3008611305467035 13.128554177922585 883.7020751169605 41.47650179748276 0.35957220400055234
1.3238818836321395 13.12836631625819 799.7712838460758 43.09182309735296 0.3644561641910122
1.3414252722601507 13.124339198365123 739.7436539344683 44.93731113079721 0.7520611947761484
1.3464111732833446 13.107313092503386 715.3877018007358 47.407769932206605 1.1570487428417764
1.3439636802214188 13.078361287946672 708.0666507845143 50.40403850549387 1.5288023588454722
1.3367920393875072 13.039311501096458 709.9781571480728 53.93601148588734 1.871405795851195
1.32635332263604 12.99131863054813 717.4950004194815 58.00105205565896 2.1954088486600987
1.3135253012685197 12.935652559128197 728.7758996774903 62.60193666107539 2.524611099392068
1.2989583958579727 12.87391881513107 743.0813677729593 67.81036108142159 2.9473922413651055
1.2827443644957572 12.8060799683541 760.1652290014728 73.5962361616768 3.251502036318782
1.264743918985868 12.72830356569722 779.0194872014164 79.8094544330851 3.3720911162316294
1.2452812917979559 12.637241991010358 796.6093648247282 86.32137339704228 3.3971528317424933
1.2254891103016976 12.53508574463165 810.3444674733695 93.06419857176907 3.4213460791082415
1.2060717864158006 12.423518201102135 818.2979354640989 100.04306146393093 3.4459493632042837
1.18746619575356 12.30367226003276 819.2172355820088 107.26550290840083 3.471316882350361
1.1699492278223882 12.176777687362112 812.6269743355722 114.72836001217892 3.497452616750662
1.1538216064966937 12.043965418288243 798.0448995626364 122.42714211579164 3.5243321258838014
1.139171962308352 11.906067294300804 775.7545638178354 130.4063379029669 3.5521110194415995
1.126161564869323 11.764300891626783 746.4119046700433 138.67619138356403 3.580806309476373
1.1148732399016554 11.619755247711678 710.8616738043345 147.24867611079367 3.610459486743926
1.1053158392863565 11.473304255995975 670.2012957006212 156.13654444537104 3.641110760277287
1.0974993524822994 11.325956687853875 625.9825365255105 165.35351369796493 3.6727919691394555
1.091403537385124 11.17857195377915 579.3986618636942 174.9146649972743 3.705545194634475
1.0869912184643382 11.03215098204103 531.8796440553393 184.83626802670832 3.739424031502038
1.08419967826934 10.88731450106239 484.5463659537511 195.13555423634793 3.7744680057075164
1.082942101155421 10.744744348604256 438.44068202204966 205.83145118067446 3.8107354057848273
1.083139200562014 10.60520676621685 394.4504262890636 216.94389458848087 3.8482852078776557
1.0846768177814627 10.468943261963993 352.9952351931803 228.4943623835416 3.8871703516152554
1.087476537944415 10.336474638029205 314.58922301174607 240.50621876408252 3.927470200236223
1.0914097523960953 10.208035819829526 279.37173650004564 252.97335926475853 3.9691201317293223
1.0963749970406726 10.083924134014628 247.43868909713242 265.94161301646614 4.012288362917612
1.1022702959041066 9.96405067297511 218.7309958522451 279.4460076842773 4.057060959538106
1.1089850568609365 9.848696894008876 193.10440534709656 293.5165774508366 4.1035337496808
1.1164132400128655 9.737645427813455 170.34472085564204 308.1862632862073 4.151795255933537
1.1244617476849794 9.630958459161866 150.21852523210396 323.489828287254 4.201940424064233
1.1330378173668363 9.52853527846931 132.5142891221851 339.4113731660176 4.253879307892159
1.1420607170090586 9.430165444394166 116.96287694847302 356.02531486109774 4.307847430502078
1.1514303137755155 9.335717107609705 103.33551682007953 373.3889445660571 4.364021506388887
1.1610695606935832 9.245014201276284 91.39593504901661 391.5386164296146 4.422485619501929
1.1708987424006367 9.15793188517343 80.96808745089041 410.45620174510157 4.483128783289636
1.1808664316586082 9.074067237158065 71.84364362859672 430.2671171375951 4.5463651067205815
1.190890588417343 8.993389325150208 63.868968224760515 450.99977282667174 4.612242088297477
1.2009209947685076 8.91572597871846 56.90436750946035 472.6715570178462 4.6807655775610355
1.2108873966097826 8.840666986906907 50.787475331323684 495.41613224105515 4.752363177630005
1.220749545422471 8.768236536833882 45.42970599869447 519.1988899772339 4.8268343530022575
1.230462688323311 8.698057890870869 40.73837887796948 544.19089953724 4.904739910189735
1.2399484129438907 8.630089306114066 36.60758274588432 570.3694591405979 4.9858958361753904
1.2492055895193503 8.564056678375545 32.96594019734655 597.9042812449712 5.070861186806773
1.2581620001050724 8.499887377931092 29.763483676322362 626.7998683884034 5.159529298280051
1.2667912678708426 8.437254411528123 26.931423735554752 657.2045904692027 5.252345097738211
1.2750734107052306 8.376232145232084 24.4290078636062 689.2197943299205 5.349572277789595
1.2829585512780335 8.31650068114255 22.2098636176921 722.8951739039478 5.451243995616502
1.2904323481849138 8.25795643806283 20.24013050899075 758.4045301399585 5.557871134759429
1.2974336791584002 8.200505524928081 18.489239564141005 795.8692060044643 5.669736920140839
1.3039869195548461 8.144047273398263 16.931615793895357 835.422919102565 5.787158533260257
1.3100287521453875 8.088424320069407 15.539488535064244 877.2063704023709 5.9104603858701985
1.315560932694343 8.033532973789702 14.295893229353004 921.3825198621316 6.040027757861743
1.3205432544439766 7.979334901310411 13.184586792391002 968.1443617883019 6.176342600609609
1.324980015469192 7.925701243358635 12.187286473666587 1017.6878853250125 6.319867158756017
1.3288265604749143 7.872561560492899 11.29300961671444 1070.2285862237652 6.471106296867191
1.3321010547084162 7.819825772565373 10.488094983281174 1125.998937436637 6.630589801977761
1.334764002046161 7.76747229612629 9.750941343285017 1185.2462739282114 6.798870172782734
1.3368315992267596 7.71540952441047 9.10164909804815 1248.2706737505443 6.976671107657515
1.3382560666669296 7.663624316816969 8.51476480839414 1315.3896731283178 7.164720234685472
1.3390585824220147 7.612004112219815 7.984704596878544 1386.9534306825 7.363821015430711
