M[M_sun], R[km], Lambda[1], P_c[MeV/fm^3], rho_c[fm^-3]
0.23841724892012095 16.20908015294055 2780876.1263280716 3.453507347168396 0.169602847481901
0.24841815644919596 15.866191060901661 2282103.4691078966 3.635620328793852 0.1719793789850037
0.25870299023075444 15.562739318697323 1881416.8196454195 3.8249138465283394 0.17437671737437876
0.26927203759271084 15.293261546948914 1557802.8240437412 4.020503406138159 0.17676938453384128
0.28012895718785613 15.053557934451142 1295173.4791727434 4.222701903447051 0.17914895562636726
0.2912621892276287 14.839648677653534 1080911.4186838127 4.432883244316357 0.1815523318938324
0.3026869040101873 14.64818927540828 905296.8909175193 4.651395215609375 0.18398335845863772
0.31439290421638644 14.476673887792712 760775.8908452574 4.878605203787414 0.1864436840889625
0.32638376845589223 14.322837326012598 641340.542345156 5.111856369676998 0.18887418681569892
0.33865862141967035 14.184568565508117 542271.7904562021 5.354288416973519 0.19132591113306582
0.35121416698107677 14.06035058497004 459754.7221031984 5.60642295506937 0.19380762727164058
0.36405387092208125 13.948520249918214 390926.6569345913 5.868672814521158 0.19632490617705325
0.3771846603817088 13.847919018562138 333200.100399728 6.13798992975504 0.19881882947405446
0.39059575357290155 13.757251525390956 284696.2015571764 6.417687010908721 0.20134189933520394
0.40428712067219263 13.675683460881253 243824.83176415536 6.708628230874834 0.20389952341571826
0.4182655433287397 13.602191630870104 206674.20010258316 7.010993406931494 0.20648460044436687
0.4325311441839221 13.536303501480775 180007.93385300788 7.321246739912001 0.20904497956978738
0.4470736970475356 13.476871924961472 155122.3070192492 7.644050348919278 0.21164980859521312
0.46190756125713056 13.423719288840315 132469.51915964595 7.979938386810633 0.21429909313023604
0.47701767339405343 13.375957226744532 115890.88978304101 8.327100758996751 0.2169570565855827
0.4924144650589671 13.333286869245526 100435.06869908127 8.685254171352947 0.21961062117061966
0.5080910517605439 13.295330003234717 87195.56000405717 9.058017502531158 0.222312380303177
0.5240467648829655 13.261417941941282 75823.53390010985 9.445996499686244 0.22506510874109587
0.5402864592744012 13.231359473393292 66035.75800753829 9.843945230301049 0.22779397253904476
0.5568010381793775 13.204875835912269 57600.85137850533 10.257701865992448 0.23056731422011134
0.5735928981120146 13.181605832628398 50321.02810331827 10.688394405492437 0.2333912394342809
0.5906662345092732 13.161255318426344 43633.232226003725 11.1332442626676 0.2362215654093085
0.608002751308993 13.143551507476737 38563.86244574465 11.592675395424394 0.2390672188618928
0.625611936169394 13.128273002570214 33824.08633385613 12.070965150386204 0.241972222802959
0.6434901887482533 13.115275060569235 29712.888792080037 12.56803485969786 0.24492782288838547
0.6616386435741408 13.10440229765721 26131.481458089307 13.078382521026011 0.24785991029818685
0.680040637743415 13.095181729647523 23008.664737611925 13.609704012337083 0.2508506336450894
0.69869915807347 13.087702964009013 20284.297282100793 14.162906673299588 0.2539018529711373
0.717627877962651 13.081922722333635 17903.01283461527 14.732262309731654 0.2569521286806108
0.7367999397985256 13.077418392967468 15819.106417544332 15.32281875659988 0.2600479879780339
0.7562163007008602 13.074159034321086 13992.992814718631 15.937651489609765 0.2632096732116677
0.7758682041112538 13.072020239786822 12390.995384538532 16.574169321658765 0.26639960358394027
0.7957662350954291 13.070964669582567 10984.540688390805 17.230863131341092 0.2696000470575619
0.8159006595875136 13.070743587914487 9746.447629565308 17.91463027533879 0.2728725389138599
0.836248927245806 13.071356444638013 8657.231607395981 18.62650345812656 0.2762186051743013
0.8568128064049465 13.072633239169981 7697.963129531905 19.357335364134283 0.2795518837711222
0.8776084908726639 13.074559413137745 6850.752492297925 20.11817743381861 0.2829554000157138
0.8985932981384885 13.076851552685046 6102.759391232961 20.91033507321259 0.2864316516729504
0.9197885564879378 13.079764421044 5441.5241951244425 21.728937453852993 0.2899343250163683
0.9411617948428457 13.082881277428273 4856.346448965869 22.57623092944909 0.29348025099650826
0.96273640658066 13.086437824455624 4313.742271095536 23.458375444136514 0.29710964820031427
0.9844685338944971 13.090037361949523 3878.473425521005 24.376431628442564 0.30082118233719907
1.0063756774012838 13.093863327849222 3470.6048388212907 25.32076722416587 0.30452294596970303
1.028422517282335 13.097657705067364 3108.1948096222154 26.303990410788977 0.30831145098388785
1.0506363646084782 13.101610653682922 2786.0998889261296 27.327605074939065 0.31218849508159763
1.0729721936603622 13.105349232222709 2499.328452622127 28.38865086414442 0.31612606742946053
1.0954307507707155 13.109039595855045 2244.0947367882104 29.485747635947142 0.32010764718131407
1.1180133361777802 13.112593790988834 2016.5491417167418 30.62791434659837 0.32417812779659605
1.1406989745163705 13.115892625719242 1813.4747696785178 31.817006381563203 0.32833886463906964
1.1634695443468905 13.11899031545676 1632.270139284314 33.04826240163461 0.33255616209110306
1.1863142376954836 13.121608529750771 1470.2751349018477 34.32449140156732 0.33684201854265483
1.209216064211731 13.12387457303954 1325.379150897883 35.65328326549817 0.34123370480199783
1.232186730440957 13.125849144674163 1195.7632566634763 37.03666076637496 0.3457297885130714
1.2551945679325929 13.127325910464613 1079.7067563588207 38.471925610317314 0.3502933750905881
1.2782098211317148 13.128157924980183 975.5687396699446 39.95927823330405 0.35493010698131733
1.301241094343185 13.128508286971416 882.1934096885994 41.50817492161959 0.35968421843603154
1.324267013928286 13.128264290039512 798.3797974390943 43.121081465931454 0.36455784243846406
1.3472813972088893 13.127420873095971 723.0757976559535 44.80059196001181 0.36955250467096773
1.3702515918444518 13.125849583319154 655.3733918460701 46.540161478884755 0.374607991484394
1.39317978310456 13.123660375758575 594.4713667968493 48.350377895595045 0.3797858278589774
1.416013999086721 13.120584567022798 539.6608542175636 50.23617731723304 0.38509928193565074
1.438766589118718 13.116725551149695 490.2448783328545 52.200762182783116 0.3905511215605269
1.4614294182055139 13.112108270221421 445.708557490726 54.24752535207857 0.3961426442304753
1.4839711458135745 13.106606817981843 405.52501924793495 56.37637601395043 0.40185074076925154
1.5063514897005619 13.100203181477891 369.26264736689393 58.589292064866235 0.40768619133107453
1.5286030473798649 13.092892947673072 336.49388172897704 60.89628245248767 0.41368272666793493
1.5506683318941399 13.084664263860192 306.8689401396608 63.301614132962605 0.419843347141481
1.5725340194661466 13.075357289733002 280.0521769460198 65.8098177570158 0.4261687236943703
1.5941860149068565 13.065052590354389 255.78661009569245 68.42577682026143 0.4326651259758193
1.6156054911435145 13.05373900637339 233.82589639782523 71.15456942287175 0.43934712014103655
1.6367848381865386 13.041343199668102 213.89304301605387 74.00165539191154 0.44622169634759856
1.6576835016562774 13.027769968366712 195.81581121290543 76.97180025429098 0.45328749026632775
1.6782968186718148 13.01312901397153 179.41406990939564 80.06882441373655 0.4605372210997503
1.69858285674323 12.997247819739792 164.5140885624031 83.30355225531791 0.46800934097261826
1.7185533582465229 12.98028262307861 150.98445585168975 86.68308349253103 0.47571399376636203
1.738154367750795 12.962042289874404 138.67382335525681 90.21497157129777 0.48365575390914384
1.757403596068802 12.942599410083602 127.45979436671077 93.90730401943296 0.491842466669959
1.7762521647158076 12.921817920283404 117.26375485425875 97.76877952320993 0.5002937928444257
1.7946876910838117 12.899899323457266 107.97624976056727 101.80868191547908 0.5090254045194563
1.8126853625993697 12.87652224903374 99.49851030271923 106.03693660916447 0.5180442471903163
1.8302335419836202 12.851798523460928 91.76246119308365 110.46420404414393 0.5273634517694274
1.8473022968003185 12.82572275184832 84.70074148530885 115.10195016339314 0.5370070955993214
1.8638896320266927 12.798368512157685 78.25369704422373 119.96248019273409 0.5469946448099249
1.8799573176545816 12.769688111597183 72.36811146501609 125.05413553388394 0.557316313781066
1.8955234344009226 12.73961056560154 66.97541895230914 130.39318083375957 0.5680044961835861
1.9105075464876913 12.708041298343028 62.043388776016826 135.99631937361073 0.5790934441993748
1.9249195851179284 12.674996677608533 57.53117232315472 141.87994913384543 0.5906011963442183
1.938762670268605 12.640614828101635 53.391909344176604 148.06174749539502 0.6025470161985393
1.9519543964860437 12.60455427822306 49.59855443299076 154.56075553436108 0.6149664104487865
1.964552963235693 12.567210242935689 46.120080162892265 161.39443738833126 0.6278802957070234
1.9764982141429823 12.528254219603529 42.92433055657002 168.57533950232204 0.64127269273801
1.987765346158402 12.488006068540871 39.997520332373576 176.138441021091 0.6552270716306782
1.9983799915536615 12.446130182943694 37.30075682868599 184.10962297048206 0.6697829485120438
2.0082764681009166 12.402703861284804 34.823055441275926 192.50790086158355 0.6849338716083613
2.0174634465192116 12.357933569995486 32.54949794026937 201.35931245712854 0.7007200014855322
2.0259313766059877 12.311569327986748 30.45396935543116 210.70788065031024 0.7172279280767708
2.033641160588058 12.263666816015165 28.523147530506073 220.57488710133214 0.7344416974633479
2.040584147787398 12.214198849382756 26.745377837578953 231.0000926438508 0.7524340044687441
2.0467852489210037 12.163387171978894 25.107972757662193 242.03090029755393 0.7712804148019146
2.052198363844344 12.111037488699496 23.597554430028158 253.69269257182705 0.7909598368875951
2.0567891022921665 12.057091153353447 22.205613731173926 266.0536248603798 0.8116192251278253
2.060576859019196 12.001653437730392 20.91946881055701 279.141577921849 0.8332362390130142
2.0635504077888602 11.944882288414403 19.73512263935589 293.03152104126764 0.8559397040896038
2.065693744719778 11.88655120124767 18.642428168851676 307.77117953716555 0.879771942583298
2.06700965806943 11.826885117355365 17.63318278338249 323.42844668201906 0.9048002807474115
2.0674644840543337 11.765739680319209 16.70083465369601 340.08291416705225 0.9311521178700799
