M[M_sun], R[km], Lambda[1], P_c[MeV/fm^3], rho_c[fm^-3]
0.23841724892012095 16.20908015294055 2780876.1263280716 3.453507347168396 0.169602847481901
0.2484203546690179 15.866080060864478 2281949.6142466315 3.6356733998863615 0.17198005406937206
0.25870834813478 15.562625634203465 1881281.6020295382 3.8250230171941904 0.1743780528703402
0.2692808969162388 15.293140208404138 1557728.0624123244 4.020679295052102 0.1767715362009801
0.2801414350816423 15.053291570487325 1294927.4791250788 4.222942772027253 0.17915177221071363
0.29127849770619235 14.839202815513222 1080689.8086046083 4.433192416962505 0.18155581071057567
0.3027080188252335 14.647803914074114 904959.4355384386 4.651776191842345 0.1839874846307261
0.31441627588023946 14.476406319287085 760509.3401409239 4.879061625710804 0.18644844005545516
0.3264115582308686 14.322523730133378 641038.841394252 5.112414870723358 0.18888000645784686
0.3386911277920589 14.184282016313338 542020.1560715638 5.354932920983241 0.19133234206626867
0.35125277973818364 14.060012709988236 459580.8528938501 5.607157504093636 0.1938146870548442
0.36409416676986184 13.948143100455221 390690.09413083654 5.869501745632339 0.1963325822232191
0.3772312257348478 13.847439315496416 332999.3724088301 6.138956372128812 0.1988277788984127
0.39064539049622216 13.75688103222553 284525.6178716733 6.418760307218588 0.2013514655423725
0.40434246519748707 13.675320891783706 243667.71762697815 6.70981319401595 0.20390965428143448
0.41832594904226716 13.601880373222944 209127.90292479005 7.012349210289402 0.20649619191188176
0.4325960243879925 13.535903941770409 179873.65716991026 7.322728269487906 0.2090571922866456
0.4471449954199414 13.476609253164746 155020.75771083092 7.645663409990779 0.21166263325385545
0.46198544313464196 13.423423555708352 133856.9300451355 7.981689011389547 0.2143124963574507
0.4771056410555412 13.375847442108256 115803.3731958979 8.329071144998341 0.21697214236216664
0.49250641819670965 13.33313828460147 100350.43664028322 8.687378775711792 0.2196262522960633
0.5081872939773018 13.29501375254057 87117.3719361842 9.060303223479231 0.222328612694635
0.5241545060628721 13.261219851889411 75752.55283151158 9.448450871302944 0.2250819391650582
0.5403957420918675 13.231155779252108 65973.00050825758 9.8466776657183 0.22781270973687134
0.5569133997490806 13.204724096442684 57552.36272616164 10.26062318640157 0.23058661891148435
0.57371478646165 13.181440125707885 50272.384970340594 10.69151302060905 0.23341108140394387
0.5907948085989873 13.161094112892348 43975.97837763796 11.136696395738555 0.23624352936353346
0.6081357267752525 13.143380639444896 38524.89980301137 11.596348117064835 0.2390898043122968
0.6257572073558018 13.128145200881612 33791.2727890259 12.074868946662113 0.24199543496091272
0.6436404694209436 13.1151727789236 29679.08105161695 12.572336516501545 0.24495340074392216
0.6617977226349856 13.10424399859287 26101.841074611642 13.082942467156391 0.24788606478460512
0.6802116658258596 13.095168319741182 22982.681802280178 13.614534012098067 0.2508773642936793
0.6988735821383493 13.087614757692393 20259.686197372153 14.168019540688011 0.2539292447350942
0.7178056493511752 13.081836822180785 17881.484422616613 14.737866707147928 0.2569821537760191
0.7369898670111331 13.077377000507381 15799.389622824548 15.32873975742617 0.26007870913365305
0.756412404422877 13.074102510370974 13975.403874445507 15.943904304549728 0.2632410094025565
0.7760777815144051 13.07201762878652 12375.441352953078 16.581003731113288 0.2664338544551615
0.795972213711308 13.070963511333392 10970.548753951205 17.23806814334775 0.2696349704307881
0.8161161086872931 13.070728134521529 9733.954209241849 17.92222423033081 0.27290823557361654
0.8364803520555885 13.071342961341449 8645.812816002865 18.634506224536317 0.2762551052911814
0.8570573844045445 13.072645109788636 7687.373267870142 19.366051689085015 0.27959163838386203
0.8778544970483679 13.07452545093648 6799.487161006344 20.12735126844861 0.2829958805260681
0.8988497573275821 13.076898762727492 6094.255125409197 20.91998912980453 0.2864729598922766
0.9200537240927226 13.079802688393892 5433.752163257068 21.739432643741587 0.28997923231535283
0.9414322960029353 13.082966834453948 4849.482180582456 22.587264555228366 0.2935261292132058
0.9630184706669584 13.08648669218592 4331.661196974244 23.46997611709229 0.29715654761063603
0.9847621429350594 13.090131285942693 3872.6254189147076 24.388882036622086 0.3008709759476518
1.0066755134241279 13.093917263740403 3465.334868277224 25.333994897247837 0.304574783970996
1.0287346899139822 13.097776340161612 3103.520110263287 26.317887083728888 0.3083644034569978
1.0509536982973253 13.101666510697285 2781.7473875020546 27.34220701634311 0.3122426833186017
1.0732965739634572 13.105415655274196 2495.442667265496 28.404467416696054 0.3161847631244055
1.095761204392662 13.10907092155826 2240.5952204235955 29.502358089888535 0.3201677147025042
1.118357188002171 13.112649687733002 2013.3334277741167 30.645361524851335 0.3242394192673361
1.1410504008847249 13.115981889181185 1810.5512609576015 31.8353356960961 0.32840164619726464
1.1638161846953137 13.118975532914575 1629.573190132727 33.06808395752834 0.3326240548735977
1.1866745868331767 13.121660970310254 1467.8402951202372 34.34530785271348 0.33691161847275913
1.2095901746153297 13.123960633233775 1323.2214190966836 35.67515157657082 0.34130511830537635
1.2325708423603423 13.125889336957309 1193.7047934791924 37.05963983794711 0.3458028530649087
1.2555779299753425 13.127275350894147 1077.7540664582532 38.496744493911756 0.35037228953241994
1.2785997763570671 13.128150258019563 973.9051962925984 39.98535114942838 0.35501115764258956
1.301658916879348 13.12855833623364 880.6340252255178 41.5355754771303 0.35976755628961554
1.324675978234455 13.128258223822638 796.9568674209177 43.14988808698257 0.36464359794889306
1.34770537800736 13.127534607558617 721.8175865833881 44.83088632267281 0.36964054527485984
1.3706673786119834 13.125848862751791 654.2159190745648 46.572838285522984 0.37470295587832725
1.3935957549122142 13.123566098974795 593.3949901098036 48.384740222087984 0.3798836992778304
1.4164322968989032 13.120439237323819 538.6720617809473 50.272327381229054 0.3852002456974882
1.4392143806451676 13.116679754081536 489.3140075460626 52.23880874538193 0.39065532692848726
1.461862411429314 13.111978637573513 444.8875578766187 54.28758263860077 0.3962500500070501
1.4844112117744315 13.106522781909387 404.793222933298 56.4195495853188 0.4019665022539382
1.5068035591879407 13.100136258523431 368.60024027966256 58.6347522769822 0.40780590773429476
1.529060510622503 13.092787897007426 335.8517364009375 60.944172347928166 0.41380665062738
1.5511119593658305 13.084447478868672 306.29250975643913 63.35208607215783 0.41997166064507
1.5729660997920898 13.075151196267077 279.5936150568648 65.86303287970654 0.42630150520763915
1.5946393336753626 13.064841810601797 255.31784819252306 68.48190825370936 0.43280295211094594
1.616054650129846 13.053421057643423 233.36687313352752 71.21380443722188 0.43949031207905126
1.6372406741343286 13.041025791349778 213.47849456596182 74.06419378538423 0.44637047138072355
1.6581382174521553 13.027527496623332 195.45481526100713 77.03893242543069 0.4534467537897384
1.6787390362144547 13.0127922992265 179.07437139858501 80.13996046473494 0.460703691669036
1.6990392854003424 12.996994547023814 164.21784334600434 83.37871600023276 0.468182735840746
1.7189908637320563 12.979809634587015 150.68513878644222 86.7625423654539 0.4758947608171681
1.738603215209035 12.961573951733676 138.4021576814035 90.29901163680083 0.4838441904754441
1.7578442738273623 12.942110432604219 127.21762769664733 93.99623114437158 0.492038999150678
1.776696931619295 12.921379437148936 117.03901268628884 97.8629237760872 0.5004992103625849
1.795118121233258 12.899194324285668 107.75588553044368 101.90839997405261 0.5092402901624979
1.813120333142199 12.875965081479865 99.30311217593734 106.14261102457505 0.5182689895499699
1.8306590933026465 12.851174720532518 91.58174600113372 110.5762455941662 0.5275987129253934
1.8477274487528654 12.825127586628007 84.53468932413574 115.2208030482968 0.5372538110283309
1.864307181319229 12.797681853958672 78.09916528827807 120.08828871301029 0.5472523319900677
1.8803752012667336 12.768954981320357 72.22381895458508 125.18619516111501 0.5575811384625073
1.895921147271468 12.738828089704194 66.84529839613926 130.5335350028478 0.5682830543218259
1.9108689837344688 12.70702906430743 61.917966440697846 136.14556815983602 0.5793866748579609
1.9253036895705526 12.674174193119692 57.41436240964627 142.03873976764413 0.5909097512638996
1.9391021445391856 12.639596918814973 53.28468734020124 148.23077976683504 0.6028721631524174
1.9523091175088545 12.60360560659986 49.50123249492237 154.74078921456584 0.6153094752071738
1.964891081338605 12.566179186678884 46.028795036112655 161.58407289394418 0.6282347100507056
1.9768172392818741 12.527324016641922 42.845069093243325 168.77759232183638 0.6416472572851686
1.9880731540046856 12.486841676609382 39.91815859551035 176.354274107815 0.6556233547106077
1.9986576270666698 12.444885357301342 37.22914086503134 184.3400830908501 0.6702025268789007
2.008559884862994 12.401605505196509 34.76028887560233 192.75164581441277 0.6853698106782313
2.0177235581674555 12.356682330268397 32.48734938833223 201.6195690954476 0.7011807454333728
2.022357601122547 12.318935592187023 31.00913301390351 212.75779417013177 2.443129158229464
