M[M_sun], R[km], Lambda[1], P_c[MeV/fm^3], rho_c[fm^-3]
0.23841724892012095 16.20908015294055 2780876.1263280716 3.453507347168396 0.169602847481901
0.24841198973986145 15.866345088706591 2282398.050719476 3.635511682494943 0.17197799696299126
0.2586910759902521 15.56303142312332 1881760.8090303228 3.8246903609475567 0.17437398345232882
0.2692521276446319 15.29385650161871 1558399.7692395549 4.020143351987435 0.17676497995445686
0.28010235675348494 15.054141323705142 1295778.5111279245 4.222208847071507 0.17914319009701488
0.29122809754695733 14.840114656788456 1081475.7486939388 4.432250388244727 0.1815452109847692
0.3026468436714123 14.648763357687002 905815.5162283607 4.6506154041857535 0.1839749126925981
0.3143436356414843 14.477358232333431 761280.5348556659 4.8776709897985295 0.18643394947675304
0.3263273512513814 14.323506506801634 641816.0026512431 5.110713256211314 0.18886227544803344
0.33859242019816654 14.185265942124127 542695.719480931 5.352969311607904 0.19131274895196865
0.3511394145545853 14.061044631926775 460227.1320341832 5.604919593400517 0.193793178396061
0.36397198145528953 13.94924713726314 391328.141049434 5.8669763287248236 0.19630919642371347
0.3770893209016815 13.84853287614509 333576.1015444219 6.136012081819123 0.19880051425839865
0.3904897291839534 13.75784064312733 285018.80777808867 6.415490537428428 0.2013223223366067
0.40417160208660713 13.676262920285984 244128.71486237683 6.706203291842639 0.20387879135169634
0.418140002101756 13.602836785973142 209551.15457435328 7.00821895327131 0.2064608801981483
0.4323949466174612 13.536874565434454 180257.35277344417 7.318215076201201 0.20901998860699358
0.4469298019257116 13.47759523248458 155365.7975539951 7.6407496063945874 0.21162356600781626
0.46174586429193426 13.424183298012368 134164.48488408106 7.976356233242978 0.21427166725105937
0.47684570352465533 13.376486540272833 116085.64250496845 8.323069070651398 0.2169261889537659
0.4922303143763524 13.333761689934947 99550.8220812601 8.680907024762186 0.21957863837184619
0.5078921428739371 13.295681545182813 87348.27836092199 9.053340795255373 0.2222791679623184
0.523838444893584 13.26186458293799 75959.84831843333 9.440974829181394 0.22503067351416414
0.5400637845396904 13.231757429850234 66158.91245047233 9.838354842546472 0.2277556374330717
0.5565652575032303 13.205287016363283 57715.93507515935 10.25172515420571 0.23052781886858867
0.5733391850881998 13.181905161549611 50422.15793751546 10.682014178203756 0.23335064568623204
0.5904007601734983 13.16159432874024 44111.240498424304 11.12618197074503 0.23617663207292708
0.6077245494716362 13.143818875920754 38644.86879319835 11.58516197723208 0.2390210149971408
0.6253178434840118 13.128545409802838 33902.590399340006 12.062979170650072 0.24192473778838625
0.6431812266403539 13.115601621665087 29779.43171597637 12.559235314853161 0.2448755003770606
0.6613088148777514 13.104470915968093 26191.050184008884 13.069054794533063 0.24780640925038985
0.6797019983319372 13.095324297985911 23061.834547491035 13.599824057748545 0.250795955051454
0.6983402623902899 13.087866937269272 20180.928279538206 14.15244829864363 0.2538458230943216
0.7172521378259257 13.081985373507253 17946.520380214 14.720798957874843 0.25689071472160074
0.7364106325019114 13.077529473053428 15859.09792243001 15.310708043354882 0.25998515145475465
0.7558098380166535 13.074208007927414 14028.224669220648 15.924862326277589 0.26314557989252546
0.7754486387594557 13.072080462599528 12423.084271229312 16.560191156060753 0.2663295515402352
0.7953267747925241 13.070941655792279 11013.010904093095 17.21612725614948 0.2695286208796934
0.8154397316790818 13.07072270024736 9772.69412212175 17.899099207715714 0.2727995325242801
0.8357785513933791 13.071298657667777 8680.553524881285 18.60962185211193 0.2761394634447386
0.8563275248936447 13.072584072831816 7719.039104636127 19.339509893938963 0.2794705829168603
0.8771029946798184 13.07450997875899 6870.188296291015 20.099416667184787 0.28287261615938714
0.8980702156068398 13.076800891619266 6120.254746634513 20.89059259711924 0.28634717666239506
0.91924510061612 13.079713790635951 5457.438141560764 21.707475766869692 0.28984249376754834
0.9406081205521821 13.08282340496509 4870.610548510489 22.553668602312296 0.2933864360208792
0.9621479809568855 13.08629642796634 4351.258183921584 23.434654014266183 0.29701374677484105
0.9838752926598959 13.089951736609427 3890.0469142048723 24.350684806080857 0.30071709261835033
1.0057673302703107 13.093739895858166 3480.8692633856485 25.28415547521332 0.3043549158621041
1.027808659852194 13.097643862358757 3117.94841009057 26.2734224027747 0.3082047613807273
1.0483616349829379 13.1002021339738 2815.364914791275 27.337915599316712 0.4206651044258855
1.0631841654169334 13.095739686802247 2606.331511106676 28.546298338091933 0.5892020966807336
1.0731982442847585 13.082615857516112 2458.1029131493483 29.935205072215062 0.7375927087293138
1.0799380464039152 13.06138961745923 2343.3319008769686 31.481449519695115 0.8786426286539859
1.0842187641155796 13.032823135697088 2250.2684831861643 33.19333967387594 1.0140989087620154
1.086609892590674 12.99742598929771 2170.8283719590086 35.07937838824398 1.13756422407891
1.087571826808509 12.955804418213019 2100.2117019518787 37.124892050210015 1.2534321981169083
1.087454864455093 12.908293003007822 2034.4190842063408 39.332665220491606 1.3637961184318614
1.0865618423748835 12.855385641849605 1971.25313420824 41.70687782110359 1.4690361212451064
1.0851154264313094 12.797346886728054 1908.2867382950653 44.24015825496302 1.5684292255583765
1.0832872776835385 12.73457591814875 1845.2083898705282 46.932729653281854 1.6651283855404622
1.0812519679987802 12.667442690152576 1780.686503621669 49.796595111758194 1.761634361688571
1.079100418018483 12.59622135686866 1714.6790373326899 52.83817951241386 1.8591643138305662
1.0769064650039875 12.521182908597424 1647.1946717612857 56.06434974202497 1.9596462135412362
1.074771966971802 12.443002027252447 1578.4389856527973 59.46348305022911 2.069839252425174
1.0727136397584587 12.362017884837663 1509.0613101461379 63.07111615503939 2.2023828550789943
1.070684284268251 12.278720078762642 1440.1661140092986 66.90218369645942 2.335413083831909
1.0687320481492018 12.192558819562903 1371.1211483824839 70.95128560134779 2.431586695805275
1.0670931485937696 12.101726734372507 1298.9973797760122 75.19477901859521 2.458600389880082
1.0660671984648198 12.006864806529242 1223.4351885005854 79.58701072617411 2.4861872188153864
1.0657812308486052 11.909035432547475 1145.3319032545978 84.13010243814986 2.514524511185382
1.0663501743804804 11.809231984586814 1066.336902944141 88.85601859654412 2.543893631992589
1.0678105856207365 11.708316798734689 987.289826793173 93.7718213357432 2.5743455759318437
1.070153577219464 11.606770318439299 909.5363956283999 98.88529278259372 2.6059216494493143
1.0733890567488134 11.50529797064687 834.0686243687759 104.20499068146663 2.6386599935961055
1.0774934279395967 11.40429538726888 761.5610141825154 109.74037481433348 2.6726040248548957
1.0824233491150062 11.304334196040788 692.804086320307 115.50137860537758 2.707811928112241
1.0881325561781234 11.20557975278007 628.3689922269202 121.49202885034852 2.7442918387412027
1.094580535413381 11.108322223867063 568.2452574092521 127.72234145673096 2.782090653541799
1.1016871604519787 11.012863005192179 512.7503606565017 134.21655847465746 2.821328077195677
1.109414718988175 10.919379098673298 461.8571894687987 140.98843007989052 2.862088124121154
1.1176938879745897 10.827898223542299 415.36828016455075 148.05250158271855 2.9044474471041686
1.1264607937359672 10.738629590816345 373.21430773334873 155.42430225992024 2.948467399275382
1.1356383960414953 10.651379568210885 335.13316643532374 163.12079918773608 2.994230740419566
1.1452017721074037 10.566393458958771 300.7997040570466 171.1602690235281 3.0418392581356715
1.1550400873071867 10.48341497634926 269.95387590553077 179.5621142451888 3.0913654503000667
1.1651221141497168 10.402693443412938 242.37332104667047 188.34765569572858 3.1429235857919844
1.1753864075720086 10.323814423669218 217.6564104710365 197.53952452993306 3.196623486701809
1.1857648055053813 10.246946302670269 195.6061252776984 207.16215228892952 3.252565281861599
1.1962042109320516 10.171868489798957 175.95782123070717 217.2343722456516 3.3108464432214326
1.2066580943850385 10.098447283000246 158.39504519397732 227.77932357417953 3.371524312810033
1.2170655182744552 10.026805816796909 142.78152163606353 238.83739525924207 3.4348484551462097
1.2273793765960026 9.956542839900987 128.86877015578168 250.44200866370403 3.500943884511109
1.2375689064243425 9.887698750235973 116.45897596652945 262.6285464228546 3.5699898007529245
1.247567352202312 9.82008803017768 105.39312989776568 275.4359275113868 3.642163445804707
1.2573476545024322 9.7536624829551 95.53428719884678 288.9050653081456 3.7176396911672143
1.2668575499450085 9.688300308989234 86.74089907548768 303.04193950831547 3.796352156505421
1.2760703494756267 9.623886404540876 78.8900299926587 317.9316309332368 3.8787728242213797
1.2849444063474533 9.560219784119607 71.8614407853478 333.62704919056534 3.9651498925342024
1.293441362639434 9.497321374982542 65.57965276007398 350.171538149532 4.055616205647483
1.3015328818473089 9.435025285796973 59.939105943220184 367.60067773004437 4.150267358956376
1.309196679087975 9.373292638621527 54.906776834612224 386.01805943151464 4.249656950239473
1.3164055788582696 9.311974153699209 50.37782299318666 405.4718395847888 4.353916121872993
1.3231150497245039 9.251091272520071 46.31525082462727 426.02676946459644 4.463284499137524
1.329312474259976 9.190424568168652 42.65548417793257 447.80190284327193 4.5783657439110925
1.334974440796306 9.130002353827209 39.3651957446958 470.8250680107538 4.699064101197649
1.3400747366565091 9.069746059075609 36.39680520769233 495.26253114511695 4.826299129410092
1.344608413687247 9.0095181802705 33.66028944833904 521.1484648535668 4.9599109148738645
1.348534004752573 8.949394555667181 31.297426662576875 548.6619063952303 5.1008951042274076
1.3518676797670244 8.88925822316565 29.063918692588185 577.8794710290872 5.24931185600968
1.3545701419574268 8.829000906621195 27.1321100768731 608.9653163011744 5.4058991971675505
1.3566385205068197 8.768783809097298 25.300931683226764 642.0767395756117 5.571312870444451
1.3580572375850528 8.70835720410607 23.715530002675973 677.3377722507565 5.74580028683885
1.358831127982712 8.647841296103488 22.243027258914815 714.9634961582332 5.930327364930869
1.3589202950530892 8.587231102925873 20.90731050779992 755.1503792748931 6.1255881026356365
