M[M_sun], R[km], Lambda[1], P_c[MeV/fm^3], rho_c[fm^-3]
0.23841724892012095 16.20908015294055 2780876.1263280716 3.453507347168396 0.169602847481901
0.2484295117235072 15.865761381873883 2281576.3674155558 3.6358076829659547 0.1719817622009307
0.2587255168310946 15.562093447364372 1880665.1084249106 3.8252992560084405 0.1743814321281101
0.26930362157953125 15.29253903562885 1556886.0952254198 4.021124370516732 0.17677698085482474
0.2801717101515934 15.052788309680386 1294307.4807048363 4.223552295335541 0.1791588996401501
0.2913200643670651 14.838461980031518 1059238.686815454 4.433974811401217 0.1815646142283096
0.3027588974447852 14.647107916091093 904333.0173226058 4.6527403242591765 0.1839979266896356
0.31447898683206243 14.475483712605703 759788.632770305 4.880216724205358 0.18646047630843574
0.3264817579019081 14.321685212285887 640436.8762444741 5.1138283626615975 0.1888947351988459
0.3387729913879705 14.183356064625093 541413.7648319312 5.356564124983458 0.1913486184025015
0.3513443725289331 14.059117395622962 459023.60995365435 5.6090166624851685 0.19383255550848283
0.3641996743293228 13.947313076666399 390209.533548222 5.871599847998999 0.19635201101580496
0.3773463691062913 13.846663416853984 332535.0767081476 6.1414026253405885 0.19885043162833635
0.3907743455705904 13.756015867620452 284089.7701089564 6.421477105373341 0.20137568015463242
0.4044849769710807 13.674504332770375 243284.3945365713 6.712812733394822 0.2039352989024387
0.41848103512388374 13.601130065322685 208789.36223736237 7.015781342903594 0.20652553499727253
0.43276156111880876 13.535155117739757 179554.18394402892 7.3264787710616295 0.20908810885729065
0.44732951320808306 13.475980578979723 154744.79021959967 7.649746991846534 0.2116950998134069
0.4621820777140481 13.422707311393212 133595.3566905859 7.986120959550093 0.21434642848025692
0.4773158032120708 13.375106861573645 115563.24799246974 8.334059656436601 0.21701033567504205
0.4927336183007242 13.332492253991152 100141.42140837527 8.692757863697464 0.21966582728739123
0.5084316491778302 13.294536183579254 86933.00957509887 9.066090370240095 0.22236971098868813
0.5244081972745707 13.260727773632382 74839.44490643615 9.454665170203718 0.22512455263256131
0.5406684595529707 13.230728144205402 65824.27756260637 9.85359629587298 0.2278601530327234
0.5572068902555374 13.204347193144942 57410.72892064551 10.268020256338684 0.23063550028435767
0.5740249291111145 13.180967417888915 50145.72514666874 10.699409844530114 0.2334613243915576
0.5911187201377739 13.160786527258699 43866.107193472555 11.145438118315294 0.2362991479595077
0.6084781152302512 13.14303077961817 38423.097037804015 11.605648642008212 0.23914699801369974
0.6261226583000926 13.127879603941881 33703.04556848326 12.084754851712713 0.24205421702158694
0.6440219831893789 13.114876566864977 29599.057575672156 12.583230439462467 0.2450181765269376
0.6621966659011174 13.104022058534182 26029.553327398273 13.09449076415379 0.24795230236029936
0.680629185760692 13.094899335393574 22916.36479256593 13.626766503196198 0.25094506252082294
0.6993140083436838 13.087558243653156 20202.621058972934 14.180968706801137 0.25399861882103514
0.7182700586621752 13.081738147288014 17828.492761915837 14.752061395724628 0.25705820064549484
0.7374653983815462 13.077261170947189 15751.026553193886 15.343736656082047 0.260156520650815
0.7569145326586637 13.074052102246878 13931.82614875598 15.958499963622103 0.2633028224274409
0.7766044330843269 13.071966794070995 12335.397562490496 16.592616825104056 0.2664410588470639
0.7951760633098691 13.070375336639465 11018.43840024911 17.345293147112866 0.5026148222182972
0.7987225315266128 13.057683996043137 10699.527551186029 18.313416136908543 1.229910822892921
0.7906250150400861 13.033292011898428 11052.456228774821 19.805132681515342 2.0909636685450654
0.7772973537476886 13.002111398419162 11737.421910079573 22.128542654413522 3.1684839605448945
0.7607546445248968 12.965595284598281 12680.774678925645 25.502569859601824 4.038861373758495
0.7416995752725126 12.922040452018502 13873.683610611832 29.466433748199467 4.6229848684066654
0.7188148542831708 12.863899201134714 15443.350531765009 34.00946680217977 4.804393664992485
0.69355279352895 12.789836687107975 17337.79548068014 38.635621362894206 4.828529913799813
0.6672637120013803 12.699841837692816 19485.07712548005 43.41096057430433 4.850833638380915
0.6409581586679824 12.594277780265939 21793.837560805125 48.39542272583357 4.873053167208931
0.6152810490582848 12.472615597127534 24155.803637875524 53.575419782750544 4.89610749163003
0.5906630093869565 12.334236052501248 26437.49812528987 58.75333625673832 4.919114452490594
0.5674715567523916 12.178431383897973 28481.619948663185 64.14227085555463 4.943030930450666
0.545973765923093 12.00452369486901 30110.495429542007 69.74326682788943 4.967858422986889
0.5264125264934933 11.812306277618136 31150.31559184785 75.54259606317412 4.993531376827004
0.5089665980337912 11.601992967681323 31463.911696192874 81.39277347267372 5.019364611484485
0.4937726978121427 11.374592482003784 30959.71891477885 87.47246753290867 5.046175322325532
0.48092038305622015 11.132199374392432 29662.543155883348 93.77948155813023 5.073949853246866
0.4704461130319164 10.877557614273728 27655.35825735236 100.31359877340893 5.102682874407289
0.46231528351073287 10.614089220542816 25115.001917319685 106.94631814421264 5.131788048771451
0.45648295996943183 10.34572428923891 22247.189674434867 113.81742859432556 5.16189166896203
0.4528513364619645 10.076739198588594 19264.041935586567 120.93827120615155 5.193039598816439
0.45128916337025127 9.81119048273601 16361.196054500042 128.3125832468486 5.225242928026221
0.4516549745358598 9.55254737547408 13667.058277478409 135.89191455445194 5.258275857043352
0.4537809460712464 9.303730550015265 11271.659525490975 143.6782670651685 5.292140211083821
0.45751075370234917 9.066864939498256 9207.87412908322 151.74553533677548 5.327163603463083
0.46268848635714627 8.843346038145125 7470.230137008208 160.09981244206656 5.3633661565954105
0.4691513616667567 8.634180492530405 6038.1802331643785 168.74861341036745 5.400773933458345
0.476771444815199 8.43946066390459 4871.712710258564 177.67127569839207 5.43928458300413
0.4853948162020243 8.25932042360809 3934.256580315671 186.8486047375027 5.478801488871393
0.4949110883468956 8.09301460491265 3166.934059020517 196.3562793082172 5.519658287087834
0.5052175460906708 7.939883468311639 2583.9206249949398 206.20453583286093 5.56189112328431
0.5161884906254955 7.799282870231396 2105.220843352295 216.40477122707526 5.605540719578528
0.5277648250938471 7.670247125617316 1723.8466117401097 226.96926503365128 5.650651064871854
0.53983982987719 7.55189160426326 1418.414382026967 237.91139521811806 5.697270338824223
0.5523603297015982 7.443293677257585 1174.3713264850246 249.2103298373361 5.745290208609878
0.5652581127033937 7.343622309348671 977.0566609041357 260.9028361889937 5.794859152031025
0.5784605337161696 7.252072830623393 817.4122154173997 273.02638568383713 5.846123790501765
0.5919228675327064 7.167836391825859 687.44170921257 285.5989558421809 5.899157167334683
0.6055984322393715 7.09028477218903 581.1821431352637 298.63953674324665 5.954030732823624
0.6194423308981748 7.0187089535915055 493.7977615028123 312.1685715757461 6.010818537419072
0.6333976374849674 6.952589678857531 421.4785755809119 326.2078187736649 6.069587329211893
0.6474449297516311 6.891299552984028 361.52369835386435 340.7812322747078 6.130419867220006
0.6615449293408835 6.834423709012277 311.38870111615887 355.91393753010465 6.193419530061991
0.6756454549338587 6.781507890948757 268.82745245051865 371.63284143412443 6.258677330427445
0.6897531928539243 6.732114992083689 233.9123612560076 387.9670999144569 6.326286764362599
0.7038055508775957 6.6858465551187525 203.90344349585487 404.94783846653996 6.396368838120615
0.7177917083920787 6.642506604745488 178.31299002048303 422.60812947053125 6.469037775567198
0.7316728882927638 6.601640033853972 156.56007056350506 440.98394080732226 6.544411380981759
0.7454322576759268 6.563062108082157 137.91240201971837 460.1133042229639 6.622637193450366
0.7590498014322015 6.526516162692295 121.86212810465874 480.0372130334541 6.703847050399833
0.7725058824374198 6.491747193772224 107.96485163415849 500.7999304031747 6.78820832597009
0.7857621734828385 6.458550292545711 95.82275897601062 522.4482537310539 6.875864373174393
0.798817494939165 6.42673716823868 85.50774713512503 545.0332421823656 6.96702314623976
0.8116362976835004 6.3961577915886645 76.37579141095156 568.5625297585933 7.061613521375395
0.8242084594812501 6.3666495451416845 68.42814347636691 593.1224837956499 7.160010142688812
0.8365143407041613 6.33804505528829 61.45232309296401 618.7878343365436 7.262454581196133
0.8485413079832655 6.310222194631908 55.313159531250896 645.6255648921937 7.369193099667312
0.8602677253564427 6.283089813046854 49.902280911722016 673.7084678598245 7.480473031668675
0.8716705540662819 6.25650170165528 45.13407952754581 703.0366222891319 7.596189818737929
0.8827615190797755 6.230360937430658 40.90169851222939 733.7505060213322 7.716895649106427
0.8934744914045794 6.204565005318609 37.11408375000636 765.9540850259563 7.842962332163756
0.9038567721180728 6.179057981572778 33.80350337527915 799.6902198282041 7.9744580295041985
0.9138410433553898 6.153722021790684 30.80349342256995 835.0538928203837 8.111690861706908
0.9234424902577444 6.128531175269751 28.17970966810255 872.2148946642822 8.255300289474183
0.9326478013644282 6.10335133326607 25.79914796379627 911.186972876684 8.405185082713821
0.9414480296204 6.078201453348312 23.66374329624673 952.1788287660199 8.562133523271665
0.9498177388770359 6.052985748882127 21.75607903003966 995.2729223048493 8.726341289643825
0.9577518350028386 6.027589243257499 20.02687124092352 1040.637498154611 8.898372874247519
0.9652387157604775 6.002027809343541 18.47279542630249 1088.4036105276393 9.07858258162835
0.9722610262315405 5.976258375942583 17.092047052334646 1138.7793114080644 9.267718567194192
0.9788215763948659 5.950218908620742 15.826481796208606 1191.8752315713239 9.465959538175834
0.9849089641788834 5.923880357343688 14.68771397220419 1247.9699522347353 9.674314914924445
0.9905198858601908 5.897253139077211 13.652962013842476 1307.228588793188 9.893196629496204
0.9956223457955111 5.87025896709794 12.717089319842433 1369.8794453058656 10.12327045047594
1.0002534338824416 5.8428474737894165 11.865724251133537 1436.2134643137465 10.365488058014622
1.0043534147896878 5.815046378916514 11.092338305177105 1506.5011858771488 10.620622558707415
1.0079539865278142 5.786811248020423 10.38347699676215 1581.0372676218333 10.889510622350203
1.0110374822694075 5.758094527003007 9.7462668601736 1660.1317141689042 11.172990403223066
1.0135972827967599 5.728927717763337 9.158318918480647 1744.1803878588207 11.472285249136078
1.015621987533511 5.699327758654151 8.632476563750176 1833.5819708831373 11.788525145378498
1.017126320815931 5.669197850679526 8.141118595557344 1928.7766007119583 12.122951524001992
1.018104945806338 5.63860976935418 7.700749797117941 2030.2500336379048 12.476921689053752
1.018546627048908 5.607562773280063 7.298460872161597 2138.539108426463 12.851917498922502
