M[M_sun], R[km], Lambda[1], P_c[MeV/fm^3], rho_c[fm^-3]
0.23841724892012095 16.20908015294055 2780876.1263280716 3.453507347168396 0.169602847481901
0.24841205780864709 15.866338724037334 2282457.502518132 3.635513850026588 0.17197802453481353
0.2586902627353393 15.563098271611535 1881869.247596903 3.824694819472696 0.1743740379939245
0.2692527208076895 15.293715196240647 1558364.8420197158 4.020150534893526 0.17676506782368437
0.28010280643953467 15.054116701340117 1295761.0531531854 4.22221868311483 0.17914330511428125
0.2912292181793507 14.840069839215039 1081431.163132113 4.432263012929686 0.18154535303797462
0.30264915905748735 14.648700810563282 905756.60530621 4.650630960158474 0.183975081171928
0.31434443123654554 14.477347119158573 761277.7078876427 4.877689625517381 0.18643414366298705
0.32632802507365355 14.323508873111809 641796.7747341526 5.1107360585590245 0.18886251305099708
0.338593228020937 14.18533242302668 542716.9628338667 5.352995624109966 0.19131301150106161
0.3511403948472778 14.060987908255136 460213.4667219999 5.604949580797848 0.1937934666062648
0.3639752662091384 13.949169413417811 385615.05315954116 5.867010167789699 0.19630950977933576
0.37709237541574564 13.848494058048807 333559.05368411134 6.136051532203913 0.19880087957581868
0.3904913053758345 13.757845139464413 285020.98143390624 6.415534347839184 0.20132271281541633
0.40417527408288134 13.676299039054989 244126.59595315688 6.706251658421932 0.20387920486271874
0.4181417858934551 13.6028429289532 206952.4621682532 7.008274289812252 0.2064613532989951
0.43239632461734123 13.53689350789334 180257.49396421993 7.318275541879176 0.20902048704470064
0.4469304768516614 13.477430666328267 155358.66076451802 7.6408154377894 0.21162408940099794
0.4617489725825439 13.42419650378612 134165.02465190188 7.9764276761714825 0.21427221423629833
0.47685049217548614 13.376472424958923 116072.79476547179 8.323149477264648 0.21692680456725602
0.4922330387927986 13.333755642795388 100601.3452505691 8.680993721528248 0.21957927621673257
0.5078961290618448 13.29566521361201 86456.55279685295 9.053434063266753 0.22227983031914392
0.5238436187690192 13.261790920960555 75953.61193366828 9.441074975447247 0.22503136024966136
0.5400686770269589 13.231738239469767 66151.89492189696 9.838466327955462 0.22775640192475916
0.5565702041754744 13.205289212695007 57713.8411157213 10.251844342210351 0.23052860648765222
0.5733457347314601 13.181871252338988 50418.212892801814 10.68214141145484 0.2333514551988566
0.5904044190514447 13.161511973953926 44107.23744406531 11.126322802130073 0.236177528102724
0.6077284000037169 13.143787001920492 38643.97107146448 11.585311802717019 0.23902193635094612
0.6253231215224192 13.128549641735525 33898.37117160011 12.063138417460936 0.24192568467748243
0.6431901234751939 13.115571674028295 29777.487403735748 12.559410780383354 0.24487654370343176
0.6613155736652002 13.104461046580049 26189.530316487107 13.0692407898045 0.24780747606360684
0.6797095256842813 13.095310706292976 23061.650245241908 13.600021062007464 0.2507970453313456
0.6983492443990968 13.087851649310725 20331.427261982863 14.152656833895817 0.2538469403046794
0.7172625665983583 13.082020609612597 17945.439583378946 14.7210275260366 0.25689193925661397
0.7364195449276635 13.07744232562816 15856.862908591456 15.31094951631217 0.2599864043389403
0.7558160754267611 13.074234253091113 14027.256839082052 15.925117323599391 0.2631468578201195
0.7754564566978798 13.072077256018565 12422.519000495255 16.560469853018457 0.266330948239346
0.7953363195439372 13.070930124181217 11012.211681815823 17.216421056790622 0.2695300449591308
0.8154462737176771 13.070718682899862 9772.295436760225 17.89940885900406 0.2728009880921225
0.8357878894284613 13.071344144120197 8680.807507024154 18.60995947569441 0.2761410505010436
0.8563349311039242 13.072608510778077 7718.546594530485 19.339865276117926 0.27947220379274307
0.8771123577725457 13.074513348745826 6869.864606824425 20.0997906916633 0.2828742665817444
0.8980812433111097 13.076807652941904 6119.602345102657 20.8909861887618 0.2863488607803346
0.9192554207314351 13.079709947572026 5457.185733527788 21.70790362136888 0.2898443244909674
0.940623080073421 13.082884305290326 4870.437433963561 22.554118393484714 0.29338830626890916
0.9621582640944033 13.086289915749013 4350.8001368106425 23.43512690701793 0.2970156585942059
0.9838902271551475 13.089962020330866 3889.790269671682 24.351198060998907 0.3007191676146107
1.0057721452520105 13.093768638860876 3480.96669230376 25.294259675778846 0.30441906539153585
1.0278138666096255 13.09759253736083 3117.7239767329247 26.276142730856915 0.3082053390008864
1.050015118679314 13.101553985567318 2794.654388730088 27.298344639646697 0.31207990873964536
1.072323101457046 13.105282375202734 2507.429716530621 28.356957885720384 0.31600845384790405
1.0947703478025737 13.10896859449956 2251.1723111929155 29.45246447139541 0.319987287003378
1.117338917076932 13.11258583626347 2023.0469645418616 30.592955256715086 0.3240553174484919
1.139995054278903 13.115816227763696 1819.5127201457592 31.780280445739773 0.3282130709836098
1.1627515654253933 13.118831352412618 1637.6181219115533 33.00854828898344 0.33242013333399384
1.1855804232830596 13.121535371058654 1475.2184419903929 34.28278474467444 0.33670257208349397
1.2084767116775201 13.123864990351354 1329.8922184120051 35.609470026959535 0.34109062759553194
1.2314286510560408 13.12576936852093 1199.795576462324 36.990623036720365 0.345583406355104
1.2544152241520703 13.127232306169923 1083.3344653101572 38.4222041933788 0.35013528023310353
1.2774512404320808 13.128367337993485 978.9338110753918 39.90704559283653 0.3547677358054312
1.3004332848844165 13.128463277241675 885.2573298224977 41.45328372655143 0.3595172687413127
1.3234550773016476 13.12829851327642 801.2199469081386 43.06337474441772 0.36438605313524064
1.3464649846824301 13.127511405783697 725.6293606233074 44.73990624073176 0.3693761415821374
1.3694163563151098 13.126009280679185 657.7667027343523 46.4747064048164 0.3744177678340976
1.3923333247318301 13.123774370020891 596.6316903352626 48.28154808005649 0.3795897854953286
1.4151502847767745 13.12068780171381 541.6391365400555 50.16376820325155 0.38489705002425784
1.4379089823204758 13.11699106741478 492.06259553804705 52.124556127072005 0.3903424015202984
1.4605444600887048 13.112316870781024 447.3847910277856 54.167293785227216 0.3959275189813222
1.483092167004483 13.106939877156588 407.04792516182124 56.28990714299612 0.4016188914094791
1.5054669464610235 13.100510371709868 370.6349487541851 58.498245700338934 0.40744642686935834
1.5277023871208952 13.093229031305041 337.751849689749 60.80037240239338 0.41343454167924504
1.5497629807439015 13.084997293599882 308.01907804548364 63.20053557553448 0.4195863777432743
1.571640583608495 13.07594272640739 281.139159370096 65.70324831938329 0.4259028133575797
1.593279419451169 13.065547696510212 256.77528252853796 68.31337016275809 0.4323891206395123
1.6146966218527243 13.05421320147304 234.71119021988977 71.03595093069889 0.4390603773763904
1.6358715426239396 13.041858595724259 214.71320825273207 73.87642540737896 0.44592378183360953
1.6567695757918393 13.028454563423765 196.58532287457695 76.83693100950774 0.452966644538672
1.6773665641949418 13.013757209621913 180.1165462966901 79.92638999151549 0.46020390010399315
1.6976578563163582 12.997949469331752 165.16777068895678 83.15305779511623 0.46766216605324473
1.7176370907274643 12.981158805262936 151.59189082085382 86.52399415899895 0.4753520693068343
1.7372596325189056 12.962983041408032 139.226057219511 90.0467152990994 0.48327848582871397
1.7565112270170455 12.943561235390176 127.97161610976384 93.72926917390657 0.49144900258495827
1.7753462070456476 12.92287511929109 117.73532249505584 97.58030610907636 0.49988255434831924
1.79379978611127 12.90085325737588 108.3913331129884 101.60905676928617 0.5085952258886189
1.8118279311819365 12.877697570362658 99.88887980518973 105.82539487601753 0.5175943522172717
1.8293748311986942 12.852993382206803 92.1215616553959 110.23992447912524 0.5268925169268147
1.8464770358101839 12.82716266811727 85.04271095515777 114.86404475257427 0.5365132503254649
1.8630619493130705 12.799855724378979 78.57293830016273 119.70998857187332 0.5464763532619277
1.8791564970015886 12.771243172713097 72.65947961666687 124.78980870687349 0.5567862481642901
1.8947228413596124 12.74106072987474 67.23765660418627 130.11397249773026 0.5674527133479189
1.9085301991091246 12.710578605093648 62.59548893474381 136.02146763483708 0.847726299630498
1.914831464640571 12.679773246502563 59.782302892289 142.8992118795655 1.3332530310292428
