M[M_sun], R[km], Lambda[1], P_c[MeV/fm^3], rho_c[fm^-3]
0.23841724892012095 16.20908015294055 2780876.1263280716 3.453507347168396 0.169602847481901
0.24841425713389062 15.866214260897195 2282386.2849994637 3.635528948746324 0.17197821659623896
0.25869187466420446 15.563043048500655 1881753.011043144 3.8247258770321473 0.17437441792423727
0.26925529514707364 15.293699511205462 1558299.9470618418 4.020200570343389 0.17676567991247857
0.2801057205672354 15.054090485741495 1295659.3411811092 4.222287200287504 0.1791441063163137
0.29123339924396574 14.839999268825716 1081357.3224901361 4.432350955851199 0.1815463425734708
0.3026533266823261 14.648638077148842 905722.2403078601 4.650739322607684 0.1839762547939933
0.31435359376637456 14.47719286994408 761161.8749614274 4.877819441765581 0.18643549636252887
0.32633600677424507 14.323399761210968 641748.3441479151 5.110894900073037 0.18886416819699153
0.3386026510322432 14.185160211697651 542631.6739479887 5.353178917932058 0.19131484042735003
0.3511509869100064 14.060891159645568 460145.4804095412 5.605158474644599 0.19379547429427735
0.3639831179007473 13.949108975708377 391255.7487426169 5.86724589319439 0.19631169263755457
0.37710523774990345 13.848382266442481 333509.50669543655 6.1363263474775795 0.1988034244130184
0.3905065487334258 13.75774557766416 284988.29742502014 6.415839536279756 0.20132543293643146
0.4041937161866092 13.676265741301203 244084.42283227423 6.706588586521756 0.20388208543614494
0.41815896286326687 13.602733853038949 209516.0056891699 7.008659773044363 0.20646464899548123
0.4324158289360143 13.536819815132672 180214.56813174905 7.318696756546468 0.2090239592504209
0.44695141482972556 13.477376492177953 155319.97381342194 7.641274032106056 0.21162773545983
0.46177158628349585 13.424180086776596 134136.3884109662 7.976925362706481 0.21427602465104437
0.47687462991004803 13.37637066240607 116046.48254219207 8.323709608860867 0.21693109307727962
0.49225893678358074 13.33374411016442 100580.69906319043 8.681597673224106 0.21958371960624204
0.5079237655443037 13.295602088467636 87322.60999611026 9.054083793402205 0.22228444447552623
0.5238711925241475 13.261724890561501 75939.05582665485 9.44177262291754 0.22503614424513352
0.5401037636375926 13.231862747527863 66142.06320910239 9.83924297016197 0.22776172761281457
0.5566032406025528 13.205205588722377 57697.71132448483 10.252674644923253 0.2305340933002486
0.5733799943178033 13.181794874458738 50402.71579126817 10.683027761898357 0.2333570945413062
0.5904423951284622 13.161493332006023 44096.25604280995 11.127303885750685 0.23618377017835987
0.6077679726382785 13.143740116729477 38630.78657960096 11.586355544773888 0.23902835485655796
0.6253644698562939 13.128520056677962 33890.299676638264 12.064247794419487 0.24193228108553555
0.6432331201599244 13.115467460108801 29768.38282709662 12.560633148415707 0.24488381196177292
0.6613608597282463 13.104506539905191 26182.77508827526 13.070536515185998 0.24781490795664313
0.6797542441071525 13.09532862447347 23054.664152142897 13.601393483651757 0.250804640719028
0.6983985420174049 13.087821551305236 20325.282377081636 14.154109588623347 0.2538547233179204
0.7173120203506412 13.081955506209246 17939.22641225473 14.722619846082956 0.25690046997950194
0.7364744961729559 13.077456903937625 15851.516114377822 15.312631740962175 0.25999513257370593
0.755874465839808 13.074192625779004 14022.955162288657 15.926893769429785 0.26315576053772416
0.775517311494989 13.072064406793723 12417.919098287595 16.562411411301458 0.266340678423521
0.7953965692125472 13.070993630853964 11009.2305414371 17.218467839751835 0.26953996590932516
0.8155158055713856 13.070718451959513 9768.495335702153 17.90156607082742 0.27281112842829286
0.8358546578322309 13.071292194901389 8676.833795516963 18.61231156914828 0.27615210691102055
0.8564103271269748 13.07261113493869 7715.492074320739 19.342341091692656 0.2794834958326733
0.8771823555010694 13.074476280802113 6866.852678739358 20.102396386274684 0.2828857644833254
0.898150608929982 13.076811124496052 6117.332103742924 20.893728206117423 0.28636059344973047
0.9193335081191211 13.079718615510693 5455.009244310993 21.710884349591268 0.28985707856734866
0.9406731506785391 13.08300620765765 4870.903678634849 22.557251953729743 0.29340133572620924
0.9622422144848534 13.086236198042531 4348.746190994124 23.438421415485603 0.29702897769259123
0.983973883594824 13.090018965927115 3888.218632097739 24.35477377755766 0.30073362358614986
1.0058578624222696 13.093782096579046 3479.5408051701856 25.298015882401298 0.30443378561046963
1.02789903062685 13.097615673612227 3116.3865194324635 26.280088797259513 0.3082203752599951
1.0500945515482423 13.101501028412127 2793.3738035884057 27.302490852275632 0.3120952954575063
1.0724172277424742 13.105294768873888 2506.052376122908 28.36144867817887 0.3160251193117176
1.0948636783297818 13.10900941587547 2250.3006067606243 29.457180537602667 0.3200043414684659
1.1174204725798176 13.112444471568965 2022.1618870199072 30.597908740060696 0.32407271890305017
1.1401009570711138 13.11581483762986 1818.5064183027077 31.785484223275372 0.32823089495960184
1.1628514527032876 13.118863565106421 1636.84252466664 33.014175322859465 0.3324394070473735
1.1856825258481312 13.12154531471633 1474.49436883176 34.28869403346094 0.336722329826234
1.2085786418397895 13.123868665621188 1329.2762825469883 35.61567772065909 0.3411108995385052
1.231542448117187 13.12581632376376 1199.2334562015378 36.99714583342234 0.3456041463234817
1.2545296268091763 13.12724638313795 1082.8093549921336 38.42924872120912 0.35015767910449447
1.2775360307395058 13.12812619247264 978.4216474099899 39.9144458240066 0.3547907402759339
1.3005489856268526 13.128485759094353 884.8640996637158 41.461060524313886 0.35954092160605206
1.323587155272605 13.128333261244077 800.783559311796 43.071550336788604 0.3644103913627468
1.3465677739716484 13.12743742791813 725.2770802159763 44.74850377565536 0.36940112749041104
1.3695341975636777 13.125953067777775 657.4121967813006 46.48397937255841 0.37444471666576684
1.3924435146733276 13.12366925379919 596.301370850236 48.291299020411664 0.379617558305412
1.415265564750258 13.120664944283115 541.3544588439419 50.17402607976459 0.3849256993179723
1.4380185248398136 13.116882383265548 491.8156595017442 52.13535175551969 0.3903719695642402
1.4606745763238755 13.11228804249696 447.1358503807183 54.17865952771768 0.39595799399609544
1.4832160229291922 13.106833397146428 406.83069934646954 56.30215611837673 0.4016517346404421
1.5055913562695766 13.100446484214423 370.45110919619464 58.51114293124678 0.40748039085729243
1.5278430037152815 13.09326257975355 337.5803155327523 60.81395840605821 0.4134696979758227
1.5498924113340415 13.084946327882296 307.8527915874002 63.21485350562379 0.4196227778460482
1.5717556827610655 13.07574160897148 280.98111410204604 65.718343813196 0.42594047938953905
1.5934027600165546 13.065446927939826 256.6345893313312 68.32929224926292 0.43242821601818543
1.6148218489665769 13.054199939299782 234.5937252179063 71.05275264015671 0.4391009930386912
1.6360019852428194 13.041780143853243 214.59549872518906 73.89416331362808 0.44596597923337056
1.6568977736652752 13.028353863635239 196.47924166162656 76.85603365101686 0.45301208856058367
1.6775083140501499 13.013664279130396 180.0105272905615 79.94656381115102 0.4602511103046194
1.6977871119478394 12.997875919835513 165.07750302840066 83.17437283665322 0.46771133761621875
1.7177608606004733 12.980865461356036 151.48684532776693 86.54652612213454 0.47540332898841636
1.737383466147886 12.962775634817154 139.14859705008487 90.07054515067327 0.48333191766957634
1.7566357897744618 12.9433393748124 127.89167652699726 93.75448347867311 0.49150472720069044
1.7754719989005223 12.922639772469468 117.66093501305174 97.60699827344908 0.4999407951648552
1.79392471634879 12.90075819347959 108.33883705507476 101.63732772119472 0.5086561478697241
1.8119421404783298 12.877542595352143 99.83726964227515 105.85535285548163 0.5176580651507102
1.8295067949482806 12.852941406794345 92.07801811661771 110.27168570266569 0.5269592080977556
1.8466087803660358 12.827077463718975 84.9989578007411 114.89773488125648 0.5365831844676437
1.8631828598747266 12.799681240972603 78.5312284134488 119.74574350035 0.546549747686525
1.879262911415203 12.770908534309793 72.61453786163419 124.82723925428762 0.5568613092030267
1.8948234044976235 12.740865146294892 67.20681967634022 130.1520421332628 0.5675259129829278
1.909863380288838 12.70955809416773 62.25705629831168 135.73990858472757 0.5785896712281207
1.924270317433312 12.676424915777606 57.72138784523983 141.60715573797737 0.5900711163115486
1.9381311982572564 12.642157937154703 53.5746414692793 147.77137086078272 0.6019884537570765
1.9513624229784423 12.606291024369666 49.76928640198941 154.25149219679537 0.6143770909833433
1.9639694686868026 12.568924280223262 46.27556442408291 161.06799106633957 0.6272690382325853
1.9759381352548118 12.530177955788181 43.07222375957517 168.22793034816695 0.6406293041671247
1.9872535589340314 12.490017771114983 40.13134346428773 175.7677211081385 0.6545464066264107
1.9978823634645924 12.44825363141582 37.4296720140859 183.71379687834772 0.6690623029399081
2.0078082311474277 12.404898420321556 34.9417262984736 192.0892691885091 0.6841851467627393
2.0170448789057933 12.36027791274741 32.657075890217406 200.9117154376594 0.6999258226153686
2.0255295271961304 12.313886706973669 30.550175625029887 210.2290204924964 0.7163848985543503
2.0332558703953034 12.266054301557489 28.61728474887366 220.06685315368173 0.7335619640983173
2.0402602541196333 12.216813132529348 26.83302518087294 230.45581035819976 0.751498469043926
2.04648273654971 12.166017718607945 25.188692992970413 241.4521595577047 0.7703011480496645
2.051928169852984 12.113756856695733 23.673641413661624 253.07177168381475 0.7899166024232046
2.056566096751797 12.05987930217246 22.274310413725562 265.39104697734325 0.8105200693741826
2.060399078759314 12.004675156287359 20.986853423425508 278.43064366422834 0.8320674831206714
2.0634084190382715 11.94788474556971 19.795942727708145 292.27111664987314 0.8547037993250222
2.0655233745204344 11.890373730569229 18.714870211537963 307.15196865430454 1.1487533170454056
