M[M_sun], R[km], Lambda[1], P_c[MeV/fm^3], rho_c[fm^-3]
0.23841724892012095 16.20908015294055 2780876.1263280716 3.453507347168396 0.169602847481901
0.24841374735437088 15.866222234161325 2282328.6089456067 3.635529744822433 0.17197822672262816
0.2586920431997499 15.563006216067674 1881678.4305955984 3.824727514538921 0.17437443795602572
0.26925650658591394 15.293686825767821 1558288.1863581177 4.020203208466051 0.1767657121849039
0.28010637650361003 15.054047270856417 1295620.078149931 4.222290812870881 0.17914414855987149
0.29123406451283995 14.83998331066921 1081364.3742777607 4.4323555926747265 0.18154639474710105
0.3026526964094492 14.648717215605606 905792.0641659208 4.650745036074211 0.18397631667382744
0.3143528359446089 14.477245702007885 761202.0401574469 4.87782628641317 0.18643556768450734
0.3263363055795422 14.323412030219442 641756.8131557454 5.110903275124477 0.18886425546594596
0.33860335290448834 14.18516030200179 542640.1583267689 5.353188582276995 0.19131493685926634
0.3511519254344374 14.06088427125976 460165.05316546565 5.605169488803568 0.193795580151847
0.36398421771455647 13.94901514361498 391237.02199963876 5.867258322107561 0.1963118077314508
0.377104895433389 13.84840633590737 333510.8956364805 6.136340837501097 0.19880355859315468
0.3905069220230019 13.757734731373993 284974.8467482991 6.415855627810022 0.20132557635899873
0.40419334623564285 13.67618233247984 244078.00075275707 6.706606351616002 0.20388223731916813
0.41816014475597985 13.602716839854565 209501.50997091737 7.008680098358651 0.20646482276715608
0.4324171841860502 13.536794991461065 180217.87684303967 7.318718965917175 0.2090241423292878
0.44695191639406306 13.477416097822752 155325.96782455384 7.6412982124461415 0.2116279277058726
0.4617726240435713 13.42415381161348 134133.87257316563 7.976951604322538 0.21427622556353396
0.4768757868241753 13.376370747533464 116045.27450893086 8.323739143133842 0.21693131919918837
0.49226157271249477 13.333776311367377 100575.82920747796 8.681629518084133 0.2195839538950402
0.5079244519088282 13.295615882812076 87318.5987296635 9.054118052116282 0.22228468776894234
0.5238733167330245 13.26170438725747 75933.52398171466 9.441809408273564 0.22503639649427673
0.5401047853182086 13.231788947122359 66141.54173788363 9.839283920876818 0.2277620084251772
0.5566044201328386 13.205196200705902 57695.79990053595 10.25271842513232 0.23053438260895354
0.5733809672794477 13.181837801499963 50404.524971604114 10.683074497485183 0.2333573918931952
0.5904422744231856 13.16145975353863 44095.12600951582 11.127355616629226 0.23618409931244158
0.6077692328544234 13.143738799974715 38629.712297750964 11.586410579632679 0.2390286932941515
0.6253658892486293 13.128509425732359 33889.24461256209 12.064306290214633 0.24193262890431005
0.6432342966404868 13.11548460582032 29769.420045909108 12.560697602304135 0.24488419520765287
0.661362493343544 13.104523812155229 26182.119872224 13.070604837241957 0.2478152998315104
0.6797570258666074 13.095315669553248 23054.02752925589 13.601465849945436 0.25080504121552116
0.6984022799712225 13.087811609612192 20324.994981528685 14.15418619093436 0.253855133708463
0.7173151836439683 13.081964424983601 17939.67049874066 14.722703807856641 0.2569009197977568
0.7364784443929734 13.077460734635697 15851.843582875232 15.312720443496836 0.25999559280744866
0.7558763061911723 13.07421321227593 14022.083288807666 15.926987440352159 0.26315622997267984
0.7755180237578018 13.072062834887797 12417.687369822563 16.56251378890672 0.2663411914923087
0.7953985107474807 13.070987572946903 11008.746890914166 17.218575766007444 0.2695404890380725
0.8155164904923022 13.07072250160693 9768.240416328752 17.901679820168155 0.2728116631261569
0.8358571183247608 13.071304136110657 8676.96978834595 18.612435595056958 0.2761526899156167
0.8564134673559206 13.072638491422106 7715.329849616842 19.34247164170375 0.2794840912631057
0.8771878861469826 13.07445845889127 6866.580567278646 20.102533785066637 0.28288637076994866
0.8981573901880865 13.076792250872375 6117.0644071284205 20.89387279349281 0.28636121211681176
0.9193357672851593 13.079716426794329 5454.853286447678 21.71104152490839 0.2898577510962913
0.9407064314550264 13.082875198327619 4868.001293995676 22.557417188253016 0.29340202277735783
0.9622452442346076 13.086250134457064 4348.629644290004 23.438595137218734 0.29702968001795416
0.9839765708516678 13.09002761433971 3888.2147072470357 24.35496232838741 0.3007343858628526
1.00586108399811 13.09380648534133 3479.5698996123106 25.298213950996825 0.30443456182258555
1.0279029590257522 13.097641104665993 3116.2439093082635 26.280296877732575 0.30822116813867206
1.050100063098923 13.101521917053343 2793.4782182304557 27.30270948708301 0.3120961068177516
1.0724243158684381 13.105328247969089 2506.119347450917 28.361685484126788 0.3160259981056036
1.0948693989028244 13.108995821319722 2250.250242274728 29.457429223022082 0.3200052407766217
1.1174257262444296 13.112454799388365 2022.1127227505362 30.59816994534135 0.32407363651021764
1.1400976780813177 13.115766627548194 1818.477855702392 31.78575862749855 0.3282318348487982
1.1628552289015803 13.118863154959131 1636.8766572676152 33.01447204745273 0.3324404233882894
1.185688999492086 13.121551815513547 1474.4326042577113 34.289005642514766 0.33672337169298705
1.2085863820390925 13.123865185417205 1329.2198656748662 35.61600506586645 0.34111196852220466
1.231545638162291 13.12580525604018 1199.237586327629 36.99748979538268 0.34560523998935944
1.254535139008011 13.12723485695883 1082.7999260997385 38.42962019696043 0.35015886025357623
1.2775460999320998 13.128156590553148 978.4346918996281 39.914836057688284 0.3547919533622569
1.3005538806581054 13.128486648546291 884.8383349562695 41.4614706161952 0.35954216888650037
1.323593739163705 13.128346677275012 800.7452746346939 43.071981459116536 0.36441167478697145
1.3465793043945304 13.127440659927975 725.245842045692 44.74895714919566 0.3694024450715308
1.3695371410418464 13.12590747667981 657.380468232213 46.48446836602782 0.37444613776449825
1.392449543460626 13.123663095591017 596.2904662667153 48.291813220056305 0.37961902285842486
1.4152743504996028 13.120647619497086 541.3291788510854 50.174567013071126 0.3849272100943167
1.4380229989243696 13.116876488551044 491.80525379768875 52.13592104766435 0.3903735287930734
1.4606808762473402 13.112279563810326 447.08692348822973 54.17925888543413 0.3959596010565474
1.4832031387816316 13.106862563255442 406.9237160104823 56.30280205548439 0.40165346659441825
1.505599103427927 13.10043025490675 370.43474070830933 58.511823055104664 0.4074821819176113
1.527841748985118 13.093240850977365 337.5767342834964 60.81467485352101 0.41347155191610613
1.5498978275307196 13.084966271207923 307.8467214200831 63.21560855260026 0.41962469738241764
1.5717626581133444 13.075736207695114 280.9650955595764 65.71913986659013 0.42594246568909017
1.5934133445128746 13.06543538640963 256.62578210830856 68.33013189486634 0.43243027769915965
1.6148213648715262 13.054122206945998 234.58817582459082 71.05363867480301 0.43910313489717717
1.6360089871906744 13.04180743205228 214.59491606365188 73.89509872105347 0.4459682045107237
1.6569030888541496 13.028359134408674 196.47619388358763 76.85704103312808 0.45301448506133535
1.6775249818041407 13.013798449006472 180.02149015121944 79.94762768520074 0.4602535999525014
1.6978026870050364 12.997895603447509 165.07003318500213 83.17549689684984 0.46771393070507805
1.7177872182269323 12.981111766781789 151.5012476605312 86.54771436100836 0.47540603220366434
1.7373807106155097 12.96270030426247 139.13502852915863 90.07180183857385 0.4833347354440685
1.7566390801137044 12.943377676091403 127.89307772275123 93.75581318121786 0.4915076658961663
1.7754903115301124 12.922700746686525 117.66238018338055 97.60840591712571 0.49994386656498496
1.793929227039166 12.900750558119459 108.33902399924722 101.63881862922305 0.5086593606752577
1.8119547123205542 12.877556191147882 99.8311292902711 105.85693273677285 0.5176614251527314
1.8295064099865226 12.852815655231854 92.06607276237365 110.27336068686927 0.5269627251744105
1.846613226193446 12.827039607571486 84.98782089092691 114.8995115961967 0.5365868725816433
1.8631882407097946 12.79967155529298 78.52697866921406 119.7476291136495 0.5465536182998649
1.879276619168721 12.770988980781077 72.61268118401266 124.82921323813204 0.5568652677152058
1.894843937584743 12.74090228272559 67.203529062947 130.15689790764148 0.5675407302623426
1.9075236933166757 12.710852684388563 62.822862498426346 136.28058243609627 0.9727415748899167
1.911597093145628 12.679941120066632 60.4579668844007 143.41555254045608 1.5093174465444845
