M[M_sun], R[km], Lambda[1], P_c[MeV/fm^3], rho_c[fm^-3]
0.23841724892012095 16.20908015294055 2780876.1263280716 3.453507347168396 0.169602847481901
0.24844720053107397 15.865316377310856 2280877.858875565 3.6361361948217956 0.17198594099598105
0.258759571688696 15.561205387905991 1879340.740313401 3.8259751096952535 0.1743896999156355
0.2693605305894132 15.291132028095301 1555347.418730233 4.0222134065790565 0.17679030314476185
0.28025122955712173 15.051069320481842 1292558.7824535226 4.225043838843908 0.1791763409274033
0.29142049533886977 14.836750209098335 1078186.6264672824 4.43588954011331 0.18158615879373413
0.30288402967944283 14.645057948468816 902541.8648322901 4.6551000038649875 0.18402348325533277
0.3146309229833828 14.47351002342548 758148.9358359568 4.883044007095345 0.18648993690618734
0.32666019360884874 14.31958097085259 638870.0388549896 5.117288434754836 0.18893078952948664
0.3389747817508132 14.181364937589867 539948.7680388946 5.360557434504364 0.19138846409221005
0.35156920080835 14.056966234849698 457670.85445781273 5.613568356781642 0.19387630204394976
0.36445571613987277 13.945250669679169 388976.9355985355 5.87673690722891 0.19639958107714484
0.37763172869714595 13.844609194579908 331411.37962485844 6.147392694501095 0.19890590070989494
0.39109022486217154 13.754064118613417 283066.2435102778 6.428130115365204 0.20143497791918394
0.40483247594731364 13.672583057794311 242346.9786118327 6.720158633129853 0.203998102816922
0.41885759717225346 13.599315147777412 205361.4974502145 7.024033906810005 0.20659496018688908
0.433176145698582 13.533379988743063 178790.73555215544 7.335665315651986 0.20916383644978162
0.44777739096668845 13.474244191465617 154036.73550396238 7.659750039698066 0.21177462914825051
0.462661808000787 13.421151982417548 132975.41260731118 7.99697804913675 0.21442955312066952
0.4778336568867092 13.373588077433263 115003.0211399553 8.34628142989259 0.2171039086823959
0.49328710258244596 13.33107307121034 99637.44006309214 8.70593736260464 0.21976279141148566
0.5090235533493258 13.29314202956271 86477.08542662673 9.080270532920137 0.2224704135489699
0.5250451238277446 13.259428705174011 75170.910020997 9.469892890335979 0.22522897405923611
0.5413496702302043 13.229702054317304 65453.5611235898 9.870551706835181 0.22797642179700017
0.5579236947429999 13.203231923559132 57078.971146934986 10.286149239590141 0.23075530036704753
0.5747818541104847 13.180052674982747 49847.204704055934 10.718764758765944 0.23358446867411162
0.5919217748472297 13.159836486212326 43594.56458548603 11.166866152493634 0.23643548232210335
0.6093295450574604 13.142326545731336 38179.56539424473 11.628447725426796 0.23928720127934788
0.6270083778294411 13.127182439211357 33482.77867238625 12.108990279654652 0.24219832202648603
0.6449584204881494 13.114331458660184 29401.651022804104 12.609261155460679 0.2451691705321056
0.6631767691114724 13.10343751902909 25854.545607617376 13.12280623302612 0.24811471141621222
0.6816566133639944 13.094469260705562 22756.066569454466 13.656761193094871 0.25111106201459515
0.7003925419254937 13.087209471506103 20057.876960275775 14.212722433097793 0.2541687367821305
0.719395686705217 13.081457414403085 17698.310419208654 14.786873269443161 0.25724470237834907
0.738639742797583 13.077071113457851 15633.706343513659 15.3805178827121 0.2603473603112565
0.758131956406044 13.073854785435564 13825.70003202367 15.99858732263276 0.2635150551738573
0.7778720765864094 13.071855186704708 12240.040390152048 16.640780634067077 0.266733428400606
0.7978551545454006 13.07086014330856 10847.54430150245 17.30109020046197 0.26994044428982555
0.8180559209163437 13.070754971686465 9624.090626591877 17.988652241131508 0.2732204915854518
0.838491960501354 13.071463386964764 8546.343803068059 18.704514394416154 0.27657440817375234
0.859150459171444 13.072802102412394 7596.9249058619425 19.442312044632995 0.27993945709408036
0.8800058604460008 13.074737211105075 6759.77281569731 20.20761911346405 0.2833500708360435
0.9010891218222628 13.077205202741712 5984.5607072023695 21.004463658289193 0.2868344133721572
0.9223553331005749 13.080111062133728 5366.9944091260095 21.8312795430815 0.29037223103316967
0.94381769804292 13.083289134670283 4788.834332201734 22.683829113367125 0.2939276481528742
0.9654627183142432 13.086802255878178 4276.731920482478 23.571509335261197 0.2975670279403846
0.9872843192882937 13.090494794227157 3822.965142415473 24.495641843227624 0.30128935754497177
1.0092735503180914 13.094312683325292 3420.066023638671 25.44979095775653 0.305028577793778
1.0314280405603022 13.098345866730591 3062.4828029396317 26.43954681970928 0.3088279808849131
1.053699057004686 13.102100107939204 2744.5463186877237 27.470048727445 0.3127171076946838
1.076123963556827 13.10590407901937 2461.739762399386 28.542830264165573 0.31669782410183234
1.0986687049156907 13.109599930184233 2209.8954367453366 29.647813953084125 0.3206937191798988
1.121325924119279 13.113102566168157 1985.428318964487 30.79815383260323 0.3247761745594587
1.1440791503845915 13.116344182670122 1785.2173972804549 31.99586315915999 0.3289514847766703
1.166927025631884 13.11935087501823 1606.5085862182711 33.2417057211862 0.33321874404429463
1.189849431823757 13.122006668232615 1446.864196616537 34.527655627651995 0.3375212993593464
1.2128363269803042 13.124279891637261 1304.0444243104625 35.86672569261024 0.34193072577627653
1.2358679177250385 13.126070934958038 1176.2954178487914 37.26095767674633 0.3464429658572176
1.2589392789602194 13.127419856391732 1061.8827861642997 38.712664064143176 0.3510548633269434
1.2820435263772896 13.128338035875146 959.3659926681881 40.213823470553606 0.35572139015441523
1.3051332467534478 13.128524208373411 867.412173841889 41.77569790648855 0.3604978804559366
1.3282250577844632 13.128219739205774 784.8906512097545 43.40234987029716 0.3653951608987278
1.3513032052823486 13.12727964398225 710.7570285411794 45.0964053431706 0.37041218900181483
1.3743185127057198 13.125518049383231 644.1166142749163 46.85928342376734 0.3755354144857318
1.3972934467858487 13.123158999217596 584.166254834669 48.68598239182226 0.3807417028410147
1.4201750935545312 13.119914231730007 530.242475504989 50.58926540544129 0.386085424080501
1.4429911959208417 13.115984949324579 481.6509844146477 52.572399104608 0.39156899438637865
1.4656825619031617 13.111175017298095 437.83465828970856 54.63882998746456 0.3971918510512534
1.488273769570103 13.105495894494938 398.28949965357003 56.79230253926327 0.4029539405866023
1.5106946561935513 13.09893094315021 362.65062061380615 59.033472951115456 0.4088559117438454
1.532963141648162 13.091397754773114 330.426568422003 61.36423748326149 0.41489364683642405
1.5550430071281218 13.082847966133599 301.302395320796 63.79483655691283 0.4210972537334373
1.576935911934616 13.073353807770719 274.94025443333464 66.32988705729633 0.4274663921991903
1.5986322759303668 13.062999132187267 251.11246788955737 68.97439019806977 0.4340122011687634
1.6200405628822907 13.05126273880283 229.51001463634825 71.73356297612877 0.4407467519280539
1.6412074895773063 13.03853587544584 209.94002071304416 74.61298831140267 0.4476760201684909
1.6621217054880142 13.024875131224498 192.1977729358671 77.61863477353383 0.4548033567856956
1.6827295046832833 13.009916419174758 176.07175501543318 80.7568723205276 0.46213441773726355
1.7029890217439436 12.993726884115048 161.45226867843377 84.03441991442438 0.46968834696343753
1.7229318170827956 12.976303292030243 148.15125571878184 87.4585224724237 0.4774751803902624
1.7425322664241618 12.957886829873537 136.07108647888091 91.0369134047966 0.48549873077828276
1.761728206534617 12.938010235803018 125.06469834371009 94.77712548805938 0.4937648066885954
1.780554883663412 12.91700330828453 115.0504184019249 98.68972070475775 0.5023032352278158
1.7989264906174016 12.894573295293728 105.92917826024636 102.78363258509039 0.5111253045096292
1.8168713199061584 12.870774505347326 97.60740710544107 107.06801075563745 0.5202322369765318
1.834349317009078 12.845650674382163 90.01508140354176 111.55436525359741 0.5296430006202416
1.8513771333441356 12.819365923443417 83.09201478829954 116.25437997310362 0.5393829981485063
1.8678640854277273 12.791461119813151 76.76749623243467 121.18064798648531 0.5494678488329812
1.8838559954199947 12.762347826217692 70.98993015502278 126.3467123997242 0.5599083721104114
1.8993204715975327 12.731860434963194 65.7034227088001 131.76710334026433 0.5707312929576618
1.9141984883745855 12.699694490775052 60.86217588830198 137.45748564252975 0.5819642129216891
1.9285028503721344 12.666198662043804 56.433071205174805 143.43472192461073 0.5936223619010319
1.9422173753842231 12.631343814095134 52.37837018707011 149.7170075378737 0.60573103991249
1.955312519406967 12.594943817752114 48.658692067691746 156.31411360390308 0.6182932708649095
1.9677788920140271 12.55719260314284 45.25332943853732 163.25182885636605 0.6313516191597536
1.9795649459055225 12.517658940192238 42.118612152900155 170.55658097689405 0.6449418767697426
1.990717920127222 12.476917845419084 39.24677490102374 178.2530076966013 0.6591095486299495
2.001146902755285 12.434509905992357 36.60688899657291 186.35578120629913 0.6738524597228807
2.010875848220504 12.390604570280095 34.181141076838955 194.89648399275615 0.6892058645108775
2.019893020864358 12.345080656813938 31.945194257962118 203.9136671405728 0.7052522356789156
2.0281806953874315 12.298301189413142 29.89470778326993 213.42692338184673 0.721990659975292
2.0356917864668502 12.249824110665253 28.004288841798775 223.47513262306342 0.7394638869529425
2.0424491100848634 12.199801682952762 26.262344693752645 234.10488442817967 0.7577660916974173
2.0484285615200766 12.148289218487976 24.65561466468641 245.3360047929698 0.7768728653107833
2.0536063910519324 12.09533345444586 23.179150312263033 257.23947832610384 0.7969189360387213
2.0579953001228 12.040924404799842 21.81500953460682 269.83379282328195 0.8178819689068363
2.0615556816296086 11.984923985199547 20.556378228466308 283.1999201405527 0.8399014358415098
2.064293628391472 11.927521016797666 19.395852551001422 297.37071239289196 0.8629791061600476
2.066181751576209 11.868581851397092 18.326923105146896 312.4247982845537 0.8872398418639557
2.067233416808113 11.808231547631884 17.33861225653808 328.42751338024453 0.9127463663716837
2.067433639299026 11.746529799210798 16.427200698001176 345.4404770128012 0.9395590420663498
