M[M_sun], R[km], Lambda[1], P_c[MeV/fm^3], rho_c[fm^-3]
0.23841724892012095 16.20908015294055 2780876.1263280716 3.453507347168396 0.169602847481901
0.2484173318864554 15.866185990904006 2281980.818321386 3.6356050877954096 0.17197918511373933
0.25870113430717395 15.56271973663549 1881472.8118893588 3.8248824952173215 0.17437633385057294
0.26926761807217303 15.293392474222053 1557932.7778155482 4.020452895574062 0.1767687666329259
0.28012402854056095 15.05365544301482 1295228.8034719648 4.222632733340801 0.17914814678928967
0.29125811435348214 14.83966991933828 1080982.7993499155 4.432794460449394 0.18155133289600137
0.3026820469451159 14.64822106160203 905342.6528024552 4.651285813490752 0.18398217357640834
0.3143882655757226 14.47668666667322 760762.2862984629 4.878474137999072 0.1864423183690754
0.32637594252115415 14.322973921204884 641400.6661553979 5.111695993186881 0.18887251567508515
0.33864879605776244 14.184668757368211 542301.1563929827 5.35410334635145 0.1913240644776682
0.3512054761983879 14.060458400718492 459858.19544643845 5.6062120301334994 0.19380560006274059
0.36404153964349256 13.948576275148687 390983.9845003757 5.868434790397353 0.1963227020322959
0.37717147714337856 13.847946013916813 333252.5037954809 6.137712423853161 0.19881625972116984
0.3905798460201481 13.75726338325885 284738.4394932502 6.417378825966416 0.20133915250660014
0.4042694660008362 13.675785524756474 243865.6823924165 6.7082879854842785 0.2038966144810496
0.4182481292012865 13.602357384837456 206722.00401575936 7.010604112952069 0.20648127216782153
0.43250992096386365 13.536364533215474 180039.76097551337 7.320821350130677 0.2090414729472817
0.44705267917249186 13.476944514919415 155159.9236783069 7.64358719710311 0.2116461263019343
0.4618818252736909 13.423724528916043 133986.56219765038 7.979435741654518 0.21429524475102504
0.47699442777199963 13.3760040061291 115913.9958809499 8.326535023761327 0.21695272517267153
0.49238784560568943 13.333376549858718 100461.65148795287 8.684644162690565 0.21960613321883526
0.5080625733019772 13.295327819817647 87213.5952157374 9.057361240558814 0.22230771975997154
0.5240169332788969 13.2613989425856 75836.95575337629 9.445291822012239 0.2250602765372317
0.5402555867914874 13.231430366824476 66052.45348974303 9.84316072949493 0.2277885929620174
0.5567711823782249 13.205108504725949 57622.46600300804 10.256863142286116 0.23056177175984321
0.5735592173517262 13.181722701281231 50336.62163539118 10.687499045245556 0.23338554276759013
0.5906273012563027 13.161243253806049 44031.83401951627 11.132253164443506 0.23621525961646128
0.607957286660137 13.143563451088262 38574.06036255585 11.591620975619557 0.23906073469332834
0.6255728416758276 13.128277222464636 33838.55872326509 12.069844399479523 0.24196555876487041
0.6434466260352543 13.115360579006397 29723.413637073507 12.566799905944055 0.24492047979474715
0.6615913618089798 13.104458779156731 26140.37652814468 13.0770734261707 0.24785240172184964
0.6799940013422807 13.095198141837932 23016.541925870653 13.608317400106845 0.25084295972250326
0.6986464550305663 13.087697206378163 20290.65155762229 14.161438866170357 0.25389398931589974
0.717569432821845 13.08190832735373 17909.54026597839 14.730653420227652 0.25694350918822456
0.7367427394440925 13.077401834207521 15824.380791071715 15.321118991164807 0.26003916873277816
0.756154433676932 13.07421647866284 13998.550087216987 15.93585648301098 0.26320067747615244
0.7758104509709512 13.071988576821271 12395.254238859485 16.572207388858477 0.2663897712921915
0.7957011129834838 13.070989133327325 10988.644133279855 17.228794826833614 0.26959002179040154
0.8158357669389628 13.070763720952343 9750.61307025169 17.912450335863966 0.27286229174254995
0.8361839468209451 13.071346587921168 8660.660949293155 18.62417938847938 0.27620789358728626
0.8567455818878332 13.07260532576009 7700.9356290778505 19.35483329695962 0.2795404719992872
0.8775356286170983 13.074536581212572 6853.357875423118 20.11554405633316 0.2829437799605389
0.8985203733597146 13.076848247880697 6104.9637013757 20.907563867819302 0.2864197941124427
0.919714026919922 13.079761138857833 5443.8833126940135 21.725924853833625 0.289921434565483
0.9410867532029432 13.082903658406485 4858.434544312491 22.573063798066784 0.2934670819492002
0.9626426692697241 13.08634971802279 4339.830925904541 23.455045571302577 0.29709618613022976
0.9843904038160841 13.090083281045157 3880.067167677719 24.37281735325359 0.3008065704801327
1.006288072480188 13.093836827414782 3472.061041433186 25.3169704336442 0.3045080667063018
1.0283425867494258 13.097698363861797 3109.4194455190054 26.300001625821555 0.3082962519481444
1.050542624672892 13.101582284603916 2787.324740629919 27.323413888675443 0.3121729414652464
1.072875845622787 13.105374134044142 2500.626236764813 28.384111133661452 0.3161092203551888
1.0953338328636157 13.109046544592418 2245.1590573179506 29.48098007485901 0.32009040649796505
1.1179243155545178 13.112685693665139 2017.545297213305 30.62290666791693 0.32416053595527194
1.1405939363753865 13.115829184833883 1814.271166907757 31.811745555579986 0.3283208452607657
1.1633643441284385 13.118925144387687 1633.0647828433569 33.04257338648341 0.3325366760794933
1.1862064433492907 13.121603707752396 1471.0261044222284 34.318516889708675 0.33682204272617927
1.2091111013133333 13.123881020328346 1326.0836915113139 35.64700691330521 0.3412132086467599
1.2320755105479333 13.125811299310767 1196.3606576620266 37.03006567500446 0.3457088186756348
1.2550836454142136 13.127278364966878 1080.1559431381631 38.46480262674897 0.3502707267603224
1.2781134432021495 13.128278032617212 976.0727260972658 39.95179540977216 0.3549068457629499
1.301121460228012 13.128502264308167 882.6669365654217 41.500311141087245 0.35966030101616886
1.324156395614973 13.128319521028985 798.7833205481986 43.11281422909385 0.3645332313911084
1.3471603495341327 13.127433653442388 723.4810551855602 44.791897835537476 0.3695272380569248
1.3701363813152505 13.125912466499365 655.7383093623353 46.53078381512039 0.3745807383881612
1.3930491390569022 13.123612634654156 594.774481318293 48.34051661155232 0.37975774076594626
1.415889218765321 13.12058625527053 539.9483056810109 50.22580309027455 0.38507030768597855
1.438666320944346 13.116886404074329 490.50689917392685 52.1898438137007 0.39052121734342965
1.4613062162232051 13.112104633570011 445.9561800996118 54.23603007471374 0.3961118218932801
1.483849118453855 13.106670067600222 405.7480920123204 56.36398672144569 0.40181752130537335
1.5062304858320825 13.100250438475312 369.4613992332044 58.57624672430913 0.4076518373063661
1.528478991005656 13.09297929690406 336.6682272001699 60.88254003390541 0.41364716561883674
1.5505320855638256 13.084667802326504 307.02677221872625 63.287130934464585 0.41980652688111286
1.5724245730089808 13.075577154150059 280.2098517183766 65.79454755934074 0.42613062174415983
1.5940626905327104 13.065205444731198 255.9447551327803 68.40966996673463 0.4326255769168645
1.6154758323568212 13.05376694407504 233.9463799676741 71.13757220141133 0.4393060318572152
1.6366502452736054 13.041429433967998 214.01518588691516 73.98371049830325 0.44617900653750353
1.6575649555432788 13.028009476417104 195.93571386605484 76.95247349740681 0.4532415130875744
1.6781594876757195 13.013180517383589 179.51292399597546 80.04841322381198 0.46048945541190495
1.6984493957704616 12.997360215248714 164.61508178320761 83.28198567100577 0.4679595891268713
1.7184148955642131 12.980334837570094 151.06344922137748 86.66028481799901 0.4756621273226807
1.738014477282227 12.96209591547456 138.73548224611812 90.19085876955181 0.4836016876309028
1.7572783820718691 12.942680705418747 127.53177336225292 93.88178937651608 0.491786078294977
1.7761308937080065 12.92205113324148 117.33375428025347 97.7417683869585 0.5002348560490095
1.7945709951781517 12.900062362105333 108.03308532093179 101.78007200551265 0.5089637521067596
1.8125597174514938 12.876596936325244 99.54608783675562 106.00661822823339 0.5179797677754565
1.830108431721644 12.851978031147292 91.81334801724267 110.43205940372516 0.5272959555123556
1.847208019975871 12.82607355577606 84.75349143118407 115.06785189434235 0.5369363142372688
1.8637748663280693 12.798577127870743 78.29757684143527 119.9262905439881 0.5469203580315911
1.8798525311970105 12.769916557576755 72.4097711015172 125.01624919511738 0.55724033872491
1.8953922706876731 12.739798544544048 67.01857058039381 130.3529155786911 0.5679245825297168
1.9103890780035069 12.708178150310811 62.07720560245426 135.95350315390746 0.5790093227226158
1.9248138056695006 12.675214325667989 57.55968463450935 141.83439638618628 0.5905126802645291
1.938638013026973 12.640742822919988 53.419001623694555 148.01325759285535 0.6024537420327821
1.951869431777797 12.604954707470512 49.628210372710825 154.50911065980245 0.6148679981050947
1.9644624351437796 12.567543837737023 46.14652718805309 161.34003868654082 0.6277786286688287
1.9764095970542432 12.528642248821667 42.9501956702208 168.5173225651452 0.6411652475718395
1.9876786210375645 12.488324962943885 40.02073441409667 176.0765298032769 0.6551133987529468
1.998294036362232 12.446527702348051 37.32529306475707 184.04351740952018 0.6696625959613974
2.0081963250850743 12.403124863760947 34.84357271581565 192.4379855856161 0.6848088277868537
2.0173891706488227 12.358257945619426 32.56413689576696 201.28455786612 0.7005873631656945
2.0258661026806246 12.311949169493653 30.468447045105947 210.62790268524597 0.7170871275015045
2.033581155845397 12.264059537786197 28.536867318200947 220.49003514289325 0.7342947641742003
2.040544576186215 12.214711258300204 26.760165665675384 230.90918406185511 0.7522777469510569
2.0467295162038184 12.163806964701546 25.120795793851492 241.93423445835808 0.7711168499517409
2.052146394612345 12.11144226554552 23.60958543363651 253.58897856826388 0.7907855827675518
2.056745960585021 12.057544305748563 22.21784083692401 265.94310262489205 0.8114361188612425
2.0605452080298163 12.00220193575533 20.93177536951552 279.0228227678038 0.8330410088851247
2.0635314739197006 11.945431056053101 19.74736930128276 292.90470103712994 0.8557339659860361
2.0656776273104476 11.887059655526649 18.65154834820423 307.63470601317135 0.8795520434421423
2.066994020529106 11.827366372381748 17.640995991238928 323.2789193414308 0.9045650352464605
