M[M_sun], R[km], Lambda[1], P_c[MeV/fm^3], rho_c[fm^-3]
0.23841724892012095 16.20908015294055 2780876.1263280716 3.453507347168396 0.169602847481901
0.248427833071704 15.865916416781532 2281655.193860229 3.63579910515063 0.1719816530878756
0.2587236154414441 15.56218542266234 1880762.5292932934 3.8252816098373854 0.17438121626068825
0.26930319874852887 15.292563413367644 1557006.488730851 4.021095938316375 0.17677663304079927
0.28017147522168134 15.052673760214649 1294240.9519427628 4.223513357017828 0.1791584443169359
0.2913172179639451 14.838514335956662 1059286.3464567799 4.433924828395608 0.18156405181853968
0.3027549400108699 14.647089258269666 904331.9395320149 4.652678729641312 0.1839972595876722
0.31447236384958455 14.475617474783478 759878.5965036261 4.880142927953863 0.1864597073434027
0.32647800513546926 14.321723887278099 640451.1778506734 5.11373805597508 0.1888937941932694
0.33876730003895966 14.183394150010512 541419.0661110644 5.356459906732786 0.19134757850112233
0.3513399115955255 14.05926466860116 459069.2918838293 5.608897877764297 0.19383141386326985
0.36419257640978475 13.947424437158412 390287.4501074379 5.8714657941349255 0.19635076965372378
0.3773392683260771 13.846696199961492 332583.87903471227 6.141246322950317 0.19884898424103556
0.3907667679557807 13.756125900675146 284132.91806180705 6.421303513323659 0.20137413294209214
0.4044757444941707 13.674571337659888 243305.17960539868 6.712621071812711 0.2039336602879671
0.41846997209692 13.601225503846475 208811.71817077103 7.015562033937044 0.20652366001094308
0.4327513340102892 13.535203888970328 179581.4231891787 7.326239114397175 0.20908613329160922
0.44731747168931907 13.475904397499693 154748.6464099252 7.649486046779242 0.2116930251669651
0.4621687819698102 13.422739099474217 133609.57367476684 7.9858377486208605 0.214344260145321
0.47730398817683706 13.375237412067303 115588.13646939896 8.333740871059844 0.21700789497308412
0.4927179291480027 13.332573053945623 100159.3130950348 8.692414113153555 0.21966329824811348
0.5084151641799126 13.294584542706543 86942.93233851505 9.065720536588266 0.22236708455932636
0.5243906728366994 13.260694933518293 75595.31822420454 9.454268032488013 0.22512182933015623
0.5406518375474979 13.23076422464128 65834.68124430111 9.853154133839908 0.22785712098393907
0.5571899854110818 13.204355325533045 57418.817226203384 10.267547510207562 0.23063237627983885
0.574004132890056 13.181033256163882 50155.00375646559 10.698905151255218 0.23345811331604005
0.5911009017613424 13.16084072440725 43491.21441645681 11.14487941055103 0.23629559322059493
0.6084560194491963 13.143053443422202 38430.41523747029 11.605054210490362 0.23914334254920247
0.626095457359856 13.127931123735614 33708.76991657934 12.084122996745066 0.24205045998195776
0.6439994553426677 13.114952143106587 29606.36063492903 12.582534136593804 0.24501403627702992
0.662171734172976 13.103989370524605 26033.34123357121 13.093752624850078 0.24794806861414495
0.680603040069051 13.094917627067687 22921.0267335052 13.625984620299988 0.2509407353494003
0.6992865080039209 13.087497166520198 20205.639482144914 14.18014100297473 0.25399418446627553
0.7182401872363141 13.081777151536794 17831.737469866825 14.751154051192959 0.25705333962224686
0.7374365282424777 13.077252156088186 15754.559256421902 15.342778019243786 0.26015154675664504
0.7568792414113874 13.074070787855971 13935.203137567956 15.958729577138378 0.2633153067512349
0.7765601199480804 13.072003091587977 12338.9860981562 16.597208667223594 0.2665150660336535
0.7964815764058215 13.070860106775392 10936.968549099702 17.255152154494482 0.26971777824525495
0.8166504456224389 13.07079063641209 9703.591620979503 17.9402308393178 0.27299287866078986
0.8370281416847641 13.071353881563885 8618.857713811032 18.653482581046084 0.27634165526591525
0.8576249565721016 13.07266985977345 7662.5500891568545 19.386720989248154 0.27968590976867524
0.8784318910394627 13.07456908806442 6819.250732377761 20.149105914220502 0.28309187518903517
0.8994534738012665 13.076962347327886 6073.843428379577 20.942883024636032 0.2865709193376066
0.9206814004357478 13.079902321204921 5415.641261618972 21.764322380725503 0.2900857316614579
0.9420834936766348 13.083024782633927 4832.742195742525 22.61343174078633 0.29363493332106744
0.9636756171073798 13.086527746196513 4316.6945305363 23.49748866153383 0.2972677758226267
0.9854416633614109 13.090185053458683 3859.0591517362946 24.417809721014596 0.3009843408102131
1.0073799967638875 13.094022304406687 3452.9395414356227 25.365368223409714 0.30469773307263076
1.0294634983575897 13.09789371986622 3092.353645802706 26.35084781512636 0.30848999842858243
1.051701161844957 13.101751091919349 2771.4340837150503 27.376841249751166 0.3123712119845127
1.0740673424475444 13.10554808926126 2486.202739547509 28.441984413458187 0.31632398981049986
1.0965618921957154 13.109279880885383 2232.1160666930086 29.541759053359343 0.3203101983586731
1.1191591655946187 13.112767675246316 2005.6680612820385 30.686748122696912 0.3243848092790678
1.1418716602870573 13.116083260663048 1803.6351720882467 31.8788157458477 0.32855057404008736
1.164662604141825 13.119033455892563 1623.2206362416475 33.115106212306294 0.33278511547515516
1.1875397575731443 13.12177155650615 1462.1283869350884 34.394691352178725 0.3370767325014162
1.2104730773477006 13.12406299140355 1318.0270760377955 35.727031584371886 0.3414745384814508
1.2334679209278445 13.12595121489374 1188.9768405010818 37.114156219092685 0.3459761940523235
1.2564894284691612 13.127354196865829 1073.4655918271967 38.55562877868758 0.35055951876245633
1.2795319933272151 13.128194130948295 969.9354938248258 40.04721212053591 0.3552034595926783
1.3025927153924741 13.128532628332689 877.0457107175578 41.60058794501579 0.3599652894898661
1.325640176237596 13.128241995453594 793.6497414343473 43.218238314870916 0.3648470723053648
1.348670831787593 13.127354307644055 718.7799896366472 44.90276829945368 0.36984944660464064
1.3716678064518446 13.125796627211608 651.4737785819116 46.650377487753 0.37492829807370637
1.3945923064750878 13.123410439438244 590.8977589838095 48.46628105136602 0.3801159453877534
1.4174548649715129 13.120339355478146 536.3621099033688 50.358112651353416 0.38543983596717496
1.440235522449536 13.116444049631381 487.21585829587605 52.3290968250073 0.3909026160899024
1.4629171767909652 13.111837709175175 442.97897056120223 54.3826448881669 0.39650494083027
1.4854555629160906 13.106237373901022 403.02014531566374 56.522013075396686 0.40224123805553275
1.5078721233535226 13.099839681502093 366.95540126560724 58.74264560523227 0.4080900375389822
1.5301059668490526 13.092382753056107 334.4023040201994 61.05783539058173 0.4141007747669014
1.552177504739312 13.08398018098205 304.9216603950266 63.471880862309895 0.42027621183690483
1.5740625132310262 13.074662872357365 278.27248612910535 65.98934232929123 0.42661667050291574
1.5957179377789186 13.064280506479271 254.15950942019285 68.61514378052432 0.43313010102902055
1.6171534616274876 13.052997531202823 232.33591655211478 71.35441109150433 0.43983020799273254
1.6383254809548873 13.040417166336141 212.51161526038769 74.21264641485092 0.446723631154104
1.6592210254676936 13.026727187988614 194.55425222315418 77.19573617651045 0.4538137014814084
1.6798455976960338 13.012113814130336 178.25979626436026 80.3088379580608 0.4610988939899258
1.7001175897190912 12.996012876297653 163.43706318963305 83.55716130951367 0.4685943904344046
1.7200619481932173 12.97883848258782 149.99438577520954 86.9511912374065 0.47632393252532784
1.7396904605395958 12.960631371791923 137.75416828010398 90.49854414495968 0.4842915868509427
1.7589163185505023 12.941079851417822 126.63162470207195 94.20737448022068 0.49250563431526195
1.7777448419756743 12.920182086896162 116.49082445383004 98.08646271646384 0.5009869598846293
1.7961500626944422 12.897924085324068 107.2543286055844 102.14518261435758 0.5097505406692855
1.8141343129428982 12.874476962241095 98.83574362253968 106.39354703626007 0.518802666042705
1.8316607974076942 12.849637641578958 91.14840069173528 110.8423118290845 0.528157390040963
1.8487171263042697 12.823507216706995 84.13865913111762 115.50305590650493 0.5378397129612832
1.8652859658175698 12.796134100572942 77.74183895787343 120.38352848169116 0.5478511356035799
1.88131436558371 12.767076525492225 71.88111228343418 125.49983048825186 0.5582100844722703
1.8968347706361957 12.736918917618722 66.53603154947987 130.86688441949872 0.5689446463036592
1.911790282483715 12.705172889619742 61.633250351465946 136.50005911919388 0.580083146970762
1.9261515441298898 12.671873604219389 57.1468330204626 142.41591200219204 0.5916426556282998
1.9399456488269702 12.637375297539974 53.0397627677739 148.63229816419116 0.6036445155719532
1.9531235720389026 12.601221062266099 49.26912376831239 155.1684614974804 0.61612442987699
1.9656757035239778 12.5637567287228 45.81645664798038 162.0345668980821 0.6290766490973693
1.9775564180984768 12.524578539061945 42.64464927903332 169.25808486788398 0.6425371112479246
1.9887959714869403 12.484124955215616 39.732871936360674 176.8670568225377 0.656564855926243
1.999342442737757 12.442084140651195 37.058870437097696 184.88764725550536 0.6711994285449613
2.009179611972989 12.39854062073829 34.60142558479186 193.33079436335416 0.686405620760908
2.018305784248078 12.353469061141308 32.337132369321445 202.23921940197917 0.7022812350794003
2.0267176676928673 12.306975361652652 30.25772908618761 211.64933060272853 0.7188853432757994
2.0343550413454627 12.258835370729152 28.34084051496569 221.57375465334047 0.7361713793415217
2.0412558685620033 12.209315276896366 26.577074789741427 232.07033079328608 0.7542735750889614
2.0473673624695707 12.158097215020288 24.94808722177753 243.1689723279297 0.7732061062631777
2.052687094603495 12.105600501417761 23.452147650824834 254.91383184753406 0.7930115227027018
2.0572104927072394 12.051501740117402 22.069583485921964 267.354994607729 0.813775252417985
2.0609254384847038 11.995916440334305 20.794380030856626 280.5399934447504 0.8355351947389695
2.0638111213775847 11.938785417217218 19.61600514788318 294.52499235760547 0.8583625391813178
2.0658728678550062 11.880361876999801 18.531449760067556 309.3784611606752 0.8823617478309456
2.0670917909443016 11.820399062580547 17.528994689431883 325.1486059436189 0.9075344976733247
2.067470942144182 11.759068284521458 16.60445130948243 341.9262167684938 0.9340445720861611
