M[M_sun], R[km], Lambda[1], P_c[MeV/fm^3], rho_c[fm^-3]
0.23841724892012095 16.20908015294055 2780876.1263280716 3.453507347168396 0.169602847481901
0.24841527306114292 15.866271414405688 2282223.3780246726 3.635565268574107 0.1719786785981846
0.25869678573698407 15.562906726884277 1881541.8031793518 3.824800586428893 0.1743753318519564
0.26926178615719687 15.293569847777054 1558128.7432102188 4.020320932573615 0.17676715231599577
0.28011376792997006 15.053918269852614 1295429.9943160382 4.222452022584323 0.179146033657359
0.29124479586046 14.839830059922935 1081189.0587691667 4.43256250993027 0.1815487229841622
0.3026670166932882 14.648464034645272 905584.6937690839 4.650999999898693 0.18397907806554975
0.314368162220396 14.477024886787403 761024.8555545933 4.878131731137944 0.1864387504520343
0.3263550245631782 14.323189763160379 641548.1945744519 5.1112770174480895 0.18886814990194234
0.3386250887541449 14.18492297322785 542477.540243088 5.353619862754155 0.19131924022417718
0.3511760279261526 14.060650181240094 460001.36813588435 5.605661008841938 0.193800304172704
0.36401140012180266 13.94888524494828 391145.9336363108 5.867812980373008 0.19631694396339386
0.3771368748725049 13.848227620267075 333374.4656638415 6.136987480769542 0.19880954662221337
0.3905403416750833 13.75755844859083 284862.3648557661 6.416573745126629 0.20133197688321447
0.4042289353151564 13.675901025031699 243960.76974295688 6.707399159375382 0.2038890154447236
0.41820130375699244 13.602529021512177 209418.35659498963 7.009587168899321 0.20647257778461092
0.43246085560595043 13.536573939409603 180133.14901807142 7.319710122586441 0.20903231274718612
0.4469995965865794 13.477192969016068 155248.17112736884 7.642377334762885 0.21163650727895264
0.4618243021797608 13.42394201194531 134067.3393393313 7.978122723291246 0.21428519194834428
0.4769319020637145 13.376234996513402 115984.18791124398 8.32505721840549 0.21694141071884637
0.49232197905056385 13.333517226930308 100513.59422314509 8.68305071870351 0.21959440994304258
0.5079894478269138 13.295457779058784 87270.55820534338 9.055646987656395 0.22229554573488175
0.5239400531815267 13.261623938024028 75892.91609705055 9.443451113279524 0.22504765419913425
0.5401758092547043 13.231573320152346 66096.58132762481 9.841111537964123 0.22777454098960667
0.556679965799786 13.205159301237916 57662.147181326574 10.25467233062245 0.23054729442182462
0.5734656416168363 13.181761294591393 50372.119377725445 10.685160310569117 0.2333706627324577
0.5905318424300615 13.161413290624724 44065.74571429316 11.129664389374637 0.23619878871689204
0.6078598379786387 13.143696672810389 38607.03749885001 11.588866821433534 0.23904379798565945
0.6254637472965466 13.128403736893048 33865.408025465345 12.066917007332275 0.2419481523522116
0.6433353624324031 13.115397433449985 29746.634605002902 12.563574258899212 0.24490129994431029
0.6614697455657034 13.10444122083026 26161.889882888092 13.073654148108973 0.2478327897661228
0.6798692321512081 13.095255908690413 23035.830028963803 13.604695674693431 0.2508229160218603
0.6985174988974107 13.0877442565184 20308.069320820345 14.157605090434462 0.2538734501796297
0.7174334194373719 13.081973452355637 17926.181362086645 14.72645120635022 0.2569209961750986
0.7366052561976266 13.077451560048452 15838.758745130825 15.316679449153105 0.26001613413693525
0.7560094549018039 13.074172680405542 14010.84194931949 15.93116821437965 0.2631771820613385
0.7756545824860103 13.072038492990751 12407.513640382316 16.567083205614676 0.26636409127673955
0.7955457938194077 13.070977593131227 10999.105336079981 17.223392855294513 0.2695638379244978
0.8156668961685781 13.070746323975495 9760.023249873004 17.906756832943817 0.27283552847666576
0.8360125651662162 13.071350193912503 8669.6159133462 18.617971336284157 0.27617871159618973
0.8565672767563793 13.072578815739424 7660.4614865225285 19.34829860194109 0.2795106676641686
0.8773550894803172 13.07448259845445 6860.11815696995 20.108666458390257 0.282913431836121
0.8983277080020596 13.076828939778778 6111.507291195525 20.900326349207155 0.28638882588645803
0.9195129424748772 13.079742838603492 5449.394879857134 21.718057000649313 0.2898877692350731
0.9408817567039471 13.082850013395975 4863.3836536966155 22.564792414556926 0.293432689236175
0.9624342697954109 13.086271040330459 4344.4415196400205 23.446349221195362 0.2970610283688193
0.9841696850749577 13.090010542972049 3884.3631652635195 24.363378391678253 0.30076841047565533
1.0060631141643435 13.093841340109105 3475.9939956190024 25.307054881224733 0.3044692085930149
1.0281090684783811 13.097671874034324 3113.1536959047157 26.289584733698373 0.308256558979732
1.0503176790778173 13.101651782150581 2790.662768381598 27.312468486014776 0.31213232275181163
1.072628556647523 13.105260931803905 2503.5283031039817 28.372255676388804 0.31606522440213664
1.0950876872193398 13.108954185292628 2247.76708198438 29.46852972070579 0.32004538292940027
1.1176519979333828 13.112492023245997 2019.9525936169275 30.609829338419953 0.3241145956463807
1.1403320622527389 13.115887784879481 1816.6515418632384 31.798007233507796 0.3282737887674566
1.1630925507289356 13.118875270656986 1635.0102454766582 33.02771710535783 0.33248579035344095
1.185932507560583 13.12154216162714 1472.8141456412668 34.302915167703226 0.3367698782744453
1.208836915891722 13.123917423435158 1327.7316799226899 35.63061708310169 0.3411596857573733
1.2317930028862092 13.125799918003516 1197.8713056088293 37.012843620255566 0.3456540592086131
1.2547927034522168 13.127285841593329 1081.598801170939 38.446202361751546 0.35021158511824935
1.2778114871481028 13.128177653159886 977.2950371078848 39.93225563166638 0.3548461041132996
1.3008236000037983 13.128501107066187 883.8077803416886 41.479776723777796 0.35959784628737695
1.3238557063227987 13.12830194052637 799.8041084503448 43.091226438781504 0.3644689658886052
1.3468596144579457 13.127434983373742 724.3807017245065 44.76919550607902 0.36946126120117617
1.3698145082616082 13.125879162479407 656.5992918173159 46.50629701776966 0.3745095755632401
1.392739502618469 13.123693572095323 595.611604138693 48.31476719085086 0.37968440078591864
1.4155801513580375 13.120690685938754 540.6437015167352 50.19294435252993 0.3849666923953947
1.4383389554991477 13.11687651055788 491.1721967063081 52.15885225691264 0.3904340110805535
1.456131683745825 13.110214125970709 454.7249448461948 54.396939529151155 0.781850030950326
1.4610036826557267 13.092002933328937 439.9934176865285 57.3715075308117 1.25289690793879
1.4576059947945452 13.062267954797191 436.522931112774 61.08483242915581 1.6827068078936622
1.4489940025149 13.022807507192507 439.2441831828946 65.50091979318701 2.074135607874459
1.4367181805921083 12.97402686187324 445.68850119088523 70.60556563554815 2.4356329627537083
1.4218477558032034 12.91750346225761 454.7003681234752 76.39623648061944 2.792984029223549
1.4050433834455254 12.854141995191233 465.5295655445997 82.91069595068686 3.196945868769578
1.3869142308115214 12.786395551293209 478.0636340343462 90.23108517442725 3.6715695472539136
1.3665406063738132 12.708618935418544 492.36072714775975 98.22536326114658 3.7718784086864465
1.3444037825499529 12.618108498126343 506.8008298290569 106.54602745580111 3.820512791046865
1.3215650338452698 12.516446246793846 519.5838612638731 115.21426826850453 3.8690358457730305
1.2987600150711642 12.405086037950475 529.6609295678655 124.24278953559067 3.9193479607211605
1.2764419045690858 12.285473927019565 536.1288010496594 133.64884322449478 3.971587717047869
1.2550199402385964 12.158571185950372 538.3585349411671 143.450792815327 4.025847526916097
1.234604640944607 12.025302635768833 536.1565549658898 153.6685080249244 4.082204131694569
1.2154900022577309 11.886776272772584 529.2554411892307 164.32417362222986 4.14075713003312
1.1977288390583956 11.743706575879258 517.7701794688011 175.44181284289684 4.201630430519021
1.181452488655962 11.597241689397398 502.06816753238235 187.04685500192105 4.264920029354429
1.1666785809868099 11.448004881374592 482.48496194640757 199.16766798509974 4.330763604511957
1.1534325980407103 11.297031345074775 459.7383560895815 211.83413996681594 4.399300626427526
1.1417075326236963 11.1449176568218 434.38460704795466 225.07867292996283 4.470659845990124
1.131458987777291 10.992715498314444 407.32994870865 238.93684256133946 4.545028653039136
1.1226858254891612 10.841080940488627 379.1509474519094 253.4085853013353 4.622304822161525
1.1152594845964052 10.690508335777968 350.6601874878416 268.55819954301666 4.7028566660435684
1.1091399966596847 10.541701590128547 322.37860737133605 284.4382338694907 4.786888619517014
1.1042410148866064 10.395263273003971 294.82404458333264 301.0954800022937 4.874630930836155
1.1004127310328289 10.251151926736423 268.43127202360984 318.5818395526269 4.966302260829297
1.0976117092570539 10.11019643302754 243.47114223225375 336.9523169243707 5.062135874272307
1.09571848910316 9.972564569922286 220.16386496186107 356.2018120670639 5.162004573749421
1.0946121203246866 9.8382509549502 198.61062917381383 376.4364111224096 5.26642841944646
1.0942186883690568 9.707559150374175 178.83660432995 397.74356302532726 5.375823424842735
1.094429678352314 9.58047426666424 160.85066789657304 420.1868975911739 5.490419813723738
1.0951350774283635 9.4570977740881 144.52902907626645 443.76547131708656 5.610063805229486
1.0962550311439894 9.337304411253996 129.87514392523605 468.65585300362994 5.735664532754276
1.097706873099246 9.221097414272261 116.72156372115528 494.91921429266614 5.867400913732562
1.099391714202593 9.108341325874044 104.95979530487286 522.6055295645331 6.005371883814297
1.1012478514969584 8.998900641592574 94.467990043286 551.9104466645061 6.1505439331383345
1.1031899081391854 8.892786869044086 85.14462308240671 582.8275293298876 6.302609781556406
1.1051580785527162 8.78974584532586 76.85649275059474 615.6055439663832 6.462836193701576
1.107090740785855 8.689649086172718 69.51100255102423 650.2609792987054 6.63095338040997
1.108912389631574 8.5922163085679 62.96581032375178 687.0507594759337 6.808270725093883
1.1106002738933782 8.49765844341921 57.038203880144984 726.0349045543558 6.994689749950979
1.112088906871821 8.405541685035285 52.027966608898836 767.456329416161 7.191300535413989
1.1133252097812596 8.315718454946465 47.33898975315064 811.5071835981828 7.398837671861358
1.1142816271215272 8.228110497386188 43.38466188646822 858.3238288820155 7.617532067333047
1.1149179059675727 8.14257190543673 39.76411823189383 908.204415025556 7.848680806171778
1.1151990484746834 8.059003143259893 36.48593597670832 961.392397980265 8.093099725387916
