M[M_sun], R[km], Lambda[1], P_c[MeV/fm^3], rho_c[fm^-3]
0.23841724892012095 16.20908015294055 2780876.1263280716 3.453507347168396 0.169602847481901
0.2484030998733876 15.86657108631642 2282757.758567453 3.6353409775982333 0.17197582553214405
0.25867090430938067 15.563582617441712 1882362.2370513363 3.8243392394076303 0.1743696881464892
0.2692220640351954 15.29446486604568 1559230.2295764273 4.019577697459921 0.17675806024455884
0.2800614208471846 15.054962561735753 1296581.2045745198 4.221434282385694 0.17913413276472406
0.29117963594234175 14.841108453137421 1082341.9550040592 4.431256255434827 0.18153402498268534
0.30258241643192224 14.649789920435843 906716.8189243955 4.6493904833740665 0.18396164615881927
0.3142688907896521 14.478353524537754 762126.0844848508 4.876149515717964 0.18641756521378217
0.32623629828434103 14.32453807362228 642617.2335714619 5.108917852037424 0.1888435671396587
0.33848846337118915 14.186357877430353 543456.3973687384 5.350897584553567 0.19129207702735682
0.3510215179977463 14.062055372991258 460894.05079470575 5.602558586700245 0.19377048665610141
0.3638384838030772 13.95025697362019 391963.1078296799 5.864312138985577 0.19628452556366593
0.37694053131068533 13.84961220936698 334164.71458743827 6.132906219724019 0.19877175343556894
0.3903245213183098 13.758898005021837 285574.56848456437 6.41204150788192 0.2012915814024686
0.4039925040148689 13.677295630344153 244622.34005539608 6.702395669137833 0.20384623800637952
0.41794073910038837 13.60382546001192 209996.09885752448 7.003862788614232 0.20642363708260542
0.4321769564030817 13.537653966852686 180648.6346684109 7.313455257128638 0.2089807519129883
0.44669305435948264 13.478330050666704 155723.2398828059 7.635567527293734 0.2115823658346176
0.46149458545594063 13.425050398395419 134494.71834833027 7.970732562201241 0.21422861099464627
0.4765743352054856 13.37719575166316 116369.0699854638 8.316740059992279 0.21687773243777164
0.4919428422193667 13.334511804642478 100869.21298738928 8.674083058233805 0.21952843312945158
0.5075862469068974 13.296500337431787 87587.21997395554 9.045999767987388 0.22222703455188683
0.5235089785569246 13.262475555257879 76175.2893207383 9.432996906817607 0.22497535300078475
0.5397143695772026 13.232370847763065 66353.74873389878 9.829580481659747 0.22769546878838992
0.556194144795629 13.205798661220133 57886.44050684505 10.24234477279726 0.23046583136201937
0.5729470583860813 13.182408561682294 50578.45898156804 10.67200083214754 0.23328693647517415
0.5899803529623787 13.161947690949713 44252.786975793766 11.115098884596252 0.23610611671565676
0.6072848597251211 13.144226722636073 38771.722518270486 11.573371326460972 0.23894850823395755
0.6248569386561245 13.12887628358084 34015.36667969616 12.050447361861533 0.24185022305849607
0.6426977476862814 13.115825534591892 29883.029964430316 12.5454277501128 0.24479339994172597
0.6607991550755796 13.104833722791142 26284.578607778556 13.054418934416615 0.2477224623366127
0.6791718426630831 13.095621320138012 23147.52474191162 13.584322221380328 0.250710163299702
0.69778213496152 13.088035607610104 20409.336176509685 14.136039443282536 0.253757914009515
0.716669221938041 13.082146301957684 18015.57857658742 14.70281453868743 0.25679436468396855
0.7357933062553407 13.077569266632603 15920.043736358213 15.291708615079092 0.25988657278370586
0.755171949918594 13.074338631126121 14084.764443233706 15.904799178886806 0.2630450327593537
0.774783982229999 13.072110253685576 12473.87122158027 16.538264261954122 0.26621966417815585
0.7946402769093756 13.071001858866726 11058.77799683166 17.193012509969012 0.2694165815233198
0.8147234852191545 13.070717102248835 9814.021053901173 17.874737888130667 0.2726850180535775
0.8350382697713373 13.071260542822802 8717.791634578554 18.583061019010618 0.27601460979165965
0.8555597794949601 13.072496637095764 7752.676283603264 19.311552537202964 0.27934307116201523
0.876299860926721 13.074316729461156 6858.454727329512 20.069993322108655 0.2827427825540247
0.8972475781257451 13.076733779258197 6147.931509862215 20.859630564835015 0.28621469490115814
0.9183936191483693 13.079607330253312 5482.661855300724 21.673819942473802 0.2896984856852972
0.9397339344139615 13.082768834604689 4893.474360893556 22.518287887069587 0.2932393217219814
0.9612420305966375 13.0861406627276 4371.802725289468 23.39745684952158 0.29686336540482794
0.9829365759804741 13.089778161683826 3908.833323977484 24.310314658456388 0.30055388345579503
1.0047988433816168 13.09358555285704 3498.051087504483 25.25131353577856 0.30425076352566194
1.0268109632073117 13.097361811535801 3133.080900073494 26.231026820718625 0.308033427419693
1.048968253535834 13.101210642345244 2808.80144160631 27.250941458192635 0.3119039941293682
1.0712712742177504 13.105134159955591 2520.008793803139 28.305617798809596 0.3158179292648809
1.0936753497192089 13.108750224375653 2262.9983551595315 29.398550172694517 0.3197923195274081
1.1162153570106126 13.112319778068974 2033.6909567698833 30.536328050261215 0.3238563875861877
1.1388632170449557 13.115663749433962 1829.1052489920173 31.72079326047483 0.3280093155089101
1.161585574130879 13.118639969748122 1646.3448648116334 32.94422603513715 0.3321998167850122
1.1843926558035882 13.121406603319434 1483.1318383362 34.215237596733886 0.33647672778648113
1.2072599754979887 13.123712667710794 1337.169450194825 35.53851355806142 0.34085891102562627
1.230200995677333 13.125776676797502 1206.5092967636622 36.916066567531004 0.3453463456457195
1.2531526675474634 13.127127257884078 1089.3744184441018 38.3416886639476 0.34987927201904834
1.2761543957977035 13.12816586696569 984.4579689174176 39.82246658157294 0.35450481221222907
1.2991559475911982 13.128605278577941 890.2986364976068 41.36440302542958 0.35924694112501154
1.3221500362731657 13.12837112721858 805.7818008918526 42.96993857357762 0.36410789949449596
1.345109341741362 13.127526827456235 729.8563278117872 44.63940281484697 0.3690777901977103
1.3680529771718384 13.126066270146357 661.5666834474571 46.368737407658415 0.3741098037878482
1.3909317658671834 13.123847077951615 600.1628989638282 48.17011985610535 0.37927241355077745
1.4137646512681667 13.120933933351786 544.8256023160369 50.04655013720772 0.38456967088311983
1.4364835990421405 13.117139624374492 495.0071472769316 52.00119647656248 0.3900045329483502
1.4591181461495901 13.112607023963992 450.0595177192093 54.0374231734566 0.39557929634513
1.4816425530954112 13.10725242677774 409.49823320370854 56.14995258846045 0.4012436306536924
1.5040319784112677 13.10103718912482 372.90630226498723 58.35088855078824 0.4070583717523255
1.5262396450901223 13.09372189046279 339.82594247990613 60.645150279182175 0.41303287573437564
1.54829996349005 13.085608511634788 309.9178224241448 63.03695603774845 0.4191705137217314
1.570144596597472 13.076397652632684 282.85949138255165 65.53079060988806 0.4254724996707217
1.5917859148395217 13.066235997630804 258.36680998587804 68.1314748516905 0.43194249160864384
1.6132070786940529 13.055122644588964 236.2020999830491 70.8440129661242 0.4385963955671925
1.6343736514518372 13.042731216104851 216.07143863983555 73.6713001261094 0.4454309465874604
1.655271765915746 13.029452992726606 197.8331840555489 76.61872906717248 0.4524475553936489
1.675886554688139 13.014868372301349 181.254959162801 79.69596038042742 0.4596646552625979
1.6961571533660451 12.999178089816995 166.26394475975954 82.90960154338703 0.4671005380408129
1.7161678740951614 12.982366736066863 152.54367823234952 86.26664783076555 0.47476661251542396
1.7357856743988462 12.964276901513127 140.10648887295204 89.77455543557048 0.48266824272786496
1.7550454618183287 12.94514336505931 128.8326506108677 93.44130852836868 0.4908125981126888
1.7739105603392369 12.924445245324586 118.48634703928747 97.27547947374879 0.49921743960170323
1.7923763862525923 12.902736934882276 109.10413747921295 101.2862132347966 0.5078995200004076
1.8104058865760277 12.879517130841496 100.53268831992524 105.4833002297244 0.5168668047050942
1.8279973644673706 12.855107308255887 92.72524195912035 109.87725364124832 0.5261309926482136
1.8451035437426155 12.829327965914352 85.59305895633902 114.47936505455785 0.5357147302322898
1.8617308491565598 12.802113700318168 79.0776766227689 119.3017507781067 0.5456383603124549
1.8778312663699879 12.773548386564311 73.12227117324095 124.35739737661925 0.5559109138121129
1.893448790731874 12.743803872893487 67.67751654618384 129.65810944314552 0.5665456145602397
1.9085014959756208 12.712489540045086 62.69607819185067 135.21473116784114 0.5775578496386592
1.9229826769219183 12.679764921242695 58.13258242776781 141.0484646905665 0.5889854926375538
1.9368376985498081 12.645384531953187 53.94999946028365 147.17671343966555 0.6008445831374013
1.9501262688447276 12.609816272547134 50.11821170475357 153.6182058893313 0.6131703267056088
1.9627816069616038 12.572638715031811 46.60043627582348 160.39318769078272 0.6259949460487249
1.9748000540514963 12.534048868332663 43.37371700621682 167.51662044340773 0.6393119852145122
1.9861658742080421 12.493981212018843 40.40871559380904 175.00874647997378 0.6531528816214973
1.9968487162107922 12.452371599699852 37.6844368652905 182.9034917528268 0.6675870520345502
2.0068495153903885 12.409347904597299 35.18134987177091 191.2283580867744 0.6826395090101637
2.0161247442947205 12.364679484591276 32.87633159089556 199.99556106369056 0.6983002746023884
2.0246856050856983 12.318705590015059 30.760121427819165 209.24896649299927 0.7146595212356059
2.0325045984690306 12.271104209861516 28.808870877699682 219.02715665189038 0.7317615810602124
2.039572056457327 12.222016809240774 27.010379682987896 229.34203979941654 0.7495840730763728
2.0458686595378546 12.171503631618558 25.35663895507489 240.2587414654985 0.7682657652336159
2.0513665469894438 12.119292218798796 23.828612071411605 251.8013939296679 0.7877821890357544
2.0560994404257644 12.065797669213376 22.415800862357617 264.02730185146277 0.8082446980772703
2.0600281214673517 12.010770219535612 21.121939188405396 276.9763710890215 0.8296766999742322
2.0631246288752463 11.95426626854265 19.923058062170263 290.71445112142976 0.8521728325047295
2.065397703738164 11.896243935927627 18.81621280188746 305.2833858943853 0.8757633725001861
2.0668394124422367 11.8368161498767 17.794209542036963 320.76633514369314 0.9005688176560289
2.0674572790511108 11.776000381176503 16.849292233675854 337.22969819497416 0.932929806423757
