M[M_sun], R[km], Lambda[1], P_c[MeV/fm^3], rho_c[fm^-3]
0.23841724892012095 16.20908015294055 2780876.1263280716 3.453507347168396 0.169602847481901
0.2484077369532594 15.866449418911959 2227781.7680453495 3.635438297148988 0.17197706347363617
0.2586838011521755 15.563230856961223 1882032.7428978174 3.824539412420637 0.17437213688350456
0.2692385649080291 15.294015145812402 1558755.6870350593 4.019900170105011 0.1767620050855272
0.2800853482876088 15.054448176992402 1296038.0698498525 4.221875846161287 0.179139296168009
0.29120623681385993 14.840451516203302 1081833.7408191157 4.43182298316469 0.1815404018143361
0.30261916373789577 14.649201945531424 906207.9177141483 4.650088768100566 0.1839692089480404
0.31431208783910725 14.477756366549547 761624.7301740223 4.87702255263881 0.1864270206607711
0.3262857564234109 14.324048126651034 642193.1423467916 5.109941321285518 0.18885423180145677
0.33854669067591425 14.185741442158669 543046.1264418679 5.352078557347344 0.1913038609061793
0.3510886592444811 14.061495014416469 460528.9933385052 5.603904445515106 0.19378342176477587
0.36391440712523515 13.949712040151052 391601.8479497495 5.865830805753789 0.19629858868189864
0.3770257243143822 13.84893505956058 333821.0517690851 6.134676625292541 0.19878814769884717
0.390421601831551 13.758447093507094 285279.7164661966 6.414007504200089 0.20130910417590897
0.404093333169939 13.676700056550832 244352.3117619059 6.7045660452407425 0.20386479367962315
0.41805400514238517 13.603232870722765 209742.34853896766 7.006345798653488 0.20644486562584605
0.43229871980136375 13.53716323868113 180421.75136491875 7.316168321284784 0.20900311655888945
0.44682454698660656 13.477821994133349 155517.44943476198 7.638521246331645 0.211605849408213
0.4616372522409137 13.424517006808939 134308.3916473259 7.973937950668591 0.21425315226434882
0.4767309258342843 13.37680581820882 116201.76824384679 8.320347420428371 0.21690535130714683
0.49210782257047764 13.334171897057375 100723.11478238966 8.677972491491643 0.21955704844265325
0.5077620210506878 13.29609298699073 87450.71161856469 9.050183868233775 0.22225674856975774
0.5236977118680307 13.262114808550233 76054.33659975698 9.437585120756166 0.2250074291816771
0.5399140963055814 13.232089087244052 66243.26876754529 9.83458139599142 0.22772976168349543
0.5564049598177064 13.205514197532683 57789.852992959495 10.247691036531695 0.23050116058200834
0.5731715380772594 13.182133237501972 50487.64870167383 10.677707796203789 0.23332324663318907
0.5902198614456062 13.161811370147888 44173.78521069012 11.121415424660954 0.23614630525821573
0.6075363223677146 13.143979669512817 38698.11317189416 11.580091065779559 0.23898983135995666
0.6251163431978904 13.12871492663662 33952.45835181793 12.057589439348016 0.2418926901902358
0.6429741178037514 13.115657830880235 29823.957721662442 12.553296764704955 0.24484018947600075
0.6610878254450039 13.104584190464058 26231.474463381932 13.062759926713786 0.24777030377234763
0.6794749509568175 13.095494788445848 23098.866649216336 13.59315665831459 0.2507590556891151
0.6981002111950257 13.087922689937225 20365.748268602994 14.1453907070263 0.2538080126312292
0.7170033358192912 13.082069647775757 17975.666393279014 14.713063520844806 0.2568492727577998
0.7361458845446014 13.077588588643993 15885.607705394545 15.302535940219837 0.25994275043852233
0.7555294329595447 13.0742457159413 14052.86527973038 15.916232596379757 0.2631023317129466
0.7751618119372654 13.072103151254339 12444.69423399318 16.550759548966166 0.26628228472630555
0.7950361424139679 13.070930779537637 11032.133411949952 17.206184598296556 0.2694804278786634
0.815135935328624 13.07074915655376 9790.608451404472 17.88862022937101 0.2727502743281278
0.8354623612249708 13.071280876903868 8696.843801395376 18.598196475643917 0.2760857565453958
0.8559970399246776 13.07255673644033 7733.200401424604 19.327483658727733 0.27941573201051584
0.8767575468904812 13.074415998968998 6882.883399200184 20.086759678778517 0.2828167658665817
0.8977181170886639 13.07678099461025 6132.0123424332005 20.87727356889208 0.2862901865946469
0.9188797757018287 13.079656870232292 5468.2972410700895 21.69299757707103 0.28978054382619944
0.9402262993367735 13.082797057834512 4880.53306043517 22.538448225804785 0.29332314914260377
0.9617582018194493 13.08616645873158 4359.687769683192 23.418652045845135 0.29694905372765357
0.9834671391716977 13.089871341911506 3876.8085752024554 24.333317392649715 0.30064687932539397
1.0053497079398719 13.09369167056686 3488.4774082580784 25.27547664561449 0.30434545647060823
1.0273777566943874 13.09755356953525 3124.5563156288217 26.2564105053334 0.30813015049022985
1.0495517713977975 13.101431205195416 2800.9857602647894 27.277611803791054 0.3120029685717577
1.071862843521688 13.105227218905432 2512.913980939622 28.334502559849625 0.3159251214685567
1.094287642264539 13.108856464896359 2256.3729139970596 29.4288829585305 0.3199020104041528
1.116841160181305 13.112402697309767 2027.6828771008738 30.56818686385333 0.323968306746569
1.139505364170414 13.115733760737205 1823.5407042076697 31.754260813953056 0.3281239485549287
1.1622458147580834 13.118773456156134 1641.4552477151335 32.98041303311743 0.332323764470864
1.1850592689549662 13.121461655721742 1478.6725660822608 34.25323853563592 0.33660378415516323
1.2079400167011456 13.123783275756871 1333.0757581977102 35.57843215306665 0.34098926982241684
1.2308883537470554 13.125727042283753 1202.7054641617246 36.95801004852543 0.3454797096779316
1.2538568862744675 13.127209024368984 1085.9734477181307 38.3869835576075 0.35002329224612266
1.276873339531579 13.128196139516042 981.3427610341865 39.87004697097423 0.3546527213301112
1.2998675298677904 13.128498567981994 887.4975618716791 41.414402860798546 0.359399013916294
1.322876161102612 13.128336344739155 803.2516639498886 43.02250055919385 0.3642643732405032
1.3458747530675121 13.127513708555844 727.4743615674327 44.696113320366536 0.36924661382818347
1.368817389768092 13.125961423378232 659.4225084551693 46.428347689980036 0.37428304147277663
1.3917184821925537 13.12377672058988 598.1520313370748 48.2328004335205 0.37945094153977743
1.4145291316085895 13.120731483358378 543.0286056230783 50.11248690504219 0.3847538261345381
1.437282964450316 13.116983737583979 493.29965391786976 52.0705872056711 0.3901945865554538
1.45993502632195 13.112479599080693 448.5350201948666 54.11047554621954 0.395775171989949
1.4824520449427439 13.107077782930146 408.14631801009983 56.22867530881678 0.40145471022617585
1.504836845022839 13.100699181364865 371.61910450986113 58.43377417702875 0.40727664546004294
1.5270637700044007 13.093443397807016 338.6591260906685 60.732458766014574 0.41325880258766917
1.549110153456269 13.085216500028794 308.84531841931226 63.12896423569243 0.41940442377998055
1.5709854213974184 13.076078147771558 281.88417496471965 65.62779128312111 0.4257145341813782
1.5926251690330187 13.065852141996569 257.47618855300806 68.23378249925167 0.4321936996536038
1.614041110662702 13.05456175696062 235.35838198408368 70.95196772719423 0.43885736032975936
1.6352181003874313 13.042288120240348 215.3110091686915 73.78756387525817 0.44571199710705783
1.656106951731931 13.02881825179533 197.11923288173847 76.74145109708518 0.45273950363618565
1.6767122044831697 13.014199284731376 180.61629616731386 79.82555774007227 0.4599679353285449
1.6970126731382482 12.998512272422511 165.63136858086884 83.04652334244712 0.46741640225591735
1.716997328838438 12.981617541545793 151.9929341928693 86.41137940301763 0.4750958734086652
1.7366227062151371 12.963510974764185 139.60037255742856 89.92761584109964 0.48301143828681403
1.7558567309567799 12.944120472855289 128.32709428684316 93.60325266808717 0.4911705010982935
1.7747266616358017 12.923538212312101 118.0585868003657 97.44690605309567 0.4995914828534126
1.7931829298334998 12.90164945480212 108.70227752933278 101.46776911149234 0.508290760582804
1.811195535298329 12.878400658857169 100.16760739130598 105.675679063513 0.5172759451094681
1.8287913647731293 12.854068499039597 92.39025277142237 110.08120014224407 0.5265592327927844
1.8458736629338541 12.828063149273522 85.28157810530618 114.69568437721078 0.5361637669934475
1.8624601990461498 12.800768550454812 78.79433483701465 119.53131356296367 0.5461095856573613
1.878591287529733 12.772213446806147 72.85436796302324 124.60114003871588 0.5564052712880134
1.8941662684995768 12.742270166736034 67.42969784020967 129.91348514801834 0.5670524536613736
1.909172564486328 12.710857932688644 62.46861113774017 135.48625486889154 0.5780913151072531
1.9236250344523391 12.677941222544595 57.92024540548161 141.33730849310754 0.5895467611088824
1.9374963458265002 12.643733143199585 53.75568276935305 147.4841443740698 0.6014359508744485
1.9507691560964762 12.607985272728413 49.93520378107104 153.94559929682438 0.6137941940848207
1.9634008917230492 12.570752459786922 46.43319750952683 160.74203542723728 0.626653603356133
1.9753897556647497 12.532094644762878 43.21927594163237 167.88433525413694 0.6399929790908646
1.9867287679638208 12.491896020277698 40.26461435599159 175.40109113796638 0.6538732510135269
1.9973854351552982 12.45015853596996 37.548459101929105 183.32235956772593 0.6683496476342732
2.0073480863186237 12.407045527375432 35.05622323819653 191.6752937776788 0.6834447496654797
2.016587815556513 12.362281827084857 32.76090099390743 200.46912289547603 0.6991405232728689
2.025118126426214 12.316203256674413 30.6523344039843 209.75554292694216 0.7155513450430532
2.0328901351463324 12.268459088456247 28.70945735653442 219.56455043618195 0.7326921551771346
2.03993516853693 12.219369379135118 26.918438890412073 229.91770242915754 0.7505735463645258
2.0461832124598467 12.168567417157576 25.26710186492828 240.87579671976977 0.7693185811642355
2.051661362777516 12.116393944336876 23.747050617386034 252.45796362422547 0.7888853185114424
2.056339050143768 12.062736487016092 22.344896710728207 264.71841290016727 0.8093736564457092
2.0597781729961557 12.00924693938698 21.11093254626687 278.0608766657421 1.0989744069126401
2.059785769694391 11.958584995998104 20.223526312102045 293.35016602930745 1.5437173057423061
