M[M_sun], R[km], Lambda[1], P_c[MeV/fm^3], rho_c[fm^-3]
0.23841724892012095 16.20908015294055 2780876.1263280716 3.453507347168396 0.169602847481901
0.24841616521261892 15.866183652946443 2282215.3453050875 3.635565600274032 0.17197868281753312
0.25869639136456013 15.562965605641049 1881701.5449830666 3.8248012687359374 0.1743753401986885
0.2692625721451799 15.29352777378463 1558062.9801344278 4.020322031827652 0.17676716576328325
0.2801138841558352 15.053930874416691 1295391.0074882659 4.222453527897053 0.17914605125965594
0.29124481784483586 14.839831286303523 1081176.6022887575 4.432564442054369 0.18154874472446086
0.3026669483409459 14.648439835240055 905543.6979951839 4.65100238068038 0.18397910385066202
0.31436941668706997 14.477000622083478 761004.1597255253 4.8781345833135665 0.1864387801720171
0.3263552892404625 14.323183885259112 641546.165480247 5.11128050739754 0.1888681862675983
0.33862535530420435 14.184924743413246 542456.6584356568 5.353623890009807 0.19131928040858517
0.3511767000122397 14.06064672081788 459982.4596619129 5.60566559863501 0.19380034828540849
0.36401166359857073 13.94888849957132 391136.72250097577 5.867818159776947 0.19631699192557456
0.37713692604186766 13.848176450268138 333380.962569957 6.1369935191760865 0.1988096025389075
0.39053958647673354 13.757582773265819 284866.44439170184 6.416580450999846 0.20133203665214486
0.4042287942759046 13.675914752184239 240836.38538904945 6.707406562756801 0.20388907874007886
0.4182018147602215 13.602499487653185 209408.75084431705 7.009595639352918 0.2064726502029208
0.43246124103462025 13.536580531208344 180129.83771402467 7.319719378305112 0.20903238904500243
0.4469990536354908 13.477190667337831 155245.07926242848 7.642387411981911 0.2116365873979862
0.46182509067723077 13.423935838652078 134067.1318568298 7.978133659660902 0.21428527567997308
0.4769313179258313 13.376218616973715 115982.48112611835 8.325069527208546 0.2169415049581745
0.49232190243213575 13.333531375676543 100523.64001492118 8.6830639906031 0.21959450758697638
0.507991891772433 13.295442516437651 87266.06370155659 9.055661265707213 0.22229564713260938
0.5239410080354244 13.261618754912664 75890.49005617047 9.443466444505466 0.22504775933033389
0.5401763317224832 13.231565291205122 66092.92695382766 9.84112860548682 0.22777465802715754
0.5566828782209291 13.205081107875566 57656.06116281915 10.254690577594474 0.23054741500160159
0.5734661477862265 13.181773637361726 50370.64773875952 10.685179789475931 0.23337078666563432
0.5905326555493703 13.161382285543471 44066.23998124019 11.129685950626815 0.2361989258988448
0.6078571768968177 13.143676511944408 38605.39163930229 11.588889759975705 0.23904393904652854
0.625464759966154 13.128410515443049 33864.16020401115 12.066941388606214 0.24194829732442372
0.6433362890561691 13.115342936655233 29745.5771990767 12.563601123987983 0.24490145968540328
0.6614711606347994 13.104441814900309 26161.856085339998 13.073682625737078 0.24783295310527556
0.6798699887572639 13.095267615429613 22859.852629132103 13.604725838274447 0.2508230829560475
0.6985191153873652 13.08773896966921 20308.38035491251 14.157637019932308 0.2538736212392724
0.7174373051566246 13.081928096806465 17925.16836493555 14.726486204041297 0.2569211836723326
0.7366064516994976 13.07746964074448 15838.346988360388 15.31671642323787 0.2600163259772415
0.7560108397249745 13.074180199178443 14010.81266849209 15.931207259771615 0.26317737773862426
0.7756582304526486 13.072027654770219 12407.304541708134 16.56712588102533 0.2663643051459852
0.7955458100666803 13.07094906122678 10998.4909421594 17.223437843990435 0.26956405598895306
0.8156702473419278 13.070744907469583 9759.58300056888 17.906804249359656 0.2728357513654852
0.8360119016126233 13.071359831953716 8669.765710136371 18.618023037432653 0.276178954626114
0.8565681012544512 13.072590799030307 7708.454599277251 19.34835302315445 0.27951091587591775
0.8773547914220411 13.074494756678696 6860.304183323511 20.108723735058845 0.2829136845754464
0.8983299922187633 13.076824528531775 6111.37679956838 20.900386623029288 0.28638908378884764
0.9195159260892255 13.079745191928476 5449.632942678493 21.718122523206034 0.2898880495959885
0.9408825663186301 13.082870263430236 4863.634304078443 22.564861297360245 0.29343297565337284
0.9624370886076651 13.08626240618685 4344.435859495093 23.44642164273066 0.2970613211559113
0.984173030703433 13.090005014426742 3884.181263367674 24.363456996713055 0.3007687282615109
1.006067247171187 13.093798855625469 3475.8379931509967 25.307137454803517 0.3044695321910701
1.0281089863169315 13.097655211310785 3112.9778410901317 26.28967148188343 0.30825688952870267
1.0503216485294689 13.10161818673686 2790.530089631598 27.312559635032574 0.31213266100851617
1.0726299745446188 13.105299095190427 2503.46405254717 28.372354402917704 0.3160655907792093
1.0950913944689413 13.108964456135874 2247.686340238097 29.468633400769452 0.3200457578622253
1.1176527171079091 13.112494901197884 2019.9123840168882 30.609938239099257 0.32411497821155555
1.140336873680205 13.115866765930944 1816.5592304557629 31.798121638023908 0.32827418062574315
1.1630961689905315 13.118865892846541 1634.981788982352 33.02784081819055 0.33248621409456847
1.1859313875916064 13.121556510268931 1472.7730124266766 34.30304508742739 0.33677031266182755
1.2088392955758118 13.12392570160274 1327.7819367553836 35.63075356494732 0.34116013145465246
1.2317965515804246 13.125777046386107 1197.72948012797 37.012987031513845 0.3456545152008964
1.25479686314491 13.127257438158466 1081.551270981241 38.44635724784312 0.3502120775960603
1.2778130221768789 13.128171519974694 977.3079741642011 39.93241834034515 0.3548466099119585
1.3008267078589641 13.128496581462665 880.1109023592994 41.479947713983066 0.35959836634824527
1.3238601036481632 13.128290521544631 799.7933856340451 43.091406199483146 0.3644695010249788
1.3468587072373077 13.127441880813638 724.371509795206 44.76938454649298 0.3694618105849804
1.3698133655215325 13.125882055599211 656.6189813540411 46.50650091486229 0.37451016812309584
1.3927442571205086 13.123687896176655 595.5703783830946 48.31498160039671 0.3796850114711839
1.4155650445373034 13.120612407056006 540.6552112580667 50.19894006390832 0.3849952817552756
1.4383342550450027 13.116891016398753 491.1654043626207 52.161572011203035 0.39044378397281915
1.4609695125139406 13.112164140838306 446.55723847932325 54.206264680093646 0.3960320118112253
1.4835191794479399 13.106789176213395 406.3153174811459 56.33190695687671 0.40173150569310867
1.5059008469099844 13.100393708544797 369.9770183044726 58.5424685299973 0.40756288470931334
1.528144710122905 13.09309808216167 337.1378166767057 60.84695720810934 0.41355508847771266
1.5502018377732552 13.084836959679551 307.4628451285912 63.249630361108906 0.41971119014488695
1.572057552758401 13.075559582816433 280.6143728542226 65.75500960819421 0.42603196728807047
1.593716817203809 13.065299302317124 256.30177973154866 68.36796611237396 0.43252317651991495
1.6151435903313354 13.054011509055734 234.28293163922936 71.09356342412057 0.4391996471086158
1.6363072442252995 13.041589918316086 214.3204331432693 73.93724848339194 0.44606847623086077
1.657217926665175 13.028162907085553 196.21614955099395 76.90243456505553 0.45312247351196794
1.6778255554383792 13.013494019494575 179.78043135573395 79.99556711812205 0.4603657864539678
1.6981078369925513 12.9976322867808 164.85737218128332 83.22614874022968 0.4678307791898525
1.7180661620262767 12.980586449570243 151.28476670891695 86.60125857270232 0.47552784401497766
1.7376703861242802 12.962392079928264 138.95543877545438 90.12843090098279 0.4834617104292648
1.7569505073248597 12.943073329702226 127.66413579745594 93.81573288807463 0.49164009082996063
1.775802850139412 12.922424182321135 117.50454214327466 97.67183833096617 0.5000822725602925
1.7942267966037753 12.900367170498335 108.19106610146376 101.70600369839566 0.5088041399358899
1.8122321532187635 12.877051312719095 99.6986035961036 105.92812779814126 0.5178128387756546
1.8298155008127135 12.852570150753433 91.9534875153128 110.34884204613519 0.5271212184461588
1.846897370368886 12.826579719858792 85.03420995672668 114.97957801915867 0.536753074873715
1.863475264240338 12.799202109907192 78.41762631656893 119.83260370322849 0.5467280463122606
1.879539992254631 12.770401391896499 72.51339377577682 124.91817054844523 0.5570436575218373
1.8951167791843964 12.740553150328093 67.12030484096402 130.24867991654267 0.5677177080765039
1.9101043855910167 12.708827276015434 62.167777335772705 135.8426653043002 0.5787915584348209
1.9245286093983962 12.675797056065715 57.64399272173317 141.71647621755187 0.59028354302078
1.9383763599386667 12.641523157691859 53.50172782479195 147.8877360089032 0.602212291330379
1.951612355039825 12.605694940623021 49.70060397040976 154.3754240994281 0.6146132505074102
1.9642056138147272 12.56830399160342 46.21587855968794 161.19922483185533 0.6275154582792521
1.9761663915888656 12.529446974470325 43.01210218754243 168.36714512044537 0.6408871246428118
1.987453457630344 12.489161875577395 40.07606305061429 175.91627459814868 0.6548191601483524
1.998080917820598 12.447330926020925 37.37556996026385 183.87240815604602 0.6693510724708598
2.0079936607155093 12.404017303708825 34.89375126108111 192.25701709567733 0.6844851647355209
2.017203177562362 12.359289761705805 32.61054952237673 201.09106673367427 0.7002440486165167
2.0256980388997556 12.313028402196307 30.51346711293451 210.42089538467206 0.716722692785246
2.0334176575097067 12.265154869255893 28.5798681589156 220.27041518990768 0.7339144608476974
2.0403904144571894 12.215775443475252 26.799057696157586 230.67389241906992 0.7518733177186672
2.046608687849664 12.164973675073943 25.156757057544528 241.68404518643663 0.7706935135268227
2.052030169006069 12.112607187807399 23.64176500183804 253.32055273431837 0.7903345895951347
2.056641731975636 12.058754584312146 22.2470646629389 265.65706047662184 0.8109622222772296
2.060469103491455 12.003433389644535 20.958763271968333 278.71547955344937 0.8325357452986567
2.0634690526851505 11.946680502819698 19.772338655741084 292.5764910513821 0.8552015160740615
2.06563946144154 11.888425320835452 18.675822237674545 307.281520616002 0.8789829574888143
2.06698611181056 11.828898351820408 17.665183915205247 322.9058139195644 0.9039704237732868
