M[M_sun], R[km], Lambda[1], P_c[MeV/fm^3], rho_c[fm^-3]
0.23841724892012095 16.20908015294055 2780876.1263280716 3.453507347168396 0.169602847481901
0.2484125179665894 15.866307428497974 2282369.659626129 3.6355251775247144 0.1719781686248738
0.25869133758391943 15.563052606642655 1881735.8079525798 3.824718119739228 0.17437432302847672
0.26925511418531833 15.29367253674194 1558316.3380613928 4.020188072885883 0.17676552702979806
0.28010480064984017 15.054104239159402 1295684.6433829998 4.222270086576292 0.17914390619801238
0.29123279521763196 14.840007080272743 1081462.489746756 4.432328990076099 0.18154609541413394
0.30265116335847214 14.648691429097441 905768.5571075997 4.650712256530925 0.18397596165420976
0.31435105643840355 14.47725662000994 761211.3876047989 4.877787017034761 0.18643515849327805
0.32633432366436543 14.323422297082276 641724.9360679067 5.110855225490944 0.18886375478349546
0.3386006361477718 14.185177697152717 542661.3451549842 5.35313313569869 0.1913143836070972
0.35114868816715966 14.06089454382243 460163.7241734231 5.605106298068369 0.19379497282289243
0.3639804642767826 13.94907423435769 391281.18810393015 5.867187014647446 0.19631114741197622
0.37710141195252067 13.848445471145904 333527.8941642433 6.136257705055381 0.19880278877225813
0.3905023426692502 13.757770875627413 284989.69316607853 6.41576330722107 0.20132475351271506
0.4041868708574719 13.676241197237513 244098.83166278497 6.706504429485225 0.2038813659339034
0.4181550428217928 13.602804896694009 209522.2687024012 7.008563487795227 0.2064638258028471
0.4324106881698328 13.536814077078226 180226.4237266172 7.318591546198356 0.20902309196824648
0.44694738485477364 13.477383249293387 155327.19183226983 7.641159484944773 0.2116268247514459
0.46176606120302555 13.424135261212442 134140.7468981984 7.976801050942197 0.21427507288854644
0.4768684260027229 13.376401357551671 116055.12770345496 8.323569699266105 0.21693002189382277
0.49225326088828 13.33373961885546 100583.58691853279 8.681446818021517 0.2195826097353215
0.5079170467988128 13.295625541830754 87327.04470584588 9.053921503408008 0.22228329194869753
0.5238629837100799 13.261809555680621 75942.79730997821 9.441598363846586 0.22503494929404155
0.5400929630667919 13.231757419575237 66141.59090544624 9.83904897921177 0.22776039735381282
0.556593405258021 13.205275793768704 57703.28964925015 10.252467250266912 0.23053272279332968
0.57337037851404 13.181851441973249 50408.13293283775 10.682806367216457 0.2333556859331909
0.5904312981698038 13.16145884226733 44098.80542687619 11.127058827753283 0.2361822110140615
0.6077574364487746 13.143866079023987 38636.94115819457 11.58609483540407 0.239026751620833
0.6253529297748371 13.128515528719223 33894.18001481101 12.063970690165831 0.24193063341049031
0.6432238132281627 13.11550283938867 29770.395497498757 12.560327820018756 0.24488199646463196
0.661350245154985 13.104510567357838 26183.845998264387 13.070212862835486 0.24781305158361508
0.6797460707620832 13.095289331398869 22877.85679620315 13.60105067329364 0.25080274350501786
0.6983859298972342 13.087847827860019 20327.841137844316 14.153746711786862 0.2538527792352961
0.7173000042124215 13.081974393965613 17940.994315521308 14.722222106787367 0.2568983391241377
0.7364582056945925 13.077410207066228 15852.359566380288 15.312211544204244 0.25999295237978776
0.755859597784388 13.074214834285256 14023.96955879422 15.926450036931703 0.26315353675749126
0.7755011795012183 13.072070741789963 12419.502479767008 16.561926434554394 0.2663382479463569
0.7953811414424141 13.070989482759751 11009.913529181766 17.21795657855237 0.26953748777803704
0.8154954719446681 13.07074238404661 9769.73580378379 17.901027225167716 0.2728085954938475
0.8358373329161891 13.071308979633185 8677.88035319279 18.611724042707657 0.27614934514439554
0.856393660817763 13.072602646510397 7716.343053175738 19.341722660070733 0.27948067520473957
0.8771657726625788 13.074460075107087 6867.370839183547 20.101745511461754 0.282882892429744
0.8981340755298097 13.076810244592664 6118.043526152451 20.893043278460585 0.28635766274991514
0.9193128528993438 13.079720523148415 5455.26407854605 21.710139792234024 0.28985389272124124
0.9406842019213719 13.082960484370433 4869.0899518820925 22.556469219398565 0.29339808108843374
0.9622207256560151 13.08624828191553 4349.354583206463 23.437598476722656 0.29702565070088477
0.9839523232924842 13.089958110311002 3888.621747635886 24.353880592835274 0.3007300126028088
1.0058364329648568 13.093766609562717 3480.0112836027574 25.297077611528778 0.30443010861555136
1.027878972327901 13.097603420590463 3116.7336330270955 26.279103099630298 0.3082166193158615
1.0500688703723406 13.101483765624339 2793.8421320479474 27.301455158274415 0.3120914519663945
1.0723926052030974 13.105302460457748 2506.4458497947917 28.360326907147755 0.31602095638619854
1.094840330790608 13.10893497580114 2250.4221313175244 29.456002493078074 0.3200000813672854
1.1173968491113027 13.112484088827003 2022.4456046304724 30.596671388529472 0.32406837212020245
1.1400784506236403 13.11587616609733 1818.7831934312069 31.784184347944137 0.3282264426273224
1.162821375776317 13.118857280698103 1637.1201985211464 33.012769715911446 0.33243459256321767
1.1856548031406418 13.121515295125123 1474.6561271778014 34.2872179185121 0.3367173944269892
1.2085533473419998 13.123844537279282 1329.3847378678338 35.61412706327275 0.3411058356871574
1.2315181572971943 13.12581381737314 1199.3605227504102 36.9955164622356 0.3455989655538774
1.254502164696039 13.12723861548422 1082.9190813211565 38.4274890176622 0.35015208392843966
1.277511226777764 13.128160926625036 978.5741042735328 39.91259726406803 0.35478499381455963
1.300520695789569 13.128473295828885 884.9432705502913 41.459117896073025 0.3595350131686176
1.3235534161317728 13.128315359651692 800.8956098078448 43.069508087385024 0.36440431171391474
1.346553124218404 13.127499063357332 725.3621270584131 44.74635612240495 0.36939488604241516
1.369501103807499 13.125947250885787 657.4915977370124 46.481662989114255 0.37443798485894353
1.3924132960062645 13.123696580359592 596.3805659356639 48.28886323576373 0.37961062065817314
1.4152346443999773 13.120673722211802 541.4309731540181 50.17146365834034 0.38491854271359033
1.4379820016183043 13.116842722481314 491.88856956775066 52.132654999007556 0.390364583443512
1.4606415346338928 13.112288082063728 447.2053660588543 54.17582035148462 0.3959503813005132
1.4831849297928936 13.106842488699412 406.85876523723954 56.299096298533215 0.40164353033218747
1.5055606327509252 13.100440183404833 370.49372549161825 58.5079211701961 0.40747190656680915
1.5278136524558144 13.093314383536825 337.63633545915195 60.810564581767174 0.41346091582794087
1.549862176137634 13.084961497084842 307.88075739823887 63.211276837390606 0.4196136849750491
1.5717211308104129 13.075727947802845 281.00964775548795 65.71457289982166 0.42593107026749
1.593370771009174 13.065473936426452 256.6762882707041 68.32531484219666 0.43241844982106387
1.6147826592612957 13.054123401420298 234.61494951715937 71.0485554911901 0.43909084704816076
1.6359738578599035 13.041846919821216 214.62793363138923 73.88973228923744 0.4459554380959366
1.6568627341650721 13.028351156438715 196.50220944633728 76.85126169000768 0.4530007363556774
1.6774710826415844 13.013760006996073 180.05077441778678 79.94152425252597 0.46023931687243574
1.6977653440246148 12.997982022527824 165.1058847524721 83.16904818156698 0.46769905419596675
1.7177335660225341 12.981021404785826 151.51810178889693 86.54089745866983 0.47539052391256936
1.7373527557862776 12.962880562394467 139.1600661736856 90.06459225096035 0.483318569941029
1.7566015931126346 12.943367120207775 127.90760922674357 93.74818471624302 0.49149080668536177
1.775449246586441 12.92276381989333 117.68478074278568 97.60033031249394 0.49992624604529956
1.7938874898907624 12.900698982494603 108.34504558816093 101.63026534670165 0.5086409289323917
1.8119115712357798 12.877531632316504 99.84803985164577 105.8478690255415 0.517642148965194
1.829474413339348 12.852984261783428 92.09223518989309 110.26375138246433 0.526942547873562
1.8465893991487399 12.827176933839294 85.0093925604383 114.88931867628602 0.5365657140661335
1.8631544042163106 12.79972160188714 78.5431135997336 119.73681145925542 0.5465314128150948
1.8792449850669548 12.771058907114245 72.62523207866242 124.817888611344 0.556842557968522
1.8947958440584642 12.740877262951045 67.21148129204482 130.14210478141433 0.567506190517625
1.9098168420280546 12.70949529129492 62.26531311229845 135.72934212669514 0.5785689111969932
1.924254121652536 12.676582131529198 57.73514248943028 141.59591444907093 0.5900492727373234
1.938091804039038 12.642123867748234 53.579705340292215 147.7594053078412 0.6019654370688592
1.9513313417355993 12.606267645414075 49.77078258175622 154.23874871487158 0.6143528075295904
1.9639542075371887 12.569103822964268 46.28505364289553 161.0544114374961 0.6272433986172604
1.975925777910461 12.530283636027617 43.072130095638215 168.2136156406596 0.6406027938719997
1.9872288640422846 12.490123656846137 40.139123419793165 175.7524463351859 0.6545183611855436
1.9978660356030575 12.448321102280094 37.43317179778641 183.6974881318805 0.6690326110470233
2.007789366011809 12.404997880043494 34.945987387314425 192.07202112982404 0.6841542985233278
2.0170164705291787 12.360246442357575 32.6591507380116 200.89327454445558 0.6998931026304438
2.025523750770149 12.314061169025294 30.557474455504487 210.20929218805318 0.7163501670303312
2.0332509740549534 12.266175541012611 28.618879542216703 220.04592338536466 0.7335257212141636
2.0402456923213137 12.216916657050504 26.83607204145661 230.4333879917827 0.7514599285316874
2.046473846135603 12.166174834765108 25.192685381885212 241.42831820261017 0.7702608069353017
2.051921249587856 12.113871431836362 23.675121813068916 253.04619360372635 0.789873627649451
2.05655640795826 12.06005509711361 22.279732215374043 265.36358711444217 0.8104742533469231
2.06038969712699 12.004756735162214 20.989108639447643 278.4013594397619 0.832019340680592
2.0634085173618435 11.94803262548081 19.798021074572713 292.241052098687 0.8546573387223931
2.0655936250948868 11.889867813390339 18.70111702065009 306.9205679187282 0.8784013561217116
2.0669632276417595 11.830219195135426 17.680655095163583 322.5181789109462 0.9033533975416866
2.067466037187623 11.769270987760066 16.751832874982245 339.1075730772598 0.9296216423827232
