M[M_sun], R[km], Lambda[1], P_c[MeV/fm^3], rho_c[fm^-3]
0.23841724892012095 16.20908015294055 2780876.1263280716 3.453507347168396 0.169602847481901
0.24841244438613286 15.866331425614058 2282267.953454223 3.6355235829316928 0.1719781483410475
0.25869303540843724 15.562984737442575 1881805.89143248 3.8247148397112247 0.17437428290355747
0.269254317936711 15.293681417160354 1558319.199292601 4.020182788572577 0.17676546238625096
0.2801050360414579 15.054066016361451 1295692.7168923006 4.222262850374641 0.1791438215818608
0.2912321218625442 14.84001791015959 1081367.4829798564 4.432319702282022 0.18154599090769089
0.3026509077453138 14.64867100723488 905757.816208211 4.650700812185699 0.18397583770595852
0.3143502396803996 14.477277636557327 761231.4313971282 4.877773306903023 0.18643501563220188
0.3263317856777214 14.32348468625509 641814.1662168956 5.110838449927044 0.18886357998028003
0.3385998213924045 14.185246373800895 542665.4152924486 5.353113777659699 0.19131419045041576
0.3511475693737126 14.060912194674897 460183.5854231905 5.605084236336996 0.19379476078661514
0.363978160296333 13.949255633985036 391330.6158353912 5.8671621191541 0.19631091687538074
0.3771000374892316 13.84840055762349 333508.54868789215 6.136228681155956 0.19880252000590481
0.3905007732056166 13.757787946961262 284994.8406556966 6.41573107550971 0.2013244662339595
0.404184539913667 13.676224235444712 244096.66468748398 6.706468845638141 0.20388106170910184
0.4181531870488574 13.602794734044418 209532.43395407888 7.008522775862635 0.2064634777353775
0.43240944544907767 13.53683831337948 180227.93823566323 7.318547060533669 0.20902272525884297
0.4469458107142295 13.477411350760393 155334.23424280123 7.641111051469746 0.21162643968060446
0.4617628085472744 13.424169621832828 134140.7078831075 7.9767484887815945 0.21427467045927065
0.4768661238963407 13.376390306495374 116054.90009914723 8.323510542018152 0.21692956897088014
0.49225108987059313 13.333761312463897 100586.8744963128 8.681383032744955 0.21958214045469746
0.5079129965029162 13.295648191847453 87329.94491424297 9.053852883269714 0.22228280463245378
0.5238614752597653 13.261799739128815 75942.48140499617 9.441524682944026 0.22503444404014292
0.5400896991492534 13.231754312307261 66142.19287018447 9.838966955298218 0.22775983488917595
0.5565925187816777 13.205176578641511 57701.7564292059 10.252379559012375 0.23053214331132568
0.573367751138764 13.181825301475891 50408.88250103018 10.682712756490103 0.23335509034151863
0.5904267077680885 13.161486389607106 44099.21628846852 11.126955211765344 0.23618155176461508
0.6077528282757121 13.14377221232973 38636.182194726425 11.58598460173903 0.23902607373744886
0.6253500891620719 13.12851199052478 33893.216494619846 12.063853524458702 0.24192993673763435
0.6432194535780177 13.115485202086932 29771.23979498487 12.56019872069355 0.24488122883391647
0.6613413284810873 13.104415793607247 26184.292894621343 13.070076015841273 0.2478122666702084
0.6797411218500778 13.095296570030193 23056.505133064944 13.600905725983809 0.2508019413236939
0.6983805641143096 13.087865271161784 20328.148316234976 14.153593280050716 0.2538519572374658
0.7172942149750017 13.081953135204861 17941.61469967048 14.722053934709598 0.25689743815614685
0.7364522226841116 13.07746650706917 15853.017192878548 15.312033876775093 0.25999203055104636
0.7558528062601592 13.074213059710651 14023.874832149075 15.926262418245303 0.2631525965001787
0.7754923488106473 13.072080821312982 12334.813128133315 16.56172137727354 0.2663372202949459
0.795374689554261 13.07099001533762 10937.21834770249 17.217740407842598 0.2695364399782039
0.8154866488128362 13.070762857848447 9770.403641458779 17.900799391375 0.2728075245228728
0.8358314202524428 13.071301439495146 8678.369049836829 18.61147562612866 0.27614817742058
0.8563767886742559 13.072570043766676 7716.709617576974 19.341461176392173 0.2794794825940421
0.8771564510911168 13.074468166409545 6867.841010359021 20.101470310402274 0.282881678076119
0.898126223411774 13.076819823627716 6118.270248256599 20.892753679447893 0.28635642360040126
0.9193049794314045 13.079711802660212 5455.517400515929 21.709824981212375 0.2898525456934292
0.9406749999099324 13.082934067175266 4869.336998285463 22.556138266728297 0.2933967049752116
0.9622141812169861 13.086243802775858 4349.49037094735 23.437250525183337 0.297024243996112
0.9839415481873579 13.089991248055062 3888.955186891865 24.353502940731232 0.30072848582405604
1.0058272531649537 13.0937309775369 3479.98411385604 25.296680896556108 0.30442855392704804
1.027872221895626 13.097584238318278 3116.8910762907585 26.278686332170597 0.3082150312474225
1.0500602502872491 13.101458733362634 2793.859780153059 27.301017251884307 0.31208982688281167
1.0723870583725974 13.105291352676575 2506.478138612303 28.359852606841503 0.3160191962437151
1.0948344304735016 13.109043061984552 2250.7527061425085 29.45550439987329 0.31999828013871945
1.1173932460484008 13.112522274019177 2022.4250631052792 30.596148219849606 0.3240665342426174
1.1400614654453929 13.11580974967875 1818.891564334123 31.78363474372218 0.32822456012323953
1.162814134811227 13.118829789623051 1636.9846303711338 33.012175407882914 0.3324325569396807
1.1856437042683292 13.12152831823964 1474.7542202965794 34.286593799234886 0.33671530768041724
1.208540276293569 13.123851297579323 1329.481282478311 35.613471426985384 0.34110369463090173
1.2314976638094293 13.125758731187528 1199.451436036585 36.994827545285666 0.3455967750646733
1.2544890015273187 13.127225374875215 1083.0300937225613 38.42674499584696 0.3501497182270963
1.2775007826758995 13.128157997416741 978.5959478960059 39.91181567334054 0.35478256414980697
1.300506556236215 13.128472303893084 884.997530364359 41.458296532846134 0.3595325150204207
1.3235424648927638 13.1283192694483 800.8839057718826 43.0686446039219 0.36440174117761354
1.3465244352904544 13.127426383528235 725.4000361152041 44.74544807380222 0.36939224709772955
1.3694962453012185 13.125927304967687 657.5094015592916 46.480683601340814 0.3744351385904155
1.392401094330055 13.123690753959062 596.4203221913382 48.28783336485667 0.3796076873606582
1.4152333473962986 13.120782230502845 541.4719986345019 50.17038024513309 0.3849155168414082
1.4379772037825826 13.116891155232034 491.88854335112904 52.13151478869333 0.39036146053234133
1.4606285246858948 13.112288669828375 447.2271461785008 54.17461992592642 0.3959471625942429
1.4831694502922637 13.106862296691421 406.9043436725925 56.2978025853552 0.40164006149341647
1.505546498997609 13.10045058460514 370.5212908216263 58.506558988269894 0.40746831935255856
1.5277920482245613 13.093263181010988 337.6410356638571 60.809129651575496 0.41345720268074676
1.5498494295626715 13.084966616872286 307.90922422643496 63.20976460094276 0.41960984045550076
1.571708034728755 13.07575252923517 281.04098437732534 65.71297853679236 0.4259270920386516
1.5933589652408047 13.065479171763773 256.68783027849327 68.32363317401591 0.4324143206226508
1.6147769587544472 13.054179792145927 234.6362407546665 71.04678091665075 0.4390865572751232
1.6359599576440864 13.041831607742314 214.6401134686724 73.88785883283951 0.4459509812571503
1.656852149004161 13.028395442190542 196.51995258760326 76.84924408781113 0.4529959366028063
1.6774730155455815 13.01383068382656 180.05620434791956 79.93939351120781 0.4602343305720261
1.697752324720111 12.997938059586998 165.10710966684454 83.16679690284654 0.46769386073231894
1.717719935511719 12.98098992189545 151.51575668730996 86.538517646852 0.4753851098971428
1.7373293803825787 12.96277167195893 139.1662924021081 90.06207535399783 0.48331292649681573
1.7565783724924757 12.943378329997504 127.92336305779644 93.74552159079647 0.4914849210722731
1.775426969150756 12.922655178264497 117.68569645804845 97.5975110925601 0.4999200946643681
1.7938763593638531 12.900743219865701 108.35441668582929 101.62727937179876 0.5086344943592934
1.8118968317227484 12.877551459941104 99.85157741469821 105.84470486282733 0.5176354196032009
1.8294604208267744 12.852979060908957 92.09404672133478 110.26039675655463 0.5269355039405818
1.8465448234483641 12.827000225251208 85.01007505421161 114.88576031418714 0.5365583275998099
1.8631413447026286 12.799701684323901 78.53978858507415 119.73303500701586 0.5465236608617012
1.8792244740029496 12.770970659468228 72.62565333855787 124.81393517707302 0.5568346299817983
1.8947897131468259 12.740947165723087 67.21513816095496 130.13790329336138 0.5674978519075398
1.9098033355977213 12.709510569477859 62.26672836979539 135.7248746602381 0.5785601339187014
1.9242408902076396 12.676636138281511 57.73872956369539 141.5911616728728 0.5900400373533277
1.9380794298283164 12.642150519817754 53.58042608599694 147.75434632275446 0.6019557057106005
1.951320913604149 12.606408069220937 49.78108034148735 154.23336083270092 0.6143425406034632
1.9639461569705345 12.569093957722577 46.28456307819928 161.04867004521157 0.6272325583291125
1.9758984230482184 12.530316157531772 43.08314316997389 168.20756346643975 0.6405915854749972
1.9872229558566503 12.490118597155154 40.138954292174716 175.74598826130213 0.6545065037569727
1.9978658009194563 12.448424279487346 37.43488467909317 183.6905929121202 0.6690200575299916
2.0077800931794405 12.405025690333654 34.94676275115164 192.0647287832599 0.684141256124946
2.016998243663392 12.360280966039364 32.66246886613951 200.88547789015453 0.6998792688964498
2.025515783021808 12.314105408441463 30.5595812187169 210.20095124195961 0.716335482860669
2.033243876290189 12.266239021227335 28.622276783661306 220.03707448212498 0.7335103980739288
2.0402406488755322 12.216956308373122 26.837714505376532 230.42390805028904 0.7514436340070881
2.0464691302368263 12.166210105039562 25.193284027868497 241.41823834112967 0.7702437511579295
2.0519064518231973 12.11387965141406 23.67713082808253 253.035379495443 0.7898554584258339
2.056551067197577 12.060133200002578 22.279772937192767 265.3519774342317 0.8104548829142697
2.0603864247669716 12.004828548951819 20.989427567075037 278.3889784616651 0.831998986701376
2.063408207311061 11.948118644011121 19.80037895513823 292.22783100971196 0.8546358903571188
2.065593923842163 11.889911204953313 18.701972022374072 306.9063414672667 0.8783784331080272
2.066959260707023 11.83030489150266 17.688712592431536 322.5029551922869 0.903329199230424
2.0674672232502393 11.769326919223527 16.75309719018649 339.091261581942 0.9295960468818185
