M[M_sun], R[km], Lambda[1], P_c[MeV/fm^3], rho_c[fm^-3]
0.23841724892012095 16.20908015294055 2780876.1263280716 3.453507347168396 0.169602847481901
0.2484103311497053 15.866412188666544 2282397.3143024133 3.6354779078174837 0.1719775673363203
0.2586844201952294 15.563277228273117 1882061.853789089 3.8246208882734263 0.174373133585975
0.2692461978933224 15.29388007627003 1558499.3248388867 4.020031428861982 0.17676361078737457
0.28009354817973847 15.054320390148693 1295855.122404091 4.222055584114465 0.17914139792451433
0.29121617867048577 14.84035312561844 1081686.291095741 4.432053674579383 0.18154299755870726
0.30263457333082516 14.64895644533305 906003.0251519693 4.650373017674803 0.18397228751976702
0.3143297019735448 14.477527814473886 761446.7466847764 4.87737794836799 0.18643086978260906
0.32630810539864963 14.323776423747145 642002.9294497722 5.110357964578258 0.18885857327025596
0.3385713628667717 14.185557111802433 542932.9692941154 5.352559329399313 0.19130865810356734
0.3511144892909989 14.061238201662144 460370.21028688806 5.6044523543273455 0.19378868774063587
0.3639461375342865 13.949480655321983 391466.19719932176 5.866449079061768 0.19630431400019244
0.3770609045066331 13.848668508607746 333685.1509969261 6.1353974063226895 0.1987948222564651
0.390456519891534 13.758091922960146 285140.3199406244 6.414807932177147 0.20131623832868825
0.40413624771839385 13.676524665499008 244229.8071809077 6.705449701413366 0.20387234851547714
0.41809967414692145 13.603058444809887 209650.6592499122 7.007356771912399 0.20645350896163714
0.4323478725377634 13.53699402409381 180334.63591295085 7.317272984214636 0.20901222264479247
0.4468807997368183 13.477693457827769 155439.45742210836 7.6397239184563 0.2116154112653118
0.46169491627382864 13.424295991900255 134225.45603716825 7.975243120143707 0.21426314497394477
0.47679276616911265 13.376630234886072 116132.05406509784 8.321816309254764 0.2169165974937538
0.4921736179131976 13.333909252608448 100655.89070787461 8.679556267234352 0.2195687005873012
0.5078309900545227 13.29582428726577 87394.10553110164 9.051887662932641 0.22226884832434038
0.5237746308047969 13.261952843752997 75998.15240841353 9.439414539674418 0.22501997410184704
0.5399960021287928 13.231867940786701 66196.45605508739 9.83661790208066 0.22774372666770998
0.5564903795755193 13.205357758001751 57749.943861150736 10.249868215912052 0.23051554783507044
0.5732654733527246 13.182031060159034 50451.53628943606 10.680031904573848 0.23333803360947433
0.590315917345937 13.161696298584287 44140.17938253864 11.123987858593814 0.23616267218845471
0.6076377306005442 13.1438275178855 38668.984274996576 11.582827749868363 0.23900666063503115
0.6252270555899582 13.128610094147598 33925.332166259745 12.06049817317883 0.2419099856596595
0.6430898744107167 13.115573111538742 29799.25719784956 12.556501659870218 0.24485924593477662
0.6612085113572113 13.104514448303062 26208.569950448706 13.066157104452635 0.24778978896723605
0.6795958085958221 13.095413214771451 23079.381445020965 13.596754867479223 0.25077896924387544
0.6982313608987529 13.087886956010308 20347.992971004296 14.149199477045762 0.2538284178014426
0.7171393531310932 13.082037747021644 17960.536524221618 14.717238069598563 0.2568716375573149
0.7362911100832074 13.077575536946318 15757.560002818698 15.306946125449098 0.2599656327164872
0.7556845807663337 13.074247580144455 14039.516171471432 15.920889728036729 0.2631256710837737
0.7753157091816691 13.072099560064327 12433.082302582787 16.555849380242204 0.2663077925857239
0.795189558338191 13.07094012350152 11021.833177171053 17.211550201074953 0.26950643546175146
0.8153059344570686 13.070724055333537 9780.874084613377 17.894275238496054 0.27277685664746865
0.835633088562626 13.07130543911046 8688.536619597937 18.604362158353652 0.2761147393716159
0.8561779010165829 13.07262858662482 7725.826073344849 19.33397356900852 0.2794453320852477
0.8769442832483296 13.0744820391516 6876.184163273963 20.093589946564812 0.28284690514170463
0.8979105873920327 13.076770120664793 6125.361774484644 20.8844610752202 0.286320940825781
0.919077843149791 13.079687993658993 5462.33974341582 21.700810547153786 0.28981397432028183
0.9404234018091171 13.082761268806959 4875.140565503395 22.54666167621483 0.29335730096769597
0.9619702756776634 13.086198413891099 4354.945828148827 23.42728723769244 0.29698396423734535
0.9836827918017764 13.08987663579345 3893.839386754754 24.34268933958984 0.30068476840189273
1.0055726582456233 13.093715522319105 3484.4550235000575 25.285321514854292 0.30438403758319094
1.0275948262824985 13.097497442374305 3120.9675018891658 26.266752839875064 0.30816955936126533
1.0497991216870304 13.10147130789308 2797.6272704243916 27.288478547368037 0.31204329537900327
1.072095538638322 13.105218102493668 2497.2996263923624 28.346271999957217 0.3159687982093618
1.0945442421555975 13.108922455204771 2253.6713507279487 29.44124261152364 0.319946705974827
1.1171108124101077 13.112551788618898 2025.2509372229158 30.581168534822993 0.3240139110096113
1.139758910599683 13.1157901493264 1821.4359374446865 31.767898228858503 0.328170659421065
1.162515788041194 13.118897771694867 1639.5154702088687 32.99515914007225 0.3323742728284064
1.1853320649076176 13.1214378439139 1476.7813917402366 34.26872407646869 0.33665556015444476
1.2082225656574503 13.12381771255065 1331.3854444675278 35.59469942195374 0.34104239247362517
1.2311690357410112 13.12573647016848 1201.1704705469867 36.97510277399072 0.34553405792789804
1.254142680280187 13.127189419985738 1084.6616198681072 38.40544277881472 0.35008198542354435
1.2771682826990578 13.128170810465067 980.0329353681711 39.889437949758666 0.35471300041994147
1.3001655967610992 13.128525576630421 886.3698448005451 41.43478022800874 0.3594609909825738
1.323175020966131 13.128275668209056 802.1899869758294 43.04392251771975 0.3643281450721428
1.3461816795992358 13.12749920960519 726.5197993710294 44.7192269861575 0.3693154217666179
1.369136629675932 13.126020824833073 658.5481599793275 46.452643680808364 0.37435364978128005
1.3920321217302212 13.123718368593668 597.3519937502793 48.258348303939336 0.37952370746053304
1.4148682492984919 13.120749986958698 542.2534768787673 50.13936248453771 0.38482888712496205
1.437622898314656 13.117072353646291 492.67330663663824 52.09887117059787 0.39027205323762554
1.4602555645602533 13.112382240388712 447.9315067966042 54.14025261879191 0.39585501338414797
1.4827882824581322 13.107041473693634 407.578095918348 56.26076507554953 0.4015407526572857
1.505162054579178 13.100568061553183 371.1077609641986 58.4675615808821 0.40736562230980233
1.5274002960776285 13.093330226747046 338.17599483158136 60.76804986654959 0.41335090114121037
1.5494400322260786 13.085036822870753 308.42655598166 63.16647198992854 0.4194997787719727
1.571311160031255 13.075868543888015 281.4801793566664 65.66733514519785 0.425813203386325
1.5929752320571913 13.06579464012232 257.12798980031624 68.27549079642951 0.43229611095952686
1.6143934303423868 13.054498049209215 235.02823754667912 70.99597925445072 0.4389637517259966
1.6355624843298675 13.042075210235895 215.00023299633457 73.83422687798114 0.4458233940996053
1.6564602583429033 13.028621658822054 196.84612416230186 76.79148656091645 0.452858534960394
1.6770547786222567 13.014043142074316 180.36145589408946 79.87839770299702 0.4600915899113571
1.6973482898996053 12.998225428620497 165.39088673033115 83.10235109811855 0.467545191026933
1.7173194742239715 12.981395339000017 151.78703360369522 86.47039303775713 0.4752301280276498
1.736953233811961 12.963207656640018 139.4009413655963 89.99002721553978 0.48315137850493717
1.7561993236491682 12.943788305319789 128.13731452661773 93.66928828150648 0.4913164424286813
1.7750410177583797 12.923126089132484 117.88956979772264 97.51681029594788 0.49974401001929514
1.7935055124828314 12.901242916927758 108.542833172468 101.54180604225392 0.508450305139759
1.8115202161425819 12.87795028999625 100.02139077564942 105.75413185918276 0.5174427940705125
1.829085466267547 12.853433968098678 92.25037284283032 110.16437283469888 0.5267338760726018
1.8461694119839362 12.827561430958609 85.16395161678867 114.7839056911367 0.5363468972500723
1.8627901141289644 12.800327897402438 78.67618643480525 119.6249389772343 0.5463017712860517
1.8789054278547455 12.771819054213951 72.75652083127277 124.70055190678866 0.5566068978713627
1.8944534989619413 12.741653934863423 67.33317088414329 130.0176431615491 0.5672591740069135
1.909465747960706 12.710203086503913 62.37668979899561 135.5970029195324 0.5783089029660752
1.9239208488708843 12.677415994854597 57.83779912703246 141.45512523757597 0.5897756973833773
1.937770335471972 12.642932543487612 53.67257293846065 147.6095472619728 0.6016771732556055
1.9510238315668873 12.60719549520645 49.862346862990165 154.0791500429313 0.6140486828804367
1.9636442207643263 12.569910493683127 46.36145435295683 160.88434336777297 0.6269222941204436
1.9756306528713767 12.531190089535714 43.151600300467415 168.03434310469143 0.6402707879379704
1.9869609415083362 12.491078529824373 40.20629613520255 175.56115318475915 0.6541671349673064
1.9976017271472057 12.449342198250571 37.49561580652551 183.4932492418367 0.6686607713560764
2.0075620831956167 12.406213506069582 35.00666032532495 191.85602111395136 0.6837679814122719
2.0167787221730813 12.36137894950984 32.71617235056885 200.6623402922683 0.6994833521283031
2.025295423370338 12.315181239789458 30.608014269269262 209.96223993603257 0.7159152334936079
2.033054932199827 12.267445720065854 28.668526123773628 219.78382855291756 0.7330718665653312
2.0400620903153257 12.218201263482884 26.881458136389526 230.15260697190675 0.7509773102329929
2.0463163423054347 12.167491207467918 25.233020195141574 241.12760423106644 0.7697482136120717
2.0517841502276672 12.115190425553795 23.712656537871787 252.7259056919838 0.7893354988885921
2.0564472770345343 12.06145324281837 22.312908848044593 265.0197421898229 0.8099005575314661
2.0602934172335914 12.006270429557212 21.022190640321558 278.034675690215 0.8314165229259045
2.063338022730259 11.949657206528826 19.830582141387858 291.84949239516976 0.854022117556908
2.0655504214970524 11.891531902217054 18.72966550215186 306.49924093853315 0.8777224739592304
2.066930961825772 11.831930786868426 17.714452700200354 322.06732381792153 0.9026367571386721
2.067460429931487 11.771000923265706 16.776905565827636 338.622092939149 0.9288555280030334
