M[M_sun], R[km], Lambda[1], P_c[MeV/fm^3], rho_c[fm^-3]
0.23841724892012095 16.20908015294055 2780876.1263280716 3.453507347168396 0.169602847481901
0.2484199508309232 15.866109144614638 2281852.357421816 3.6356520199121323 0.1719797821080139
0.258707485085412 15.56262112956917 1881209.676252792 3.8249790369408543 0.1743775148553867
0.2692768823281568 15.293297686008607 1557694.8215673272 4.020608436378871 0.176770669379557
0.2801341769320202 15.053508314908683 1295047.510545742 4.2228457350554445 0.17915063751387775
0.29127287161759907 14.83941703919512 1080783.8821168854 4.433067862124084 0.18155440921706467
0.3026999250034451 14.64800756699222 905146.3245852594 4.651622709008415 0.18398582233126853
0.31440695812956543 14.476463311807452 760597.7297839002 4.878877747299261 0.18644652402224288
0.326401002609975 14.322622210802235 641170.4677768514 5.112189866285918 0.1888776618869349
0.33867687889791853 14.18444156147819 542104.6738085336 5.354673267013522 0.19132975120987378
0.3512382350187487 14.060172203255833 459646.77293201274 5.606861571827655 0.19381184283672973
0.36407773610850575 13.948340369254524 390823.7132044828 5.869167787434328 0.19632948971226033
0.37721183867640806 13.84762668008187 333074.07736909296 6.138567011043788 0.19882417334709063
0.3906256536319428 13.757067380780413 284596.55929941416 6.418327894663591 0.20134761148264513
0.4043202319132007 13.675411522386995 243722.30672217332 6.709335790593606 0.2039055727114713
0.4182998485758455 13.602062049174684 209188.2819734521 7.011802974221894 0.20649152185586292
0.43256877866181936 13.536061053801012 179928.49951960158 7.322131377200727 0.209052271914743
0.4471156598728917 13.47668717523534 155061.30524518926 7.645013522190535 0.21165746631421428
0.46195227866457167 13.42353390841229 133893.49059717826 7.980983697414696 0.21430709629419528
0.47706847631629273 13.375822444313977 115831.65107006165 8.328277285169886 0.21696606436932597
0.4924699196378381 13.33324672128002 100387.06695768533 8.686522778347603 0.21961995455779343
0.5081473702952767 13.295137201897361 87149.62076794798 9.059382308836538 0.22232207268064413
0.5241126969363178 13.261364285492297 75781.76648861576 9.447462003423023 0.22507515817657686
0.5403505902968416 13.231238757959806 65998.98906322218 9.845576757873832 0.2278051604539348
0.5568656155720553 13.204741603824878 57572.43918753612 10.259446171398894 0.23057884095214204
0.5736715010452353 13.18165966520772 50292.949670202026 10.690256509593265 0.23340308694084916
0.5907406744287826 13.161133162091026 43992.412643631076 11.13530549790501 0.23623467987374855
0.6080867629475425 13.14352737515141 38540.58540518329 11.594868336225312 0.239080704380412
0.6256979556401802 13.128187426727353 33807.43471303214 12.073296057227676 0.24198608248567696
0.6435532555850745 13.115437697527724 29712.761348297598 12.570603310982904 0.24494309502164016
0.6617366704411615 13.104275827870735 26112.53787220673 13.081105185854064 0.24787552668887014
0.6801411860857718 13.095139430357516 22993.95798502705 13.612587914261256 0.2508665940121117
0.6987985154671748 13.087687584126732 20271.140285129346 14.165959462560632 0.25391820803699294
0.7177341112486229 13.081850743334925 17890.244819246418 14.735608564295505 0.2569700559625427
0.7369104687935357 13.077401887938318 15807.375322255388 15.326354038931145 0.26006633081598357
0.756334379210541 13.074142805514276 13982.65714190299 15.941384880752523 0.2632283832260589
0.7759951755444235 13.072013285061479 12381.332367295037 16.57824994598158 0.26642005376900935
0.7958908591172583 13.070879652194776 10902.470073220973 17.235165021086186 0.26962089872318123
0.8160247487896004 13.070706106697374 9739.140014806113 17.919164379949752 0.27289385223343693
0.8363871525734173 13.07134062307559 8650.547770804133 18.631281639253686 0.2762403981594623
0.8569600010241748 13.072637161221861 7691.615969936731 19.362539558748804 0.2795756197771445
0.8777593814796925 13.074591235224384 6845.132488880907 20.123654777315128 0.28297956937008606
0.8987481558601615 13.076858565839169 6097.402081719855 20.91609912489651 0.2864563151611845
0.9199458077329502 13.079794765722962 5436.909380229941 21.735203677855928 0.2899611372225114
0.9413224476396904 13.08292881978305 4852.33679149148 22.58281861435586 0.2935076428295951
0.962898551655579 13.086397137435252 4334.291265157055 23.46530167077623 0.2971376496745732
0.9846463989811789 13.090126845435988 3875.080376348921 24.38394951371672 0.3008515757796803
1.0065525788669785 13.093891511367302 3467.308540185432 25.32866479330191 0.30455389579712533
1.0286075246601163 13.09769200753065 3105.421014680098 26.312287385319753 0.3083430661282202
1.0508184505592943 13.101562753528388 2783.4596365251105 27.336323106740934 0.3122208479558091
1.0731644479818587 13.105457109450036 2497.2224956870223 28.39809401949927 0.3161611112586526
1.0956271337895374 13.109051112485945 2230.8188926425114 29.495664759385544 0.3201435099593202
1.1182220888815466 13.112676325125575 2014.613933812208 30.638331002480648 0.32421472123021383
1.1409064141070486 13.115945759527847 1811.7382573054265 31.82794967976124 0.3283763476181212
1.1636800914908996 13.118996806080773 1630.6692163390362 33.06009655335827 0.3325966964211673
1.1865299009055772 13.12165478175474 1468.8219436764161 34.336919507662415 0.33688357199042906
1.209439769881439 13.123893902580274 1324.0791314780083 35.66633933200059 0.3412763408997826
1.232410744774142 13.125784605238866 1194.510568446592 37.05037995485234 0.3457734102213952
1.2554261678938126 13.127300505459106 1078.5253929004507 38.486743128966815 0.35034048906366866
1.2784483185596414 13.12819213875529 974.5811084250533 39.974844399280286 0.3549784962002229
1.3014776308896616 13.128537152724398 881.3197494918268 41.524533674902976 0.35973397302532867
1.3245180966315153 13.12833319484455 797.5615457848667 43.13827962318606 0.36460904027771046
1.3475320900209118 13.127401296166985 722.3012550373542 44.818678277733255 0.36960506660640763
1.37049613197671 13.125844542142618 654.7199744391977 46.559670035175294 0.3746646866885844
1.393428460029703 13.123613241420266 593.8539347331322 48.370892671938435 0.37984425842736724
1.41626073291676 13.120496108683804 539.0901405504674 50.25775933131264 0.38515955849089406
1.4390232175520967 13.116656276981608 489.71548417928057 52.2234763579872 0.39061333319867186
1.4616956296730523 13.112057711089447 445.2212528462743 54.27143987324761 0.39620676634009827
1.4842318947344701 13.106571079047344 405.08861016140327 56.402150807559075 0.4019198508354578
1.5066187353924072 13.100134711926204 368.86640199840673 58.61643190271771 0.4077576622640141
1.5288856813634089 13.092926348946126 336.1169089112738 60.924872719711686 0.4137567092708077
1.5509496248695813 13.084655732892415 306.52863358765217 63.33174577619596 0.41991995003754196
1.572810021788281 13.075239435557085 279.73106784246244 65.84158696288719 0.4262479937029254
1.5944513669435911 13.064944143004507 255.50960673919522 68.45928693031539 0.43274740730506217
1.6158712733241476 13.053506990680205 233.54537045796434 71.18993221998936 0.4394326045037643
1.6370510201877466 13.041140619831237 213.64347147693192 74.03899013634074 0.4463105134330837
1.6579568540037468 13.027635374720314 195.59964974953758 77.01201063901945 0.4533831483251258
1.6785668056453138 13.012937436700286 179.2119237186963 80.11129138924481 0.46063660111156546
1.6988522580027274 12.997020282675756 164.32474084722654 83.3484235118909 0.46811285425052923
1.7188233573950948 12.980092078478883 150.8161323997691 86.7305186579045 0.47582190764222815
1.7384249692342926 12.961737832021297 138.50333618993375 90.26514139233682 0.48376824583489264
1.757654482004986 12.942220590806928 127.31037733364667 93.96039106139887 0.4919597911427652
1.776520244090205 12.921515656611088 117.11747803304132 97.82498079540528 0.5004164208912679
1.79495688561277 12.899519285232154 107.84227860817445 101.86821030801981 0.5091536841620139
1.8129375293544623 12.876099066923127 99.37522478641567 106.10002045354437 0.5181784103364939
1.8304877843797887 12.851371589006318 91.64882373471795 110.53108851755249 0.5275038935834433
1.8475511833285376 12.825345255096666 84.60399128817453 115.17290038956853 0.5371543744432752
1.864141897819464 12.797949091107109 78.16282718498132 120.03778291071434 0.5471492192949606
1.8802078342840987 12.769235466936355 72.28167929348803 125.13296906531426 0.5574744019514302
1.8957507006262062 12.739089618271574 66.8971132104386 130.47696537661585 0.5681707817055833
1.91071236806807 12.707385901233213 61.96766406243144 136.08541307611125 0.5792684875328641
1.925145392140796 12.674496716627369 57.46410797257692 141.97473828502524 0.5907853864203535
1.9389449478105236 12.639876946512612 53.326907115415196 148.16264975011407 0.6027411096724176
1.9521726321070532 12.604043244347357 49.54047237635925 154.6682243419197 0.6151711985776375
1.9647511024488622 12.566608920517819 46.06961782533212 161.50763750871675 0.6280918581264211
1.9766744728622876 12.527628621018472 42.876714516208565 168.69607058775614 0.6414962821270339
1.987950501511326 12.487248531392446 39.946251121291695 176.26727777060898 0.6554636239808393
1.9985350787798752 12.445343021725483 37.25731820292414 184.24719009763137 0.6700334048185419
2.008439898917081 12.401946515837334 34.78146297740045 192.65339741631772 0.6851940929257829
2.017617394312925 12.357114852230051 32.51055410393232 201.51488218838452 0.7009960314589825
2.026069363094975 12.310757300212837 30.419147475014157 210.87432319507622 0.7175209488610955
2.033770110410883 12.262798883875735 28.49080202267744 220.7514748183521 0.7347474843251028
2.0407101003507604 12.213348621207954 26.715294015220287 231.1892880694784 0.7527592015724427
2.046887134605954 12.162443451439314 25.080234364697194 242.23207987367013 0.771620823652644
2.052279244649143 12.110019012574368 23.572083120167033 253.90854441789844 0.7913224983624648
2.0568684353563595 12.056107417832626 22.181221304713183 266.2836491203634 0.8120003148088584
2.0606280045683283 12.000631534929326 20.896953561394405 279.3887414302314 0.8336425688581407
2.063596109414671 11.943778782407598 19.715908500707744 293.29547353494786 0.8563679100800624
2.065730688653485 11.885447089342613 18.621766969730153 308.05522949646706 0.8802296309338852
2.067027032060576 11.825750374170612 17.614956816095336 323.7324305468781 0.9052834673028989
2.067463961865472 11.764537143884287 16.682781526322383 340.4086433453559 0.9316632421609848
