M[M_sun], R[km], Lambda[1], P_c[MeV/fm^3], rho_c[fm^-3]
0.23841724892012095 16.20908015294055 2780876.1263280716 3.453507347168396 0.169602847481901
0.2484181256327375 15.86613691203896 2282095.9794729906 3.6356063776844834 0.1719792015216162
0.2587010341424559 15.562765755972533 1881416.7516547372 3.8248851485609525 0.17437636630919795
0.26926973128691795 15.293367320230187 1557894.423473874 4.020457170403436 0.17676881892735244
0.2801252213056719 15.053616551022717 1295226.8564644693 4.222638587356661 0.17914821524292285
0.2912581315321302 14.839715353522847 1081073.3454603846 4.4328019744015785 0.1815514174431403
0.30268290183353846 14.648203030281257 905331.8465894803 4.65129507238348 0.1839822738550647
0.3143892024967178 14.476698995660481 760850.1110275444 4.8784852302999715 0.18644243395206714
0.32637668355836047 14.322944777584212 641354.8541255055 5.11170956605878 0.1888726571058987
0.3386502141729636 14.18468613380676 542278.4075276208 5.354119009084257 0.1913242207621706
0.3512060697991077 14.0604484476748 459843.8299597348 5.606229880906038 0.19380577162730603
0.36404247581807153 13.948568610822653 390975.6108044819 5.868454934555631 0.19632288857070282
0.3771725905189521 13.847939980483693 333255.0569062716 6.137735909314333 0.1988164772006223
0.3905803366668152 13.757319740339936 284744.79575279774 6.417404907754925 0.201339384971568
0.40427197211739613 13.675746321928134 243864.58658076896 6.7083167804994295 0.20389686066459883
0.41824896838870573 13.60235475789572 209303.95472820936 7.010637058856609 0.20648155383948136
0.43251155502295857 13.536295181887386 180030.92772631848 7.320857350746742 0.20904176971174585
0.4470550698488906 13.476943886542948 155157.29633658208 7.643626393432631 0.21164643793275537
0.4618843155596992 13.42369858633275 133979.6581690084 7.979478280205984 0.21429557043699882
0.4769966451206076 13.375995402753368 115914.43575809785 8.326582901439743 0.21695309173635974
0.4923910313506859 13.33335695389477 100454.06084863271 8.684695787093762 0.21960651302956047
0.5080642254348648 13.295281009810553 87208.56705956264 9.057416779229964 0.22230811417620677
0.5240189991796987 13.261421611302378 75835.92657823501 9.445351457939044 0.22506068548016628
0.5402565788962937 13.231458566697162 66050.2249455438 9.843227120537106 0.22778904822697382
0.5567719938368242 13.20502984824543 57617.52937035041 10.256934121999622 0.23056224080851678
0.5735627278382155 13.181624216492956 50331.42351722212 10.687574817878227 0.23338602486564408
0.5906295597872568 13.161273818962352 44031.47720514125 11.132337038928371 0.23621579326198083
0.6079611073123443 13.143521549769298 38573.92253340421 11.591710208719693 0.23906128343346025
0.6255746551045596 13.128329880406541 33837.167049640775 12.069939245866847 0.2419661227259914
0.643458692483267 13.115497619445593 29723.400942308097 12.566904416692065 0.2449211012206155
0.6615882898734358 13.104314823017235 26139.669566625616 13.07718421109273 0.24785303715100948
0.6799977359960537 13.095215918701436 23016.112643833978 13.608434744908365 0.2508436091433746
0.6986523498196958 13.087717767937368 20291.41015982202 14.161563082049064 0.25389465479219137
0.7175754151180014 13.081868704843947 17908.84182237906 14.730789575002897 0.2569442386261665
0.7367501255777741 13.077380037484655 15822.751222568368 15.321262836225488 0.26003991507391605
0.756163065465617 13.074139932385247 13997.136076560299 15.936008387747547 0.2632014387518127
0.7758161704325679 13.071998262654304 12394.582666116801 16.572373419366002 0.26639060335962467
0.7957065607771849 13.07090964286799 10914.595021601117 17.22896985887544 0.2695908701872283
0.8158368990584642 13.070717473049987 9749.88126876248 17.91263481481979 0.2728631589168386
0.8361889686001255 13.071330394310854 8660.315598025883 18.6243805417813 0.2762088391421368
0.856751787741522 13.072568151225457 7700.251752888376 19.355045035123627 0.2795414377238053
0.8775416866610452 13.074535631130983 6853.098937366162 20.115766906320385 0.2829447633095504
0.8985267455178457 13.076846152657394 6105.271678792578 20.907798381147206 0.2864207975588066
0.9197196553310529 13.079776819154276 5443.551860232615 21.726179794264926 0.2899225254162721
0.9410924327837423 13.08288222395439 4858.049221968448 22.573331815249887 0.2934681963743811
0.962650985706229 13.08633968726247 4339.692590819136 23.455327359967967 0.29709732535053984
0.9843967895905461 13.090092096305534 3879.902267233127 24.373123208176406 0.3008078069959434
1.0062950182212167 13.093806576772089 3471.762816553817 25.31729173325908 0.30450932584914187
1.028348630642177 13.09769296397331 3109.520185165209 26.30033917223624 0.30829753814934696
1.0505479337120736 13.101591924300276 2787.2233363300134 27.323768562499293 0.31217425767031076
1.0728815761567387 13.105340432192364 2500.45547753296 28.3844953011315 0.3161106460120477
1.0953381907784767 13.10905053585168 2245.074660971171 29.481383521472246 0.3200918654609817
1.117925983918622 13.112581086918562 2017.4063695707357 30.62333043336722 0.32416202463196914
1.1406022911569658 13.115872059520116 1814.2806547764533 31.81219074240591 0.3283223701144404
1.163367877044729 13.118945168058453 1633.0187936662237 33.043054806064056 0.33253832503757974
1.1862141405529005 13.121651534092514 1470.9824829687088 34.31756859902587 0.3368105193701063
1.2079584429736647 13.123354754518466 1332.5493196948967 35.745328936014275 0.514985775362953
1.2168522308993241 13.113703844730308 1270.915590268017 37.41834877821045 1.0195025552575805
1.2149403758109656 13.089041305898974 1259.9469623140435 39.857868580741474 1.4635331390768616
1.2071806262049802 13.053274384828903 1272.953546041638 42.81267406586486 1.8913356006764777
1.195603629445046 13.008058226916072 1300.5118911415113 46.32529220428621 2.3305063738792797
1.181350781421201 12.955561972123048 1338.879232416265 50.43536485141435 2.80706730524348
1.1650338375151819 12.896650841795235 1386.4019645315593 55.21964463382573 3.3099626275922542
1.1462520230650373 12.82749001497754 1443.49172984561 60.43808743744168 3.4167351788636373
1.1251912384378355 12.74249606091421 1504.2568828113467 65.92265910833986 3.4395342786852936
1.103447967290067 12.644277794080834 1560.7448166117701 71.60611719190472 3.4591901245037993
1.0819345179613953 12.534803613470347 1607.5044008724692 77.48613424129717 3.478234313444511
1.0610694630907975 12.41496465578674 1641.01644614421 83.53506063786159 3.497621222036885
1.041406058653772 12.28636465898355 1657.511832795195 89.73307482292175 3.5174177043613017
1.023054972391431 12.149587517371849 1655.7815370859075 96.15111156753308 3.5378558549836607
1.006353645838998 12.006055590127428 1633.8974808088944 102.7927488737786 3.558941462221472
0.9913971798075286 11.856738856416266 1592.5534862482841 109.66297002506677 3.5806846384643882
0.9783127872548565 11.702759809814202 1532.5852319502014 116.76790104829972 3.603098174813271
0.9671537808233478 11.545340131261 1456.7607386765599 124.11470724014202 3.62619594713229
0.9579665491234859 11.385693907435504 1367.6079087890935 131.7115679144858 3.6499922413175008
0.9507271662905378 11.224957005896066 1269.1850427759887 139.5340719052376 3.674404225326501
0.9454079599778723 11.064104605723841 1164.6536582685708 147.62603051549556 3.699569933432904
0.9420068265283241 10.904782825273537 1058.0482597399618 156.00377055514664 3.7255346258187427
0.9403927772385007 10.747601670691486 952.3911786497242 164.67790209796473 3.7523114003850107
0.9404804911424776 10.593240534232558 850.2848558145109 173.66048191488997 3.7799360186953663
0.9422495580110521 10.443294076546966 753.75359873581 182.96428117427013 3.808444307675199
0.9454805300723611 10.297371046490133 664.2678361223211 192.6029751717955 3.837861926171622
0.9501082972895636 10.156420781775626 582.5437701102962 202.59146755676895 3.8682229147876837
0.9560396969354159 10.020993107397903 508.90495345411944 212.94576654827407 3.899573637850704
0.9631274077922042 9.890778331041249 443.1837500818657 223.6828227090711 3.931945703393952
0.9712625161885986 9.766260925573677 385.1983073942545 234.8211231385724 3.965386782014617
0.9803302505935695 9.647615135296688 334.4678152355677 246.38014398617554 3.9999471313971684
0.9902201069334365 9.53426789699334 290.19464555822543 258.3808196160991 4.035668341603773
1.0008575860745026 9.426468050393002 251.75779842399504 270.8458174222635 4.072618030554708
1.0121266043736168 9.32434466245155 218.64061882247398 283.7826678803449 4.110777243624385
1.0239191042188347 9.226786098246139 189.98837491826546 297.2092306225246 4.150204474513561
1.0361701681836843 9.13423437931028 165.23494910654497 311.17237125384275 4.191008735443803
1.0487936969204459 9.046381878665114 144.1457753194938 325.70105461871503 4.233273762291532
1.0617149508819623 8.962894317142268 125.90582239549737 340.8269128495298 4.277068081256548
1.0748676418957446 8.883243074348174 110.18148666738364 356.583314315632 4.322469957619317
1.088167466202552 8.807700933491937 96.67670013708577 372.96455583766993 4.369427033189174
1.1015802503139758 8.735610297416386 85.0013627758747 390.02183694326555 4.418069127420486
1.1150347683852126 8.666716887300531 74.92568184839612 407.82002289991055 4.468577236464988
1.128475078774992 8.600868195984518 66.2003225889607 426.4019484944961 4.5210444321821415
1.1418585583354761 8.537800280816901 58.55586162213349 445.7316988641677 4.575303108736486
1.15514944672693 8.477302721957306 52.080802514016696 465.9382924125071 4.631736475335306
1.1682892890546275 8.419079396063598 46.365462784321565 487.0548767816292 4.690396749528873
1.1812328845360702 8.363119466399745 41.3116273756954 509.0814672408908 4.751224898915754
1.1939595753656287 8.309007124176249 37.0310385559416 532.1534032808308 4.81460667803428
1.2064142683511023 8.25671866197908 33.21411364953971 556.2399674113624 4.880369131712089
1.2185965734057522 8.20593616867182 29.866392784927925 581.4923042427034 4.948944611262404
1.230450328238755 8.156667985386232 26.91440979790003 607.8957881955553 5.020188131813478
1.2419654646976903 8.108505560322444 24.312002724416587 635.6058967937406 5.094551621179738
1.2530869895041117 8.06161425100956 22.01794231732871 664.6166226571545 5.1718955469021175
1.2638107326400008 8.015733104056602 19.982224385286138 695.0769623319281 5.252619004426722
1.2741220675955944 7.9707522445510035 18.179044849122707 727.070146556298 5.336892549116727
1.2839759541242477 7.926493788757911 16.57485542757653 760.6445426738146 5.424738629668834
1.2933779112617798 7.882819726162579 15.143899054605809 795.9573156511532 5.516556214977474
1.302273474482849 7.839775500793214 13.86850782065875 833.1168352855135 5.612552789859964
1.3106940249604042 7.7971907693896 12.725754588145165 872.2420962735216 5.712961794372464
1.3185835923250355 7.7549535934524725 11.702465732688623 913.4546866736449 5.8180094114593
1.3259364507512448 7.713112468955474 10.786319380665532 956.9039091218062 5.927998560562071
1.3327359416841507 7.6714280215763715 9.960627013138236 1002.7587191761384 6.043282735999233
1.3389909480063202 7.629931708995322 9.208569537744767 1051.1911014881812 6.164201195099875
1.3446528187430835 7.588475394970442 8.548174663671547 1102.3894158520798 6.291123559075082
1.349742296641487 7.547140204610956 7.936223951507684 1156.5563961413156 6.424437181770332
1.3542282623076405 7.5057384538692915 7.399205560725771 1213.9020208898528 6.564527852675899
1.3581014271125187 7.464327015749824 6.900259110110717 1274.6884147229982 6.71193666361013
1.3613735235405808 7.422764489854068 6.45117027584415 1339.188495726672 6.867191455713447
1.3640337264399465 7.381156533218429 6.0451075912310674 1407.7018146480934 7.030874247930473
