M[M_sun], R[km], Lambda[1], P_c[MeV/fm^3], rho_c[fm^-3]
0.23841724892012095 16.20908015294055 2780876.1263280716 3.453507347168396 0.169602847481901
0.24841248365486185 15.8663245549846 2282324.4179319204 3.63551326421665 0.17197801708308957
0.2586905962098674 15.563038590001376 1881808.3350767 3.824693614484941 0.17437402325318563
0.26925239703812065 15.293752678160965 1558329.4474709556 4.020148593597612 0.1767650440756122
0.2801027229626079 15.054121138232677 1295725.0495437135 4.2222160247651335 0.17914327402900587
0.2912290305978794 14.840072237966398 1081425.3712009413 4.432259600903546 0.18154531464578885
0.3026461847039536 14.648781257545469 905839.78054165 4.650626755903045 0.1839750356376403
0.31434436532982324 14.477347458667449 761289.4587266342 4.877684588908971 0.18643409118097512
0.3263257426086344 14.323561707681758 641800.7268928995 5.110729895848884 0.18886244883488162
0.3385934979517697 14.1852603790696 542706.56075561 5.352988512720946 0.19131294054282538
0.35114002109300985 14.061048954354774 460224.8698220195 5.6049414762055445 0.19379338871266927
0.36397368639939337 13.949231646328327 391311.9754077015 5.867001022218006 0.1963094250897523
0.37709099282252334 13.848520385219388 333564.4782339706 6.136040870075859 0.1988007808426597
0.3904913238825401 13.757837333830624 285029.6000247655 6.415522507338152 0.2013226072819445
0.4041735380580183 13.676248561736044 244120.15641867518 6.70623858653662 0.20387909310437777
0.41814197545004594 13.602834612243395 209547.47835969977 7.008259334171915 0.20646122543545342
0.4323957642823254 13.53688838223895 180255.92968336496 7.31825919999869 0.20902035233341135
0.4469311949089852 13.477419217813347 155356.5104105983 7.640797645728495 0.21162394794503467
0.4617482520367748 13.42417962011331 134165.79995595486 7.976408367493381 0.21427206640414578
0.4768482767083928 13.376474090467871 116074.51718849484 8.323127745989218 0.2169266381870819
0.49223227769508837 13.33375819537427 100602.19452586338 8.68097029022547 0.21957910382810336
0.5078945211742467 13.2956800446679 87342.72751689541 9.053408855965865 0.22227965130570138
0.5238422691019162 13.261792351933998 75956.67299364293 9.441047909172996 0.225031174647421
0.5400669788307935 13.231747501131807 66153.94338876143 9.838436197069337 0.22775619530747904
0.5565677490934606 13.205288008914426 57713.2516444525 10.251812129556265 0.2305283936197506
0.5733422097385726 13.181866276341266 50417.907264437534 10.682107024424672 0.23335123641379213
0.5904026050772497 13.161512326052646 44108.49332074805 11.126284739950446 0.23617728593477919
0.6077279094311923 13.14377331679225 38642.91191432938 11.585271309714543 0.23902168733869072
0.6253227171092515 13.128525181559482 33901.2760315448 12.063095378169324 0.24192542876381162
0.6431887973958694 13.115558862232458 29778.950144406397 12.559363357675764 0.24487626172576146
0.661312660459991 13.104461008284286 26189.98659677176 13.069190521235972 0.24780718773814087
0.6797088255376519 13.095302062206947 23060.493099631443 13.599967818052077 0.25079675066353374
0.6983465662789351 13.08784800488843 20179.995117813338 14.152600473471123 0.2538466383583678
0.7172587691212492 13.081991400918321 17944.954430957383 14.72096575133205 0.256891608303746
0.7364149644150542 13.077460831291335 15857.44383358138 15.31088425383991 0.2599860657241309
0.7558151325623839 13.07419697958507 14027.454489804528 15.925048405908392 0.2631465124368095
0.7754546574318528 13.072067690070421 12422.709518970878 16.56039453003786 0.2663305707557133
0.7953333536698881 13.070929631625356 11012.641349983309 17.216341651747477 0.2695296600753922
0.8154465010824106 13.070750941971031 9772.455027456348 17.89932517001614 0.2728005946979912
0.8357851664344059 13.071309665189187 8680.645500475579 18.609868226640078 0.2761406215695515
0.8563345961025722 13.07258923851032 7670.841409377921 19.339769227455392 0.2794717657208028
0.8771091886938757 13.074527372742315 6869.943240496742 20.099689604553628 0.28287382052423904
0.8980767991982026 13.076839758753252 6119.931406792138 20.890879813241202 0.286348405615887
0.9192551087794602 13.079709702327753 5457.2730266597255 21.70778798562145 0.2898438297034373
0.9406148625221014 13.082910063609818 4870.674116045891 22.553996828915988 0.29338780079901755
0.9621563813679442 13.086286554426888 4350.916681955405 23.434999098787674 0.29701514188878236
0.9838862341118729 13.089972468102518 3889.995916398341 24.35105934406974 0.300718606807302
1.0057720278799533 13.093755792887366 3481.198106077292 25.29411395714907 0.30441849433399065
1.0278079714801218 13.09758484957638 3117.7386385454597 26.275989647063646 0.3082047556838952
1.0500018074771462 13.101463903273194 2780.2775185562277 27.29818379166715 0.31207931182802956
1.0723178498450756 13.105289145024145 2507.34481501779 28.356783670874236 0.3160078073314504
1.0947673742888444 13.108967809578942 2251.2706610389127 29.45228151766334 0.31998662539730643
1.1173400157737503 13.11260403926807 2023.132032547461 30.59276309304617 0.3240546423826607
1.1399939891511228 13.115799915772273 1819.4632664189037 31.78007857262491 0.32821237952792626
1.162745513539386 13.118840392429997 1637.666781787287 33.00832999720805 0.33241938564112317
1.185577102563523 13.121538090860533 1475.2318729911397 34.282555503708856 0.3367018056149413
1.2084730662841103 13.123866123747884 1329.9176399665841 35.609229210342164 0.3410898411809679
1.2314254679088383 13.125807966504452 1199.8422509340153 36.990369996730806 0.34558260178589517
1.2544139400525232 13.12722294867841 1083.3532452094066 38.42193091502961 0.35013441131374584
1.2774481295564863 13.128380110527637 978.9926298341549 39.90675851626534 0.35476684339486153
1.3004316757336374 13.128469947925662 885.3016269897275 41.45298204248081 0.3595163511795174
1.3234499685854004 13.128303841960799 801.2211742801336 43.06305759063439 0.3643851089882501
1.346457780732747 13.127525674652619 725.7044528611386 44.73957271934188 0.3693751723118839
1.3694095906205117 13.12590891549721 657.7154395655632 46.47434668328684 0.37441672242175306
1.3923212733590427 13.12369243807998 596.604158107178 48.281169817605004 0.37958870812116324
1.4151363646933448 13.12064735307008 541.6282356825246 50.1633702764157 0.38489593865166694
1.4378947874672043 13.116919776158282 492.0818580653969 52.12413734054798 0.39034125450987617
1.4605424759997632 13.112301556119432 447.3687064990983 54.16685288373538 0.39592633679023453
1.4830884544546168 13.106938526805276 407.0562894860682 56.28943198136698 0.4016176173565362
1.5054596200671644 13.100537180885937 370.65748466625405 58.49774539282114 0.407445109343246
1.5276980846788328 13.093239750747266 337.76707813881285 60.79984537740458 0.4134331779046379
1.5497583789419977 13.084983930472951 308.0201284514389 63.199980159236844 0.41958496572280835
1.5716196609766149 13.075756013210157 281.1228560937898 65.70266274161214 0.4259013522333981
1.5932753511057376 13.065545633402147 256.77552963665335 68.31275252180139 0.43238760407275584
1.614691307534496 13.054215600758123 234.7205815604551 71.03529916965442 0.43905880183989227
1.6358643462603677 13.041868508696666 214.7201549446515 73.87573733190773 0.4459221449439272
1.6567549694386752 13.028347904601631 196.58169419356955 76.83618999821532 0.4529648817178918
1.6773638394723571 13.013770653187134 180.1202454414735 79.92560743037492 0.4602020687766037
1.6976555954458181 12.998031597423752 165.17673547832285 83.15223096737228 0.4676602586484475
1.7176260813909765 12.981131481051085 151.58937428401492 86.52312012853695 0.4753500809082689
1.7372426538776244 12.962883278588828 139.2221614357008 90.04579092552724 0.4832764131770463
1.7565262995595916 12.9436794841292 127.97725076826235 93.72829109972743 0.49144684100214664
1.7753493941087546 12.92286548345736 117.73736473775385 97.57927071145136 0.49988029516834875
1.793794620150726 12.900853868343647 108.40178305057297 101.60796013366993 0.5085928627133531
1.8118203440205027 12.877729616190086 99.89883959207279 105.82423280428377 0.5175918807889461
1.8293720156231197 12.853032134859605 92.1263042503859 110.23869246380032 0.5268899299816193
1.8464675773586547 12.8271138545116 85.04029445226972 114.86273791990416 0.5365105375954953
1.863058433604811 12.799879356773413 78.57565931527995 119.70860165122535 0.5464735063189395
1.8791636932832583 12.771288994510131 72.6593398666656 124.7883567918745 0.5567833365785532
1.8947202359505957 12.741102313277604 67.24306750261199 130.110720102201 0.5674439019666848
1.9097292370437429 12.709679966079074 62.29297562162839 135.69597070479196 0.5785033460137169
1.9241641333476576 12.676748485031004 57.75905546719055 141.56041189504896 0.5899802857483388
1.9380038159442536 12.642337102662337 53.605495973635584 147.7216155226311 0.6018927454257541
1.951253186892146 12.606547187724093 49.797461819608614 154.1985022374408 0.614276115501521
1.9638708260861126 12.569278039033657 46.30333382467953 161.0115244307629 0.6271624239184856
1.97584308313714 12.530450516292817 43.094419436170014 168.1684072332423 0.6405190696169178
1.987149499953692 12.490272322200987 40.15455850488571 175.70420609561648 0.6544297890810379
1.9978026739579293 12.448572153358858 37.44635573673617 183.6459826820327 0.6689388396279298
2.0077285781932934 12.405281436118281 34.95931086242632 192.01754935785408 0.6840568754861279
2.016954110370769 12.360572941758646 32.67532124114573 200.8350359301685 0.6997897688840545
2.025464384647878 12.314369806238707 30.570585673664084 210.14698809421418 0.7162404811656442
2.033199128864727 12.266475631965141 28.6315817446503 219.97982517500762 0.7334112627192365
2.040209419869117 12.217264105179407 26.847852581219602 230.36257640158576 0.7513382145739427
2.0464309287027493 12.166431141523159 25.201758425380817 241.35268841527468 0.7701322508813836
2.0518853569936 12.114209810814412 23.68559663903017 252.96541680562393 0.7897379112621777
2.0565275094226303 12.06038920017799 22.286814761564283 265.2768680690194 0.8103295650007608
2.0603668450916097 12.005147187660041 20.99595178564316 278.3088794210117 0.8318673061349506
2.0633939209307455 11.948473086363322 19.807782037331368 292.1422971567242 0.8544971301289972
2.065584598218247 11.890276668219155 18.708750697861888 306.814303867083 0.8782301333598996
2.0669507026351788 11.83064509908462 17.69381956849617 322.4044661838439 0.903172649589985
2.0674630266011778 11.769668829190731 16.758317506535025 338.98543075492165 0.9294294365918986
