M[M_sun], R[km], Lambda[1], P_c[MeV/fm^3], rho_c[fm^-3]
0.23841724892012095 16.20908015294055 2780876.1263280716 3.453507347168396 0.169602847481901
0.24841708206334492 15.866162216427679 2282101.761387902 3.635580460428933 0.17197887184432362
0.2586983407586299 15.562844804160843 1881605.1013501035 3.8248318361759535 0.17437571413331987
0.2692648186380383 15.293453325364217 1557917.508793771 4.020371278695668 0.17676776820527476
0.2801174157086709 15.053857573494852 1295440.2718461468 4.222520966489245 0.17914683984936303
0.29124861854108647 14.839770033915498 1081153.0594415274 4.432651002195715 0.18154971870088718
0.30267245729741654 14.648335074613492 905454.5102344695 4.651109041190521 0.183980259039836
0.31437619414842793 14.476895205144524 760958.8919611203 4.878262362894042 0.18644011164925786
0.32636222928874214 14.323122330023047 641474.4575894646 5.111436860208476 0.18886981548103382
0.338634325457062 14.184795117406297 542416.5962600108 5.3538043150609465 0.19132108070995568
0.3511864602115922 14.060606203678663 459942.1870236164 5.605871226418209 0.19380232458313956
0.36402268159904894 13.948742721523207 391061.60371269024 5.86805020332366 0.19631914068914855
0.3771493830054231 13.848126301156341 333338.3383019876 6.137264047944243 0.19881210768232116
0.3905562880009092 13.757421831959354 284809.98227322433 6.416880883866315 0.2013347143870951
0.40424431383658677 13.675843079067583 243934.64102052012 6.707738245746633 0.2038919144703339
0.4182181659354952 13.602473372286871 209385.81109211518 7.00997513008281 0.20647589466639116
0.43247991974413275 13.536415824275203 180085.81639146167 7.320134051149192 0.20903580732440497
0.44701765263087456 13.477077485589465 155219.26724635405 7.64283889048297 0.21164017688245315
0.4618473235489892 13.423816095642017 134030.89141751605 7.978623630760781 0.21428902702338468
0.47695587426949104 13.376123902531242 115957.56891940805 8.325620987906618 0.2169457270815956
0.4923459059432563 13.333468009481226 100498.82773005118 8.68365860129761 0.21959888225293114
0.5080164720979241 13.295438891289907 87250.28246899361 9.056300955498276 0.2223001899859743
0.5239693108863482 13.261608096331925 75871.89582553045 9.444153320334527 0.22505246946116084
0.5402070946568742 13.231557235984491 66079.93320018935 9.841893274214721 0.22777990160917821
0.5567159158461833 13.205126169116543 57647.021102786566 10.25550809024839 0.2305528172948345
0.5734994144361161 13.18169630166941 50357.17093129591 10.686052497721969 0.23337633921056053
0.5905730186213861 13.16137286328412 44052.406055923515 11.130651957025092 0.23620507204671243
0.6078974848618958 13.143676315652538 38596.010441689534 11.589917474856023 0.23905025899280577
0.6255036589054599 13.128405487493144 33856.13436501562 12.0680337441647 0.2419547925224241
0.6433755282287903 13.115411540146688 29739.382428417044 12.564804766361904 0.24490861660009058
0.6615150997102663 13.104481858494143 26154.260931868426 13.07495851736557 0.24784027123783994
0.6799171718646227 13.095237558451196 23028.50244174904 13.602858597575514 0.25080205174114606
0.6985761689117789 13.087792535772984 20302.109155352184 14.151266132569011 0.25381577354117785
0.7170859480841613 13.081872073483888 17964.423478863522 14.745902916340134 0.3370228441068438
0.7256704576168933 13.070516679718478 16891.099340950088 15.505677916152868 0.6635062548119668
0.7272990620582369 13.048054970822216 16481.206504735528 16.424890243528818 0.9353798892056608
0.7246985686382532 13.016422504213276 16420.567003501128 17.601726049298854 1.2152069024474197
0.7192007529726979 12.97660477352829 16578.80059220871 18.96448314228483 1.4436086523601284
0.7119669742115199 12.927594911024018 16832.965227300912 20.51236624926924 1.640667019356599
0.7036948572764058 12.870877380678024 17127.88344533225 22.240673082230085 1.8415793378751237
0.6946767038553427 12.807693043257258 17457.01870347346 24.1458815126027 2.0373947689288823
0.685209402483043 12.737450527896351 17767.257130663027 26.245834773579382 2.255380566626404
0.6754704652002094 12.662565609538326 18081.977926066564 28.558055474645613 2.517647327179838
0.6653149693746683 12.581498809455493 18396.666404843076 31.069462953198634 2.7138173632161116
0.6548013363756214 12.491586714925344 18672.718991410104 33.74842423543465 2.8143439164507784
0.6439691670935433 12.387420419948656 18842.88376249698 36.58187446138683 2.833118673773176
0.6334417843053184 12.26979586095482 18839.597814151115 39.46985159847523 2.850757351561049
0.6236807069928115 12.140330151514757 18616.148031865778 42.4355839314169 2.868659732386992
0.6149675713278241 12.000263072130704 18155.146381134986 45.52261186915715 2.887181392018981
0.6074998939321571 11.851094411340693 17459.87030673826 48.729599808026805 2.906343694321848
0.601411436562401 11.69429784433061 16550.811561549293 51.978831410983226 2.925718321564269
0.5967906550889268 11.531636239343658 15467.067545809745 55.350572395291394 2.945784934119212
0.5936589838568477 11.364655130726133 14255.365162208198 58.85356434742666 2.9665976687413997
0.5920496141845936 11.195251904538393 12967.214107221807 62.483102941978444 2.9881283891461066
0.5919167226378814 11.025077532098008 11654.877664060557 66.17732675485323 3.0099922523971907
0.5932471700502943 10.855646180542168 10356.918278434156 70.01543970091302 3.0326707560395083
0.5959804029235726 10.68876270041591 9120.333373393692 73.99936971155134 3.0561708987016263
0.6000463633178387 10.525560498740983 7964.354857311326 78.13185500555004 3.08050424601502
0.6053686213706552 10.367114047692128 6907.440001249446 82.35221551431344 3.105290438269161
0.61187964548079 10.214268917698059 5957.503624764193 86.73207444584024 3.130964275054586
0.6194758699231598 10.067796158879972 5117.7862232364505 91.27740520899586 3.157556049494028
0.6280895495780981 9.92799268924215 4382.51938669241 95.99258835199686 3.1850857273905473
0.6376309478705535 9.795207456514568 3745.6385649725835 100.85794498196083 3.213423788021901
0.6480254360131074 9.669614823920682 3198.073044769362 105.87459486486217 3.2425681931182813
0.659186894651352 9.550904731111602 2729.6029506815444 111.08216577854334 3.2727551987386705
0.6710333979594967 9.43915408542418 2331.2223651382924 116.48684529669026 3.304013667762971
0.6835059167140937 9.334154529487282 1992.4920201518134 122.09545406984823 3.33637567488627
0.6965496745825029 9.235555576503202 1705.5911462257388 127.91094181892473 3.369848468966293
0.7100642506345534 9.14298933975877 1462.3817556422289 133.90805461620448 3.404262765883505
0.7240044428534864 9.056248462622 1256.7352045475934 140.137227270173 3.439918965708136
0.7383233075390057 8.974831942746782 1082.1754026712542 146.60760389571092 3.476860241804
0.7529531104998357 8.898481505912395 934.3118116235894 153.32907674178432 3.5151333917114704
0.7678520545684577 8.826780367399147 808.6395674229872 160.31230616496825 3.554787555987227
0.7829702171559768 8.759359360061874 701.6609005363907 167.56882176111023 3.5958729828668576
0.7982588180637241 8.696014446386195 610.5378921865595 175.11115398717877 3.6384419062886484
0.8136827947603871 8.636148450644027 532.472118504453 182.94091301015922 3.6824948721828017
0.8291861677911332 8.579649710207214 465.70358419707026 191.07563656067845 3.728119470950389
0.8447408648134591 8.526154906199059 408.38635321586935 199.54233993682428 3.7754613368815644
0.8602918906648104 8.475462750326834 359.0673507581193 208.35715795670959 3.82457477456408
0.8758289734629564 8.42719967177791 316.4254308252158 217.53793902496253 3.8755554860683463
0.8913065045817252 8.38121739429911 279.62252403557807 227.1035327515462 3.928498462875773
0.9066851655493132 8.337137648438953 247.63002143221786 237.0740655292194 3.983483149263203
0.9219473867527492 8.294865978608042 219.88425344136272 247.47140011225676 4.040607446396498
0.9370590231370045 8.25416658542625 195.66008431293517 258.3190024616764 4.099992256628023
0.9519848716142372 8.21493532322754 174.5417925652744 269.6418175701212 4.16173281474372
0.9667041141485748 8.176894372393997 156.02176909019568 281.4670924147045 4.225960080996532
0.9811782572799452 8.139864776142021 139.80595799452215 293.8237568270405 4.292809458856392
0.9954132631533286 8.103759170847715 125.51828099333359 306.7430062714335 4.362404513049239
1.0093416452720587 8.06843906065362 112.95721433871257 320.2587266129487 4.434922921515027
1.022972318504127 8.033754810283574 101.85547531139613 334.39028007913146 4.510373926526494
1.0362704964627965 7.999549927799229 91.99849550121125 349.1816697923568 4.589007654204001
1.0492054171188379 7.965786416775715 83.31506077509052 364.68297891470934 4.671020336613239
1.0617703323701173 7.932301261016428 75.58126976344396 380.9390612784451 4.756634305363033
1.0739445363092626 7.899044998716555 68.694516026892 397.9990676456806 4.846053688820553
1.0857048489725345 7.865836870470102 62.55438588695973 415.9154579159255 4.939501432650179
1.0970307608002472 7.832667177439074 57.08318365894227 434.71056105999963 5.036999012251247
1.1079005176286465 7.799473367622742 52.17224552307807 454.46344174072755 5.1389177114953535
1.118296794584578 7.766183950889423 47.72710739983774 475.25345519784815 5.24563695345372
1.1282073083672206 7.73260838416173 43.83992710965443 497.1478026013324 5.357413657801716
1.1376435595407883 7.698868906120683 40.294300830360726 520.169903849848 5.4742111097491435
1.14654625881766 7.664801358847552 37.10988274751768 544.4583755339164 5.596750830502219
1.154901165990895 7.630343680420643 34.23360421640631 570.0855395071617 5.725275244090299
1.1627437406364687 7.595528060508748 31.637810562881114 597.112967968346 5.859936209519129
1.1700212431217334 7.56028214231429 29.294680450478918 625.7001248492954 6.00152437667321
1.1767218403042778 7.524492402241238 27.142300572515644 655.8863465390814 6.14997046279935
1.182854843688578 7.488247756444366 25.250739138582066 687.8651454866724 6.3062588465464575
1.1883936475610009 7.451424616146387 23.480488955329353 721.698547466145 6.470359882702024
1.1933332414979352 7.414040223536748 21.89891749326416 757.5960057233499 6.643345986454519
1.197683775992707 7.376058987412788 20.460305106661192 795.6500765481635 6.825280609609262
1.2014138626863686 7.337466995226895 19.149430990557004 836.0766182161699 7.017134388444282
1.2045142367718347 7.298274726332617 17.974301965833135 879.0601659441966 7.219601714436922
1.2070003439778891 7.258471566771721 16.890130504226153 924.7617210225901 7.433048167022268
1.2088478055326908 7.217981944390271 15.902059936588197 973.4469437356925 7.658615571951391
1.2100745543263307 7.176866044713537 14.995628751442538 1025.356421139144 7.897114588867172
1.2106683537707656 7.1351539061506 14.16816125827859 1080.7560166394953 8.14944842034193
