M[M_sun], R[km], Lambda[1], P_c[MeV/fm^3], rho_c[fm^-3]
0.23841724892012095 16.20908015294055 2780876.1263280716 3.453507347168396 0.169602847481901
0.2484143067440345 15.866224037187243 2282225.0664509786 3.635552628089138 0.17197851780643514
0.25869507632746197 15.562966346308478 1881636.895731688 3.824774585004396 0.17437501377386153
0.2692596200665463 15.293578060867787 1558205.9203789725 4.020279042201644 0.17676663986677554
0.28011213491290055 15.053919813080869 1295571.0672862025 4.222394658264931 0.17914536287064245
0.29124013644662927 14.839929997146394 1081336.5363117964 4.4324888808928415 0.18154789450877348
0.3026627702126566 14.64849523541999 905607.9579993532 4.650909273702781 0.18397809545334232
0.31436452999619774 14.477029656361646 761067.0396591588 4.878023041425196 0.18643761789330865
0.32634867910059684 14.32326386010754 641627.7537736348 5.111144024030082 0.18886676409594272
0.3386170307554897 14.18502524188129 542539.3254014383 5.353466394239081 0.19131770889814306
0.3511675807318778 14.060725752302218 460046.6039964639 5.605486103811253 0.19379862315270796
0.36400230773608067 13.948900383566587 391157.4746111471 5.867615607208473 0.19631511625358486
0.3771256710933283 13.84825289119443 333427.14593986986 6.136757373956425 0.1988074157931291
0.3905291012003027 13.757598095461587 281096.7448047842 6.416318203522346 0.20132969926061922
0.40421539776834703 13.675987310218405 244006.40869361674 6.707117038272241 0.2038866034447951
0.41818704072944085 13.60255832336887 209441.48432406932 7.009264385719188 0.20646981814345422
0.4324434262856688 13.536605271026586 180158.19685658178 7.319357416002947 0.2090294052752677
0.4469826285086261 13.477248639314679 155269.79540118793 7.641993324060938 0.21163345419791654
0.4618046474685889 13.424031437870708 134086.20090699155 7.9777059738408145 0.21428200120851176
0.4769119153554697 13.376250278997638 116003.6547449555 8.32458817133129 0.21693781957509942
0.49229900103852486 13.33364067159016 100542.19468231862 8.682544972140347 0.21959068906770002
0.5079649855923289 13.295547258838258 87290.35578347534 9.05510290105009 0.22229168182192768
0.5239189563030582 13.261669413876067 75906.31056080743 9.442866894831068 0.2250436480233346
0.5401198788317899 13.231984560933917 66160.0250213746 9.840461157332744 0.2277700811182129
0.5566560195527505 13.205189255758786 57675.437729979945 10.253977006650178 0.23054269957675144
0.573436603640001 13.181813624281038 50383.76282055534 10.684418043361063 0.23336594010947495
0.5905021002945717 13.161519279586999 44079.837841162465 11.1288427743528 0.2361935612490166
0.6078249987099236 13.14363827831934 38614.27856868695 11.587992724660156 0.2390384227159668
0.6254277620018327 13.12844271157345 33874.93941929852 12.065987935235643 0.24194262804542577
0.6432971937274562 13.115393446847973 29754.490850431863 12.56255054176976 0.2448952128736669
0.6614290319369799 13.10440840444792 26169.602894000192 13.07256898546802 0.2478265655979544
0.6798313339895501 13.095265854465083 23042.2290392766 13.603546269228563 0.2508165548717383
0.6984758122481919 13.087758021433324 20313.83908549488 14.15638839524613 0.25386693183583664
0.7173897826357286 13.081937540508996 17930.150346544804 14.725117599756048 0.25691385148812285
0.736560886514142 13.077434552803728 15842.635279050159 15.315270533077673 0.2600088239656859
0.7559607456691746 13.074186696472449 14014.96311578725 15.929680372311559 0.26316972569112673
0.775604897453046 13.072034196269772 12411.083118327713 16.565457045283864 0.2663559417199349
0.7954953231481513 13.070965660071183 11002.76669753217 17.22167854900048 0.2695555285200894
0.8156171391859304 13.070753617153146 9762.562798275034 17.904950020379324 0.2728270352510111
0.8359574955477431 13.071341685333557 8672.322124002943 18.616001259547026 0.2761694509198947
0.8565141507867103 13.072601095536633 7711.021115248289 19.3462248799307 0.27950120954782726
0.8772935008381025 13.074486959016918 6862.6157933976765 20.106483932357598 0.2829038012104092
0.8982630478019165 13.076836477437737 6113.736398419621 20.89802962006143 0.2863789985366408
0.9194503108937135 13.079733855513215 5451.401059033295 21.7155602772973 0.28987708614088986
0.9408197654010568 13.082868095642986 4865.260341104094 22.562167653545067 0.2934217753845645
0.96236531783871 13.086329683984035 4322.012833639832 23.44358962179573 0.29704987181048337
0.9841042719255474 13.089996709922291 3885.8148273686024 24.360383182352685 0.3007563013892519
1.005991701372337 13.09381336626588 3477.185979280607 25.303908456971484 0.3044568780535846
1.0280397101890932 13.09770222070506 3114.321476378352 26.286279243099692 0.3082439635978878
1.050236276084541 13.101540478428895 2791.454417043989 27.30899530936951 0.31211943369041883
1.072555535260094 13.105278022405452 2504.32148455906 28.368493776741815 0.3160512638811336
1.0950096072185844 13.108999881883854 2248.674234876852 29.464579076369816 0.3200310964196394
1.1175742669626259 13.112489405850432 2020.6526558222054 30.605679773139872 0.3241000183344933
1.1402513681756026 13.115848861508931 1817.237124569088 31.793647956084033 0.32825885737278954
1.1630155669203206 13.118898021734282 1635.681513775028 33.023003160437426 0.33246964415185676
1.1858432282774394 13.121555836933819 1473.4243416717197 34.29796472364825 0.33675332643485495
1.208745973424629 13.12391275853535 1328.3355265582145 35.625416605183254 0.3411427029942251
1.2317136282942611 13.12584875157654 1198.3340946952492 37.00737911422301 0.34563668419487387
1.2546990824095448 13.127273409192847 1082.0005859525988 38.440300643871964 0.350192819940092
1.2777142425451153 13.128139259051698 977.6898476745254 39.926055855347826 0.3548268313948985
1.300728919553963 13.128485667873957 884.1588575593593 41.47326140304469 0.3595780301619303
1.3237662414818554 13.128313343696288 800.1514349547728 43.084376943510655 0.36444857536928366
1.3467609192998533 13.127451888108226 724.7145326114271 44.76199243482508 0.36944032784304054
1.3697300734864102 13.125966660300643 656.8732428081993 46.49852788792452 0.37448699714193656
1.3926322919690861 13.123650222644955 595.8423392927346 48.30659751777247 0.3796611317707688
1.415467140172015 13.120636004751155 540.8922779708494 50.19012001107652 0.38497064816918836
1.4382220237476542 13.116912695585201 491.4298308933488 52.152289479865395 0.3904183601361419
1.460867291699539 13.112245709726587 446.7837806181356 54.19649183128523 0.39600580782920985
1.4834124495469523 13.106803684720305 406.50450992187217 56.32137440769912 0.4017032647231891
1.5057890313802753 13.100376680245464 370.1414608359705 58.531378435483745 0.4075336796932182
1.5280373735643418 13.093132915624896 337.29217953399467 60.83527471157569 0.41352485785780135
1.5500835452985817 13.084814747233617 307.6041172235865 63.23731833702008 0.4196798896049771
1.5719532450355889 13.075625859679237 280.74398593602757 65.74202879355485 0.4259995777693749
1.5936067537301914 13.065359722734824 256.4188877301249 68.35427432536908 0.43248955745890144
1.6150257884544572 13.054073860270307 234.40282067200584 71.07911503943161 0.4391647202629403
1.6362064755097352 13.041737259659465 214.41455958851859 73.92199482588427 0.44603218870770955
1.6571079489807599 13.028270123914192 196.31578059248844 76.88600688556484 0.45308339306194867
1.6777064002318178 13.013688398520179 179.92098926483243 79.97821801729138 0.46032518658018595
1.6979864280622399 12.997665274699681 164.92991495969892 83.20781794896415 0.4677884919789403
1.7179641994440624 12.980734268363765 151.36183006096715 86.58188095370546 0.4754837603914772
1.7375988985599946 12.962714960404242 139.02514982808776 90.10793678309105 0.4834157580471271
1.7568609651703129 12.943337921911665 127.79085795380308 93.79404778139995 0.4915921658822872
1.7756928180855982 12.922504061516129 117.55782262312823 97.64888185629344 0.5000321828106918
1.7941122312630449 12.9004010716791 108.23744687356543 101.68168900176495 0.5087517434161862
1.8121252071873852 12.87719042087561 99.74433263571171 105.90236173075884 0.5177580409633363
1.8297009423945023 12.85266509702012 91.99459664366665 110.32152459222998 0.5270638581563153
1.8467843888148903 12.82670010538177 84.92243946159911 114.95060103207933 0.5366929242950861
1.8633754634453141 12.799352404968255 78.457126566903 119.80185022583899 0.5466649184058843
1.879443871967048 12.770575649557502 72.54520103075436 124.8859755950994 0.5569790956383714
1.8949937629491818 12.740476244047356 67.14569788937335 130.21446433227368 0.5676498010843948
1.9100244217991122 12.709084982526113 62.20006294620684 135.80628302768602 0.5787200777936562
1.924438762904065 12.676098299974715 57.67300260795272 141.6777697201014 0.5902083302709706
1.938279805931333 12.641632708143318 53.52092105000763 147.84653498155694 0.6021330378930079
1.9515051162064347 12.605782454348082 49.72535360693026 154.33154364875088 0.6145296337297473
1.9641232943881979 12.56855396653836 46.237334357436254 161.153005336582 0.6274290775562452
1.976091668368485 12.529765907640138 43.036056431789156 168.31785295805935 0.6407958374284881
1.987382492555771 12.489420389948023 40.09480318517339 175.86367547739687 0.6547225848646946
1.9980166611512558 12.447737040903641 37.39420322093385 183.816247413259 0.6692488255714725
2.007929048703478 12.404381752722518 34.912701486212 192.19762100175058 0.6843789345238188
2.0171314898633526 12.359556067532163 32.6288646172088 201.02756163159376 0.7001313704528422
2.0256338791025064 12.31332631729454 30.526714727099083 210.3529553668342 0.7166030849209113
2.033369547633754 12.265491021284182 28.591345079041382 220.19833654326413 0.7337896463728935
2.0403570604509884 12.216210205746854 26.810870070361336 230.5966717837597 0.751740587622972
2.0465569936185064 12.165296371520355 25.166867548959157 241.60193636125715 0.7705545800855973
2.051991965332272 12.11302877889541 23.653516811600337 253.23246061006301 0.7901865824305525
2.0566119085404644 12.059141490548624 22.25692653732356 265.56308347393497 0.8108063301848206
2.060445444525564 12.003890257658364 20.96885259880774 278.62033582820084 0.8323867742544112
