M[M_sun], R[km], Lambda[1], P_c[MeV/fm^3], rho_c[fm^-3]
0.23841724892012095 16.20908015294055 2780876.1263280716 3.453507347168396 0.169602847481901
0.24841252796063415 15.866293893004631 2282137.730914269 3.635528261410504 0.1719782078530674
0.25869344957854296 15.562919981432977 1881646.1228272705 3.8247244632015778 0.17437440062870277
0.26925380415969286 15.29376867525376 1558275.4456978238 4.020198292577335 0.1767656520483326
0.2801052110761007 15.054099988468987 1295720.0178651493 4.2222840811688735 0.1791440698430605
0.29123380990047015 14.839982670013422 1081382.466951569 4.432346952400681 0.1815462975265662
0.3026529788157096 14.648643751181714 905704.752773526 4.6507343895808955 0.18397620136673015
0.314350943078846 14.477251618320464 761193.2702923974 4.877807994655963 0.18643531811592734
0.3263406301058609 14.323408758972866 641710.258104161 5.1073304689226315 0.18879001730796005
0.338606972547477 14.185147576476387 542644.6904556868 5.3530202567593745 0.1913105789512513
0.34981804314809406 14.071116454855424 467673.3923473305 5.617292296158803 0.2718122709362183
0.3574335911992982 13.988630082519137 421548.3387530294 5.9260294274287215 0.39046383323492195
0.3627313600694166 13.91685747230568 389393.77687683154 6.281493216132055 0.4606477619540684
0.36702190568140003 13.844755031381961 362633.62511168653 6.672063925346782 0.5340309879857587
0.37041726626734234 13.772259255874289 340186.43436063675 7.1024416466974225 0.6145617958197687
0.37296232584184785 13.698964311056317 321235.730406641 7.579723545358065 0.7038691529549603
0.37483060868010604 13.622170310485926 304594.41953938437 8.097989556749257 0.7667409231859348
0.3765097891838252 13.538479536406854 288245.6859066726 8.657184405115357 0.8258655549956025
0.37810438874844327 13.44868916832052 272122.6619914607 9.256725769889195 0.8886334106246121
0.37965063656820885 13.353373775188325 256279.08030697258 9.892121163897993 0.9485364470620488
0.38124492223600265 13.252006528979603 240510.0448002586 10.567609312093174 1.0014375371614908
0.38302149826830545 13.144120068716612 224575.97630921687 11.28663166167706 1.0519413310818488
0.38501634131382595 13.030732251548141 208686.6467348755 12.044511708387724 1.105174471494769
0.38728310538325433 12.912204813122697 192883.9580198018 12.835614740176695 1.1501131920789749
0.38990127822131376 12.788607805549772 177232.16948713412 13.671218154302395 1.1950413368616475
0.39290293786021047 12.661213257985182 161920.55301102877 14.551735911792555 1.2405411472615395
0.3963235270750804 12.530506373653106 147096.73367460255 15.464522658056994 1.282920647727705
0.40018297857194385 12.397399421667485 132875.25603828038 16.41948621943903 1.324566785944778
0.4045133191234061 12.262872983887389 119407.11858746989 17.42286539334527 1.3663878875424265
0.4093221189922182 12.12769860305945 106753.59502710415 18.469809770374546 1.4082865196360244
0.4146237106138982 11.992677749664633 94998.7213736314 19.55153664796945 1.4493491825773308
0.4204175131298682 11.85880971041503 84182.83001714107 20.68620625549414 1.4926258134232635
0.42669212188303673 11.726839540027765 74340.86535442996 21.87608580696919 1.5386639620273195
0.4334246390884163 11.597500071574395 65458.826740259785 23.102396925247437 1.586996138456663
0.44058936397672827 11.471455666582939 57512.49020207492 24.385501434970127 1.6415760514053803
0.4481480602880267 11.349089179586404 50451.15417768496 25.733045116682675 1.7017107249975554
0.45605105921146016 11.230986495809884 44223.85645313998 27.13626849061023 1.7662651837382088
0.4643877590309176 11.115882073680785 38681.89198793201 28.584859456008292 1.7881063188279962
0.4734003712474479 11.002464781489758 33689.73818196348 30.093293821491454 1.8001198963770366
0.4830871046710237 10.892244257719467 29238.32348184224 31.656910046228518 1.8124662979593853
0.4934561683219008 10.785771464422979 25295.435283584968 33.2451396020692 1.8249028828676175
0.5044810162269387 10.683746253317384 21840.2691009493 34.89499580470292 1.8377761845680232
0.5161461134785996 10.586759979656353 18828.997399333166 36.60814374747088 1.8511023045309736
0.5284203101921665 10.494859974122644 16218.657403018267 38.36316388451735 1.8647204888814048
0.5412804501164519 10.408243701607404 13961.100140488248 40.1719882922207 1.878724454627364
0.5547017021792056 10.326928146890705 12022.15823715416 42.04999294548075 1.8932314774708152
0.5686529624968925 10.250826565855139 10354.669551953379 43.99567175391942 1.9082202880081331
0.5831011755549533 10.179872311394048 8925.351521534982 45.98288663925597 1.9234865152968974
0.5980177162433225 10.11382327599709 7701.121217245005 48.04671377163266 1.9393113967423752
0.6133776123139236 10.052471653654951 6652.069658400596 50.189111593480696 1.9557063519627502
0.6291424693059059 9.995626746290041 5754.554107272939 52.39682890207225 1.9725569356348995
0.6452932112006412 9.942993109107958 4985.048559438663 54.670047064239284 1.9898436500308143
0.6617995341955141 9.89434855614384 4325.544628046676 57.03064238255315 2.007751901361819
0.6786354967533867 9.849285780881786 3758.7757196192865 59.48132687680563 2.026300882731988
0.6957637167362347 9.807782924484242 3272.7747807442875 62.004395482545526 2.0453373013776086
0.713169390245166 9.769398656030164 2854.609286440623 64.6125420977168 2.064957473094359
0.7308183127123139 9.733953712167907 2494.2054099046427 67.32132070781464 2.0852820148928592
0.7486804235239621 9.701206145992828 2183.4949664473147 70.13414137463076 2.1063306664567776
0.7667519781887877 9.670881614526362 1914.6698782805793 73.03898844392712 2.1279938201730006
0.7849755364608361 9.642749325873252 1682.4393891922928 76.04215135287151 2.15031281442153
0.8033516365880686 9.616661869296811 1480.894169956875 79.16260101763832 2.1734348611002097
0.8218505685905068 9.592366381606658 1305.689321982945 82.40475097952336 2.197385306840347
0.8404340132683469 9.569732781093851 1153.6025481849583 85.7733283384357 2.2221912679872946
0.8590744135444115 9.54847841700057 1020.987032953853 89.2477650767817 2.2476660881328105
0.877789709688507 9.528485434820892 905.0191847083869 92.85960983351333 2.2740595422081027
0.8965070528982579 9.509603170504965 803.7390735420023 96.61546184540694 2.3014116135707856
0.9152183308403615 9.491660051876945 714.993894789351 100.52140697137644 2.329756846691613
0.9339151091087199 9.474530391269296 637.1769103133383 104.58395105637454 2.359132098201882
0.9525642408818679 9.45807353792628 568.7052530406303 108.797644832941 2.3894715141138785
0.9711247688501171 9.442138912821179 508.48777856800086 113.17449687908208 2.4208551002162753
0.9896017995357681 9.426613660331363 455.36128695540725 117.73175588032522 2.4534063296808775
1.0079531105512147 9.411401545818306 408.4361555443007 122.47787865037513 2.487172648110967
1.026164840434543 9.396388538984802 366.9767874867518 127.42190338332264 2.5222023317135083
1.0441904941316764 9.381439391438894 330.21309065459843 132.57353252867497 2.5585431002337637
1.0620575928019942 9.366536873522575 297.55880469132677 137.94325285286294 2.59624676001822
1.0797141837885744 9.351541804495655 268.60634057142966 143.54209163947831 2.6353871272829963
1.0971271053270808 9.336352106989516 242.8289058928023 149.37482600649287 2.6759685561803788
1.1142969483349094 9.320876502111755 219.82550558273496 155.4593121100313 2.7181049292274757
1.1311853840793198 9.305114735053545 199.31308536099849 161.81287287021692 2.7618721302062657
1.1477741459740722 9.28891986238413 180.9858036423414 168.4503930944094 2.807372408972154
1.1640543935179577 9.272232066976963 164.56002196723028 175.3876580921961 2.8546987879387267
1.1800048220607808 9.255071573663422 149.8685315628985 182.64152281221965 2.9039213300037314
1.1955809222229257 9.237259885116531 136.665208786879 190.23026570722868 2.955136527511165
1.210788724097024 9.218820565126174 124.81710644123203 198.17353842399714 3.0084666726663443
1.2256040761018918 9.199719426138218 114.15259092297039 206.49227887264794 3.063992993045661
1.2399995544064846 9.179845144100167 104.54477114351987 215.2093287177339 3.1218497737109945
1.25396105324192 9.15914755407593 95.87954929645718 224.34904601513145 3.1821665654176368
1.2674635362190152 9.137582535782851 88.05738317152546 233.93770718427243 3.2450562069410602
1.2805055553742142 9.115179852060088 80.98350842007017 244.0010159633151 3.3106755053968775
1.2930471582836978 9.091832495745255 74.58540694805885 254.56121053556154 3.3790469632256595
1.305097126306258 9.06755900184112 68.78792130939513 265.6600526683538 3.4504733302990753
1.3166198080966895 9.042279728709051 63.526415604107584 277.3334230939654 3.525088607815029
1.3276067448722855 9.01599207270779 58.75217719511597 289.6195800234973 3.603108133574494
1.3380339775031596 8.988664150736634 54.410590663719354 302.56042590452296 3.684734159445653
1.347892802027658 8.960242310924896 50.461388569124445 316.2008998454194 3.7701749173393098
1.3571737105774309 8.930762845078211 46.865479694584785 330.5631845907545 3.8594290078303093
1.3658588623948777 8.900138577767393 43.58573968149314 345.7226204621892 3.9529528997095205
1.373950857025609 8.86842213902077 40.59154180984906 361.73814257449305 4.051051645868259
1.3814025038092905 8.835563048163902 37.860508529633556 378.6637928882155 4.153916014777803
1.3882357958318134 8.801535520541188 35.36081029043475 396.5446977092744 4.261665931045346
1.394428344067462 8.766365166515204 33.033565163006315 415.48175319196315 4.374904397559092
1.3999650149186906 8.730031827995187 30.982055257566735 435.53830897548664 4.493835628275039
1.4048422662318902 8.692537886199347 29.03198204447025 456.7874272947281 4.618730104753007
1.4090484659247091 8.65386453203794 27.30545839107103 479.3503875409226 4.7502714805579975
1.4125926601120156 8.614041265511494 25.693304704367698 503.27900317296223 4.8884107491096715
1.4154539473151042 8.57308101848313 24.21353941990543 528.7342461548047 5.034149829679571
1.4176233157858256 8.53094753767032 22.830051146477416 555.7828323016698 5.187409494434551
1.4191098308344559 8.48770052263694 21.582694353789023 584.6004603047262 5.349275506068869
1.4199068094522258 8.443346745679525 20.457693283947982 615.2910013944731 5.519866961447903
1.4200115925831123 8.397911941381192 19.40254143087823 648.0317902850242 5.700049414632953
