M[M_sun], R[km], Lambda[1], P_c[MeV/fm^3], rho_c[fm^-3]
0.23841724892012095 16.20908015294055 2780876.1263280716 3.453507347168396 0.169602847481901
0.2484218579884752 15.866009755181876 2281804.298336 3.635698454796878 0.17198037277730965
0.2587119615097888 15.562440838444697 1880921.2998350551 3.8250745575296614 0.1743786833685545
0.26928508853179084 15.29301695449033 1557479.7408202991 4.020762334911756 0.17677255203610706
0.2801474059689077 15.05318257538552 1294769.9782074636 4.223056491421525 0.179153101982598
0.2912854280210439 14.839067362349535 1080483.9917312392 4.43333838625579 0.18155745315995728
0.30271726632656 14.647676983357393 904839.7735304075 4.6519560641097595 0.1839894327415662
0.31442808103982295 14.476191975648444 760334.3782124643 4.879277121378333 0.18645068554394192
0.32642565832069265 14.322294605595117 640940.1172309013 5.1126785664260845 0.18888275419598596
0.33870584031426737 14.184080021069065 541888.6434251982 5.355237226786368 0.19133537846365897
0.3512702258199707 14.059873475205777 459469.014872696 5.607504329414674 0.19381802040836474
0.36411411611009903 13.948010401233995 390615.16410188103 5.869893139228966 0.19633620659595188
0.37725347347611066 13.847307927846098 332921.6700500292 6.139412701493155 0.198832004587641
0.39066983620052304 13.756685778654424 284432.9823877084 6.419267096258315 0.20135598251396755
0.4043684484406445 13.675205547974732 243597.5101338545 6.710372716338695 0.20391443792855418
0.4183543922308512 13.60178016839705 209069.80803630664 7.0129894117069504 0.2065016653265117
0.4326291323135121 13.535901462632719 179823.03393265817 7.323427845835986 0.20906295911573816
0.4471795379002323 13.476460132458534 154962.64193121207 7.646425103697785 0.21166868910750844
0.46202070704817244 13.423309700177859 133813.3508892688 7.982515672003531 0.2143188254814514
0.4771447378844575 13.375731277982608 115761.40748328605 8.330001595010932 0.21697926612421184
0.49254517264403136 13.332972311025422 100315.89968961304 8.68838206079174 0.2196336336585627
0.5082344850923075 13.294887288773035 87082.3963899746 9.061382602463981 0.22233627806700987
0.5242028691839614 13.261109345592189 75720.15172348639 9.449609903391728 0.22508988702483115
0.5404464728754252 13.231166899157396 65951.07038381405 9.84796803112936 0.22782155819192465
0.5569685680881445 13.20468378817097 57525.99213638058 10.262002764538611 0.23059573545004597
0.5737718513873432 13.181370594747552 50248.953223076234 10.692985784468751 0.23342045176057089
0.5908533662370418 13.16105025368001 43955.95163146009 11.138326692671152 0.2362539020132734
0.6081980787884365 13.14333175007498 38506.56584043965 11.598082605256726 0.2391004705704207
0.6258254205908831 13.12819558454289 33776.726303278214 12.0767125801229 0.2420063972929803
0.6437105240051643 13.115146659695206 29666.21719705095 12.574368083831164 0.24496548053969425
0.6618395644629317 13.104453942936267 26106.184838469882 13.085096038251834 0.24789841702394216
0.680289331288966 13.095129496025972 22970.79329756968 13.616815145052932 0.2508899887587767
0.6989539277039402 13.087597774660614 20250.332381599048 14.170434289535164 0.2539421815522286
0.7178915403513199 13.08180822933247 17872.326233331944 14.740513649987948 0.25699633455325677
0.7370800195380229 13.077374826944551 15790.873961509882 15.331536256466762 0.2600932187891547
0.7565061222134172 13.0741382820157 13967.846700200547 15.946857546401993 0.2632558096727247
0.7761750951729361 13.072073688304167 12368.156203509838 16.58423172592658 0.26645003165896947
0.7960799963778804 13.070918715237278 10963.203889896946 17.24147120949427 0.2696514654135916
0.816225551114798 13.070729446722936 9727.742278444579 17.925811033419897 0.27292509594342645
0.8365902177303357 13.071377226707813 8640.508709716518 18.63828615221096 0.27627234530480405
0.8571649934226083 13.072649530632194 7682.792242929049 19.370168731625142 0.2796104159572936
0.8779631714857198 13.074484509319769 6836.904881291403 20.131684447858515 0.28301500113604683
0.8989710609962421 13.076944529622194 6090.231667398854 20.92454917785732 0.28649247163465236
0.9201793601775331 13.07983217679918 5430.292780761866 21.74439009767708 0.2900004444962134
0.9415595442400119 13.082947055435891 4846.042211599936 22.59247638787749 0.2935478002026386
0.9631385422391363 13.086454972109623 4328.783192474542 23.475455848142698 0.29717870116637934
0.9848989182100987 13.090135726439533 3848.7102526617086 24.394643557990875 0.30089355480565
1.006814593244906 13.093945044286313 3462.7811448369616 25.340243348921536 0.3045992710628627
1.0288852139396674 13.09784247611665 3101.2685672962425 26.324451614414365 0.30838941722368174
1.0510953522856412 13.101606608343596 2779.6119580407953 27.3491047650347 0.3122682810682812
1.0734537588292064 13.105466677343339 2493.5924137266666 28.411939090109925 0.3162124907257268
1.095919232438514 13.109137147241322 2238.9378070671623 29.510204870844213 0.3201960906086048
1.1185254265481734 13.112745291041872 2011.8016864203805 30.653603650661356 0.3242683736349477
1.1412067807241548 13.115979921814551 1809.2141349933559 31.843994627877738 0.3284313047657059
1.1639976331577615 13.119079590184935 1628.384859178527 33.077448043694595 0.33265612873645467
1.1868451438215264 13.121639303643448 1466.6820617389585 34.35514204020329 0.3369444991380136
1.2097639211886957 13.123928336708222 1322.1175635741479 35.68548278769055 0.34133885607221864
1.2327370830477007 13.125831160948557 1192.8097975941837 37.07049591033009 0.3458373711724347
1.2557604049227624 13.127295591193562 1076.9520241575588 38.50847002100597 0.35040957216934043
1.2787837862738105 13.128146815414498 973.1023505806653 39.99766925980891 0.3550494499067615
1.3018310683445804 13.128513695099402 879.9447872971041 41.54852096100856 0.35980692953661414
1.3248675528275746 13.12828992657871 796.372107492806 43.163498013043714 0.3646841138481442
1.3478980887910612 13.127500803292142 721.2645117735849 44.84519929631159 0.36968214122644827
1.370874965292983 13.125861310785476 653.6545266316945 46.58827724172948 0.37474782412801094
1.3937998411327497 13.123557488663943 592.9179016434267 48.400975720393745 0.379929941526745
1.416656341248368 13.120502610209183 538.2001940965921 50.28940773948811 0.3852479495472948
1.4394120153414376 13.11660397413918 488.93083719305514 52.256785375480234 0.3907045629494606
1.4620784634454587 13.111975040357377 444.5043317238835 54.30650953635944 0.39630079878033
1.4846183884831283 13.106465797155792 404.435063054901 56.439949419239746 0.4020212004173563
1.5070135390835848 13.10000474768001 368.2571701538313 58.656232824078685 0.40786247530663766
1.5292628912923105 13.092658661187532 335.55143776862377 60.96680123116862 0.4138652070469166
1.551315859980762 13.084329442144425 306.00635666737577 63.37593532099243 0.4200322919725904
1.5732095138679891 13.075091156347039 279.2735812053419 65.88817867560921 0.42636424859078814
1.5948582194449987 13.064710254716609 255.0798590201252 68.50843244721142 0.4328680800945584
1.6162791173451792 13.053377831784902 233.16473277982564 71.24179556731623 0.43955797652058815
1.6374548526290942 13.040932715182393 213.291817618255 74.09374631629515 0.4464407750537323
1.6583548771527215 13.027301560552827 195.2580853919481 77.07014684600041 0.4535198008915839
1.6789699457255896 13.012694695800509 178.91432691533893 80.17357720116769 0.4607823606023398
1.6992392427718233 12.996674551430464 164.05475159864199 83.41423662759121 0.46826467819877526
1.719225054784363 12.979718018510452 150.55151069106785 86.80009333937453 0.4759801883919729
1.7388193893580866 12.961335416093094 138.2686952855706 90.33872822562604 0.4839332439236843
1.7580512771916497 12.941810042571305 127.0945717560235 94.03825798371354 0.4921318801360731
1.7768817963896986 12.920965758832535 116.92311783711114 97.88646826009266 0.5005152519580676
1.7952931909416017 12.899023464336794 107.67660625554134 101.98327674201413 0.6039907473453778
1.7922820484071607 12.881376848794483 107.36652285412862 109.54226385969088 3.133054799614436
1.7745475255483718 12.860057025347968 112.52998249152402 122.45426376777564 5.681974154169579
1.7494731242912687 12.832995522650181 120.6142525728411 141.2222055784631 7.123193210397957
1.7157028642676135 12.789540271945208 131.92906781506042 163.0138382918584 7.379782067234185
1.6761795980106886 12.728181958505111 145.68896259426626 185.86697295190868 7.4345158218851095
1.6335365212228181 12.650843577892028 161.21526355008174 209.58131720466324 7.490742134273156
1.5889525596768912 12.55828832984038 178.2418049955639 234.05397350708247 7.548369598936632
1.5433177354710355 12.451646591191286 196.46559462695637 259.38825484702033 7.60756171896138
1.4971646058308579 12.331383746846091 215.65065558487674 285.726237660371 7.668677873134877
1.4510905233476437 12.19809947370619 235.30370742677266 313.12388521551065 7.731782678465818
1.405555892239027 12.052163959507515 254.7926763783764 341.6390503639281 7.796978680795721
1.3609062853731708 11.894008694847592 273.58655570381563 371.2561761342028 7.86417292579876
1.317604447077636 11.724318876917934 290.7399077179348 401.88558129549386 7.933071557990656
1.2760082991047932 11.543790184401896 305.42296361059465 433.8237276757402 8.004362261500349
1.2364013443268371 11.353187277976632 316.6552893914168 467.14629387977385 8.078157923806094
1.1991089030721822 11.153767198773668 323.7289512369953 501.6679255260356 8.153920049532045
1.164340969114048 10.946528579128982 325.95365546905737 537.6475850403363 8.23222090236219
1.1322653436479244 10.73295481906207 323.03457205966464 575.245612804288 8.31336836935757
1.103031492988094 10.514670515450492 314.9515379250652 614.2069714091908 8.396635980162134
1.0766082675341517 10.293102731951512 302.1432666965388 654.9860215138677 8.483050190744862
1.053118332149303 10.07028641949676 285.2238535127522 697.4003604297438 8.572057239786911
1.0324199284297215 9.847573815034757 265.10734858436354 741.7464696821729 8.664276585303966
1.0144534760443475 9.626782144934609 242.91468305133924 787.9408837994761 8.759355478245487
0.9990989023528369 9.409530735814464 219.66086049356514 836.3103120804169 8.85800931897205
0.986159838003705 9.196959108458078 196.27511282011292 886.6800134685135 8.95961619613113
0.9754713763574234 8.990214017803268 173.6374455981582 939.4367138554434 9.064991508939901
0.9668297619121335 8.790416448898275 152.29473135288666 994.6203088639495 9.174073451883332
0.9600346108101439 8.597878787217132 132.62993092004163 1052.278194592606 9.28677897402406
0.9548815668168275 8.413496643082107 114.92199727026617 1112.6914536785857 9.403617452266777
0.9511819979987223 8.237237969190208 99.15875068213242 1175.9995877682054 9.524706059771619
0.9487329427112067 8.069218092827278 85.37159314471322 1242.3583277730925 9.650192357588699
0.9473710418497785 7.90956146988317 73.40338024173117 1311.8933955485118 9.780128108551859
0.946926620286203 7.757999928996617 63.085165045258215 1384.854872305692 9.91486038882484
0.94724324830379 7.61394688289028 54.24931709514956 1461.4672317670122 10.054643925606987
0.9482015203038083 7.477824609621502 46.73339322536971 1541.9585077490983 10.19971401855559
0.9496630248087194 7.348670306747572 40.34324959951886 1626.5776204814154 10.35032616834365
0.9515233209256109 7.2263411737771115 34.837494483973 1715.5923793049064 10.506744419740416
0.9536870862065455 7.110362442880808 30.299293033076797 1809.2303338005415 10.66910472233101
0.956064992618377 7.000323912440025 26.397317859007266 1907.865832933256 10.837889199394013
0.9585704864121994 6.895867207889763 23.067124632727857 2011.8502793727275 11.013454984316969
0.9611370512443441 6.796718655258241 20.245749236685437 2121.565150419967 11.196197063020346
