M[M_sun], R[km], Lambda[1], P_c[MeV/fm^3], rho_c[fm^-3]
0.23841724892012095 16.20908015294055 2780876.1263280716 3.453507347168396 0.169602847481901
0.24841749367891194 15.866200214782618 2282107.0672719507 3.6356137941979134 0.17197929586247196
0.2587022258224813 15.562746599344747 1881421.6779620748 3.8249004045947355 0.1743765529378252
0.26926886128448757 15.293385009748555 1557909.946672147 4.02048174960064 0.17676911960719482
0.2801267880990784 15.05362748946045 1295187.153505825 4.222672246534112 0.1791486088347821
0.2912609211222784 14.839637306051582 1081003.1640566792 4.432845177879158 0.18155190356952647
0.3026858505283457 14.648150198488104 905294.1539109148 4.651348308943686 0.18398285043488724
0.314389830759417 14.476723672840643 760804.0086628301 4.878549008640395 0.18644309852936825
0.32637867549938754 14.322947508288962 641357.1275965079 5.111787607288469 0.18887347030407003
0.3386544448250209 14.184660485900215 542262.9059151555 5.354209066713804 0.191325119367286
0.35121118309182564 14.06039524408274 459833.3240170366 5.606332519475407 0.19380675809114184
0.36404841975408636 13.948553475109941 390968.73489290435 5.868570759816207 0.1963239611327473
0.37717889095666307 13.847918022243901 333227.075163608 6.137870946709833 0.19881772767037545
0.3905856386226391 13.757303025732146 284709.3268564076 6.417554873786979 0.20134072160723673
0.40428129430251963 13.67568407022454 243834.28632739658 6.708482347354647 0.20389827618168882
0.4182571848908277 13.602298150918893 209289.4256325199 7.010826493037025 0.20648317341073827
0.4325213896083641 13.536353940813415 180012.40516394 7.321064349334532 0.20904347606657253
0.44706482671468134 13.476907943398956 155144.87370437122 7.643851767208598 0.21164822976927958
0.461894496143937 13.423658913812176 133964.76710786103 7.9797228716145066 0.21429744309105764
0.4770084063496398 13.375959895942454 115898.94516868879 8.326858192698023 0.21695519943627975
0.4924030735829479 13.33331046274894 100444.44939485393 8.684992621944293 0.2196086969010024
0.5080756763858459 13.295282890343817 87202.32670334172 9.057736121072262 0.22231038203038098
0.5240326089774939 13.261402118774445 75828.91572591913 9.445694358980743 0.22506303686406826
0.5402752601351405 13.231495945845369 66042.80657865026 9.843608863615934 0.22779166596334988
0.5567852464066678 13.204898234582405 57608.65699545347 10.25734225001486 0.23056493780311904
0.5735755257687574 13.181625393072299 50326.23474825117 10.68801050529105 0.2333887968962104
0.590649574987662 13.161252866032784 44024.54670784162 11.132819312403303 0.23621886169309564
0.6079807831602214 13.143543909610482 38569.15569418181 11.592223294471154 0.23906443866108898
0.6255955807888797 13.128271505300095 33831.22092294066 12.070484608305906 0.24196936547694017
0.6434705478236075 13.115285487411464 29717.2336455547 12.567505350005435 0.24492467439862065
0.6616258716973881 13.10444802436964 26134.64826933315 13.077821221357555 0.24785669085126016
0.6800216189081583 13.095186745893223 23011.925092831323 13.609109474990763 0.2508473432994032
0.6986749787353368 13.087752051570215 20288.240379048566 14.16227732140102 0.253898481270418
0.7176058899606055 13.081991079427285 17775.944004901034 14.731572464469362 0.256948432891701
0.7367755126059499 13.077402468558427 15707.784031011483 15.32208994563622 0.2600442065370768
0.7561912035067673 13.074160586722387 13995.426410468059 15.936881841182858 0.26320581609287336
0.775843284714493 13.072008779190988 12393.108135492801 16.573328098152082 0.2663953877642433
0.7957401353130302 13.07089134131691 10985.86640965596 17.22997629765966 0.26959574849100604
0.8158661517012429 13.070709141614689 9748.359801719746 17.913695574648248 0.27286814519641495
0.8362230331392794 13.071332020546224 8659.070359840722 18.625518445583428 0.2762141125937221
0.8567831339939901 13.07258953289922 7699.067266094111 19.3562625401418 0.27954699068801664
0.8775767017258628 13.074573911163718 6851.688743885181 20.117048306133356 0.2829504176210231
0.8985629973897944 13.076864628128964 6103.762862328679 20.909146847137603 0.2864265674368216
0.919754723024502 13.079790294276341 5442.461022752982 21.727645720662313 0.2899287978892541
0.9411274944627743 13.082867846204442 4857.047182500517 22.5748729354526 0.2934746044081527
0.9627028958547191 13.086419722545696 4338.762281996979 23.456947668892788 0.2971038759647502
0.9844340834868671 13.090034819720405 3879.008145597301 24.37488190421657 0.3008149170840851
1.0063411219812333 13.093862237269864 3470.990792474693 25.319139239637753 0.30451656605212035
1.0283862349837611 13.097652097738658 3108.803331526385 26.30228010134596 0.30830493394810654
1.0505948854709573 13.101576892669183 2786.5996808062123 27.325807978151396 0.3121818260021954
1.0729267620341936 13.105332979063647 2499.899833637449 28.386704313934544 0.3161188437239823
1.0953880477314109 13.109006681902335 2244.5505631021556 29.483703394215983 0.32010025469619974
1.1179721475920565 13.1125924601658 2016.9542160461283 30.62576714468829 0.32417058473369287
1.14065869694552 13.115904857158158 1813.8375164930453 31.8147506323306 0.3283311382480218
1.1634270535135083 13.118963851389367 1632.5843005826068 33.045823046466516 0.3325478068131046
1.18626386350829 13.121568135062784 1470.5573768400523 34.3219296274396 0.33683345323538993
1.2091714146131036 13.123908703078133 1325.7500901033434 35.65059206421328 0.34122491637241076
1.2321389671228917 13.125786405077264 1195.9773980084028 37.03383289164562 0.3457207969661718
1.255147955335451 13.127299742092319 1079.921099142898 38.46887137571359 0.3502836638069174
1.2781651082985124 13.128225791645953 975.8411380498495 39.95606970083264 0.35492013288876545
1.3011895608895836 13.128498267119571 882.4076181389997 41.50480303615549 0.35967396296157594
1.3242151025583988 13.128251964048196 798.5843304484949 43.117536579605414 0.3645472895334301
1.3472287650819261 13.127401319537922 723.2344605141042 44.796864025277046 0.36954167065445476
1.370194549495887 13.125847648382486 655.5321208926056 46.53614044022516 0.3745963056576999
1.3931223761301053 13.12364143266839 594.60077455506 48.346149480765135 0.3797737844090385
1.4159637636747113 13.120601716446632 539.7890886736982 50.23172895235345 0.3850868580668487
1.4387133812583186 13.116705848937158 490.35675156518136 52.19608048925156 0.39053829891470004
1.4613796320907673 13.112133122738994 445.79915822901864 54.242596279337086 0.39612942788629535
1.4839213954324635 13.106659750139992 405.625171356368 56.3710635808208 0.4018364965191955
1.5063004841302836 13.100206499887673 369.348431393475 58.58369831589357 0.4076714605703421
1.5285465730978178 13.092967827318361 336.5769428023319 60.89038979334159 0.4136674783228232
1.5506108691447629 13.084655558283993 306.9298020116766 63.29540382350704 0.41982755883262424
1.5724743113329842 13.075370673335337 280.1309652921732 65.80326997757732 0.42615238578103987
1.5941318058997949 13.065123130092386 255.86124908356294 68.4188702770892 0.43264816752501833
1.615547665202274 13.05380330107315 233.88620856719822 71.14728108311822 0.4393295016512689
1.6367179688868352 13.04128539939772 213.9371434030765 73.9939606822876 0.44620339110156293
1.6576305242076694 13.027903382909583 195.87400899769133 76.96351298177767 0.4532677753492309
1.6782390152534374 13.013120199937784 179.45455491405278 80.06007212456274 0.4605167392408213
1.698520840807739 12.997297592797883 164.56179081710158 83.29430451944755 0.4679880074168789
1.7184854045963742 12.980334565582053 151.02303806622652 86.67330742074365 0.4756917534349747
1.7380995733095201 12.96205823976644 138.70201656505358 90.20463198384385 0.48363257024852774
1.7573393566112427 12.94261464857258 127.49808363330675 93.89636330201897 0.4918182872496112
1.7762112654909212 12.92201801824365 117.29493486982635 97.75719708612142 0.5002685206115677
1.79462751759658 12.899856701842117 107.99642590176957 101.79641389766032 0.5089989677743417
1.812625943307267 12.876431534698874 99.5116077444906 106.02393596883296 0.5180165981650177
1.8301814916503112 12.851836982701457 91.78427764962093 110.45042026956261 0.5273345090536142
1.8472582871662115 12.825849681567515 84.72127466684404 115.06961572663697 0.5369141157348671
1.8618913615338688 12.800053220406863 78.90673094303466 120.22383515820223 1.1346088365697227
