M[M_sun], R[km], Lambda[1], P_c[MeV/fm^3], rho_c[fm^-3]
0.23841724892012095 16.20908015294055 2780876.1263280716 3.453507347168396 0.169602847481901
0.2484078171664327 15.86642044326876 2282411.038557363 3.6354218294182354 0.17197685399787285
0.25867964525386233 15.563416142605272 1882137.8233809492 3.8245055400285413 0.17437172251905514
0.2692361581029606 15.294110853968682 1558790.0487053052 4.019845601818346 0.17676133754607512
0.28008156681643337 15.054527139527483 1296184.677477044 4.221801124358823 0.17913842241245742
0.29119982110628395 14.840645963388129 1081927.9354048963 4.4317270796259365 0.18153932270581694
0.30261185025136106 14.649342876571804 906325.4992333478 4.649970600395753 0.18396792912992274
0.31430444908241556 14.47788262059832 761748.9426398095 4.876874809902376 0.18642542052957506
0.32627935077177794 14.324110312658817 642270.1694661247 5.10976811875528 0.18885242701209842
0.33853757578594296 14.185917153860583 543123.063165187 5.351878697722335 0.19130186668445376
0.35107720502275724 14.061526580638244 460561.6468191558 5.6036766787965036 0.19378123268875616
0.36389969711999864 13.949722460269117 391653.8572440032 5.865573790618823 0.19629620867707712
0.37701183150883005 13.849069974686937 333876.2050090697 6.134377001429272 0.19878537312979574
0.39040691758355256 13.758509794502396 285323.52989471925 6.413674774450054 0.20130613858132831
0.40407531231135213 13.67680363482393 244398.49484869305 6.704198721411849 0.20386165323731253
0.41803432492747766 13.603401982756834 209792.21901312305 7.005925555950184 0.20644127275257626
0.43227732695641036 13.537200236962132 180459.42948109796 7.315709137226328 0.20899933135946924
0.44680215749304436 13.477878030444659 155556.4804749948 7.638021325944014 0.21160187478602854
0.46161294411526677 13.424582601759438 134336.03041930334 7.973395428907474 0.21424899857970353
0.47670472033133526 13.37688626723044 116232.75098063763 8.319736852771234 0.21690067664580762
0.4920820511888787 13.334299257964018 100749.179946204 8.677314174160424 0.21955220507464304
0.5077318662701215 13.296161991039595 87475.68875012062 9.04947566865832 0.2222517191838439
0.5236670444236557 13.262182160870886 76070.8240543692 9.436824709711924 0.22500221479597723
0.5398821011712984 13.23212778927468 66263.28598693726 9.833734918405593 0.22772395711154425
0.5563676213940484 13.205532018678735 57807.2321692173 10.24678609425967 0.23049518053571924
0.5731345956125801 13.18216851553914 50504.139450660456 10.6767417898009 0.2333171004852921
0.5901799707075498 13.16175491198535 44185.248002057364 11.120346216578753 0.23613950249688187
0.6074943457037716 13.144019858996781 38712.270369587495 11.578953596454276 0.23898283647726548
0.6250748519517085 13.128713500334275 33961.25695358453 12.056380467839121 0.241885501588259
0.6429251570992263 13.11561814816336 29832.44666233801 12.551964715843862 0.2448322690502458
0.6610377649581998 13.1046317489851 26239.199093349824 13.061347968968374 0.24776220520525502
0.6794234265411848 13.095495327930493 23106.435055505834 13.591661156390487 0.2507507791387265
0.6980489583700883 13.087916573332594 20372.337845964317 14.14380770128979 0.2537995318089855
0.7169466189765169 13.082067116852702 17982.68503371799 14.711328513190399 0.2568399775978587
0.7360845571925723 13.077577506345149 15891.150175485556 15.300703010211912 0.25993324026791703
0.7554730386636088 13.074295493899603 14058.221470047394 15.91429704466182 0.26309263163087304
0.7751001261000041 13.072093300831073 12450.01338430725 16.54864419216972 0.26627168354507635
0.794970358258605 13.07105733189479 11037.2776749766 17.203954643787156 0.2694696190786868
0.815066972234681 13.070738536220716 9794.499492174555 17.886270011921987 0.27273922673662643
0.835388019746946 13.071294035657697 8700.598716076423 18.595634059021 0.276073711476069
0.8559225726165021 13.072536792949526 7736.782104488427 19.324786512331485 0.27940343049455685
0.8766775528818307 13.074431540447305 6844.357922202572 20.08392110087417 0.28280424034297214
0.8976438503593204 13.076800217357496 6134.583542691558 20.87428654571737 0.2862774055831355
0.9187976144838018 13.079649666943586 5470.5106296658005 21.689750667466118 0.28976665080073244
0.9401451973539666 13.082761118454648 4882.446439616695 22.535034906366445 0.2933089564364179
0.9616723879761393 13.086179135005349 4361.779885082767 23.415063483241656 0.2969345458218926
0.9833726952193473 13.08979940107557 3899.99864741279 24.32942271176445 0.30063113383911
1.0052577861381828 13.093669976973292 3471.330977349362 25.271385459479145 0.3043294234986063
1.0272837395142382 13.097540341067324 3125.9755087718577 26.252112617424036 0.3081137736355011
1.0494589740295535 13.101360364469393 2802.1568421428187 27.273096020287895 0.3119862103654372
1.0717627579919722 13.105218188375737 2514.141558633061 28.329611726782257 0.3159069714421959
1.0941870803041507 13.108891918990736 2257.5619540031926 29.423746894079606 0.31988343712124756
1.11673387641884 13.112383168613228 2028.621328771755 30.56279235502089 0.3239493559812666
1.1393981985911896 13.115719725461119 1824.5060340793016 31.748593849868236 0.3281045380726195
1.1621310644098415 13.118751445278605 1642.286827543136 32.9742854539734 0.3323027762901039
1.1849471711964836 13.121440859073882 1479.3784518737039 34.24680373692371 0.33658226936681335
1.207828197497315 13.123768138612284 1333.728404005495 35.5716725651118 0.34096719560481276
1.2307760260851845 13.125789283049631 1203.3720472137543 36.95090750598667 0.3454571263422268
1.2537383624658869 13.127182996798911 1086.6203246632163 38.37931331997535 0.34999890385978955
1.276751305393578 13.128130287930261 981.7987293010598 39.8619896241473 0.3546276741399424
1.2997503176135017 13.12854650614069 887.9829400946428 41.40593571145695 0.359373261370809
1.3227494081758349 13.128339221599294 803.6590998362492 43.013599430511185 0.3642378751367436
1.3457476092392289 13.127514500700359 727.8243354010344 44.6865094254226 0.3692180236331876
1.3686825423896423 13.125959662988434 659.7238533925283 46.41825260784359 0.3742537034359419
1.3915907295318646 13.12377823631222 598.494000762982 48.22218527329445 0.3794207072425482
1.4144186615738614 13.120847053463315 543.3131637620572 50.10132016985554 0.38472263848319643
1.4371451885616684 13.117014505778648 493.6188434190556 52.05883538588954 0.3901623996081741
1.4598009641008682 13.11249689182192 448.7549999171626 54.09810345217921 0.3957419986403882
1.4823195862149463 13.107116484004475 408.36256406305444 56.215342548489616 0.4014189610379219
1.504705242421938 13.100776112273284 371.8388077585009 58.4197361978953 0.40723967738857747
1.526935179951084 13.09362692949344 338.87832789910584 60.71767151813539 0.413220537849573
1.548975318550443 13.085288343065848 309.0332175728112 63.11338080508906 0.41936480642803137
1.57083591510798 13.076096262188502 282.0410527538644 65.61136205811353 0.4256735402449173
1.5924868938792 13.065916343894804 257.6200818503364 68.21645418379711 0.4321511513949784
1.6139024798545638 13.054652706085507 235.4881073027129 70.93368267881763 0.43881315891371414
1.6350697182831104 13.042374378624283 215.4468254863014 73.76787093876284 0.4456643923284838
1.6555666665810747 13.028914675211237 197.5383646408593 76.77500523113461 0.5198167205087898
1.6729841255332656 13.013044840703865 182.9662999909235 80.01042781396922 0.6630800894095938
1.6870006975002196 12.992724836038073 171.1010869552758 83.58451377031813 0.7983151117735594
1.6982400895316574 12.967708590184731 161.11254208817726 87.48916668854959 0.927675588879734
1.707086971305662 12.937720385941082 152.48061834290942 91.7226309245249 1.052715952130012
1.7139300919042815 12.903074004591002 144.8867124151229 96.29177735462898 1.172829048441965
1.7190416494960046 12.86361505908341 138.04484202007998 101.20310684139777 1.288445825160972
1.7227323732975153 12.819914044572629 131.77473648382372 106.4647296315299 1.4008416750506432
1.7251762705961928 12.771916487801109 125.95547976702781 112.08577773120881 1.509626372701247
1.7265853822794408 12.72000960058207 120.49893785092658 118.07626029115505 1.6156838139580052
1.7271383123849249 12.6643245831661 115.287244718956 124.44796099785478 1.7195515921401636
