M[M_sun], R[km], Lambda[1], P_c[MeV/fm^3], rho_c[fm^-3]
0.23841724892012095 16.20908015294055 2780876.1263280716 3.453507347168396 0.169602847481901
0.24840645869893455 15.866499581216111 2282590.2550697834 3.635417161566766 0.17197679462103677
0.2586809112599149 15.563345921013372 1882118.3111182721 3.8244959387870554 0.17437160506608249
0.2692352653743019 15.29409596042228 1558773.9451767488 4.019830134323221 0.17676114833061957
0.2800787602388709 15.054645626421559 1296183.3695938247 4.221779944389832 0.17913817474558005
0.29119867802874544 14.840637149496864 1081974.1847303216 4.43169989577536 0.18153901683259138
0.30261064378177693 14.649333232296806 906314.8087305762 4.649937105891801 0.1839675663669067
0.31430061616107 14.477944293134568 761755.821138302 4.8768329325720225 0.18642496697615968
0.32627636287251044 14.324140081206982 642286.7611513018 5.109719025080932 0.18885191545062815
0.33853495689456997 14.18589384317073 543127.6843768428 5.351822048379957 0.19130130143096996
0.3510727223197595 14.061606941495372 460599.586616963 5.603612119526802 0.19378061220675588
0.36389797754800246 13.949845236627024 391709.62729575805 5.865500941279332 0.19629553407953151
0.3770076329438783 13.84904517345966 333886.50154059206 6.134292075290625 0.19878458669899088
0.39040067070793 13.7585234859316 285333.702580492 6.4135804649968575 0.20130529800845118
0.40407167100249475 13.67679469563159 244394.88281874405 6.704094606881601 0.20386076310808535
0.4180298530232858 13.603339729844947 209795.7954480462 7.005806442601253 0.2064402543906533
0.4322739011814647 13.537329918755143 180480.19362197115 7.315578986756509 0.20899825848798378
0.446796786283759 13.477942629124035 155565.08952812027 7.637879629647936 0.21160074822816896
0.46160536300332283 13.424652169194507 134344.65537139084 7.973241658221942 0.21424782127220884
0.4766904091543104 13.376948869913631 116251.14649587551 8.319563796176906 0.216899351680488
0.49207089280386773 13.334175073134691 100752.90260100395 8.677127584138718 0.2195508322957425
0.5077239952154965 13.296203647389705 87484.19457489999 9.049274940831921 0.22225029368496252
0.5236570802121772 13.262200599067016 76076.16617002235 9.436609183969983 0.2250007368659087
0.5398735074365831 13.232128641780884 66264.7899125499 9.83349499969278 0.22772231191094558
0.5563568553605311 13.20552097858484 57810.30363241373 10.246529605479356 0.23049348560464317
0.5731253276178175 13.182155335552235 50507.13234961668 10.676467994267602 0.23331535848043983
0.590169553453603 13.161858820158887 44191.45160117378 11.120043172037036 0.23613757439726762
0.6074826693601942 13.144027657795922 38715.8771224229 11.578631205531773 0.23898085393001478
0.6250633822292371 13.128769231310027 33966.27223305946 12.05603781205385 0.2418834641406953
0.6429136861588712 13.115608534971802 29835.724298784466 12.551587178436877 0.2448300241949037
0.6610254904373898 13.104584404888591 26242.244804613383 13.060947784304378 0.2477599098657795
0.6794080501692764 13.095517479404492 23108.269870911823 13.591237294237496 0.2507484333600883
0.6980315344346091 13.087956395229984 20374.34234994419 14.143359039499435 0.2537971281405693
0.7169308402012614 13.08204932042502 17852.78344865935 14.710836772920583 0.2568373431400534
0.7360688197632043 13.077541776048827 15892.619031195913 15.300183517805491 0.25993054487780837
0.7554552935184652 13.074301610620703 14059.987516115727 15.913748468347256 0.26308988242235254
0.7750818092544812 13.072101344853325 12451.234897785065 16.548044658423144 0.26626867896168355
0.7949511676634218 13.071014534257214 10964.678583668581 17.20332263230632 0.2694665556593881
0.8150483402294966 13.070715801448127 9795.317433883964 17.885603917227787 0.2727360956467412
0.8353684992250986 13.071285459917991 8701.990755093528 18.594907827077325 0.2760702977009512
0.8559003846681936 13.0725847539993 7738.106714526947 19.32402209752554 0.27939994404645463
0.8766572483806233 13.07442197656258 6886.971866561581 20.08311660400949 0.282800690415927
0.8976189670495281 13.076842018845475 6135.62519580405 20.873439979177068 0.2862737832554655
0.9187739095754905 13.079655135609588 5471.503115596172 21.688830450310974 0.2897627133334398
0.9401287158605417 13.082851368395254 4883.563005520507 22.534067528763575 0.293304934045213
0.9616478403940262 13.086195892633317 4362.485517965841 23.414046441958668 0.2969304341090095
0.9833489272931053 13.089809133100054 3900.457360932246 24.32831891912775 0.30062667140628596
1.0052285055803714 13.093692152393087 3490.6825868586748 25.270225978020683 0.30432487960029775
1.0272557008788108 13.097504144047623 3126.4190075595825 26.250894557638954 0.3081091322887345
1.04942944595565 13.101359954586183 2788.0366395455044 27.271816210066845 0.3119814609518038
1.0717331713461506 13.10518972128679 2514.397295317104 28.328225632433508 0.3159018276050169
1.0941598584174195 13.108826689928199 2257.729806547625 29.42229130313809 0.3198781733433862
1.1167089337975333 13.112401758008179 2028.9003639826328 30.56126352323331 0.32394398523607126
1.1393658771517976 13.11575847630907 1824.8208239509347 31.746987806896257 0.3280990370551031
1.1621008007732976 13.1187604002346 1642.544800342695 32.97254888096486 0.33229682818117706
1.1849156371949643 13.121429361829964 1479.6183464330122 34.244980101718795 0.336576172031494
1.207794772220273 13.123774191232704 1333.9664391571678 35.56975688897055 0.3409609397424313
1.2307336148103725 13.125708835599891 1203.5231334210273 36.94889464139398 0.34545072621205125
1.253703032489558 13.127162544613466 1086.7832400114733 38.37713958362661 0.34999199221970717
1.2767169191461585 13.128160167483443 981.9837351781877 39.85970618768393 0.3546205758148281
1.2997208978663732 13.12860965287033 888.1156921391471 41.40353614437406 0.3593659631694955
1.3227118099372734 13.128341575090628 803.8049716829545 43.01107688196097 0.3642303656673712
1.3457111589848954 13.127516360237381 727.9654003854581 44.683787732706236 0.3692099213240793
1.3686489325428126 13.125972994093527 659.8906820456718 46.415391723555224 0.3742453892164539
1.3915510328218972 13.123790043402883 598.5682754288191 48.21917701092429 0.37941213905358956
1.4143796000934954 13.120840698965717 543.4050657828664 50.09815560451421 0.3847138001469358
1.437108093515546 13.117026501665427 493.6947000877314 52.05550502240333 0.3901532781073389
1.4597647401990341 13.112518464240276 448.85539292337097 54.09459731937551 0.3957325976312523
1.4822756307060319 13.107097541938911 408.420068436733 56.211564197318644 0.4014088301284938
1.5046645511415313 13.100827254241661 371.9201624073908 58.415758008729924 0.4072292010956602
1.5268971410219423 13.093630138092973 338.9269105822205 60.713481009440336 0.4132096941334863
1.5489337829771017 13.08531704118349 309.0861869549139 63.10896468387896 0.4193535794374743
1.5708012523116395 13.076136709355282 282.0952789528488 65.60670626709111 0.42566192319047563
1.59244773627916 13.065939929341656 257.6885829386053 68.21154362180172 0.432139093912396
1.613865642436269 13.054688227266585 235.53868644623975 70.9285010132504 0.4388006329990527
1.635030814892185 13.042386877788058 215.47160897587497 73.76229034193626 0.4456509020561568
1.6559288046583074 13.029007444650285 197.28350842161814 76.71477329073038 0.45267603875799256
1.6765258074127145 13.014332676381752 180.75585230547745 79.7973849519603 0.45990200616872307
1.6968432727568366 12.99870364697453 165.75299015219792 83.01675788833948 0.46734773647834593
1.7168157350643687 12.98174746470095 152.1071833371778 86.3799157171405 0.4750242942697437
1.73644350555116 12.963724638692485 139.71635627561207 89.89434101911473 0.48293682871622945
1.7556912783486087 12.944375882990263 128.43238194080186 93.56804600677303 0.4910926929774229
1.7745495845653998 12.923758211942285 118.15610769974757 97.40963731750041 0.4995101645473351
1.7930042196426863 12.901838974702219 108.78421029744246 101.42829758855528 0.5082057021319125
1.8110250602194355 12.878622726962407 100.24592969208695 105.6338538552862 0.5171869936262412
1.8286203561554553 12.854306018862479 92.46596624072717 110.03685924111329 0.5264661272292276
1.845707538701691 12.828351533082865 85.35106111211546 114.64865262145975 0.5360661382332655
1.8623032339360357 12.801138583934788 78.85876953484727 119.48140153906384 0.54600713085097
1.8784279616798538 12.772587011184799 72.91796383049511 124.5481440177996 0.5562977850609099
1.8940049303209847 12.74263757865906 67.48927144782319 129.85795934298113 0.5669422526963726
1.9090373191467527 12.711261015663945 62.52204905006488 135.42721688717955 0.5779753225642192
1.9234799845656116 12.678300060535566 57.96456532596548 141.274503308593 0.5894247208587753
1.937368880109012 12.644144997608972 53.797330934860035 147.4172962985755 0.6013073633098702
1.9506347569837332 12.608286623973482 49.970002372488416 153.874409065912 0.613658536915897
1.963265134246131 12.57115115756177 46.46893163937822 160.6661784134278 0.6265103781858292
1.9752678156438428 12.532513754129695 43.250167467349264 167.80437460406804 0.639844895001083
1.9866178564123995 12.492393488604245 40.295393651942796 175.31577271667769 0.6537166010425878
1.9972843753038552 12.450763219416752 37.58090676049687 183.23127135465634 0.6681838113775768
2.007246612167602 12.40762609572205 35.08506075275161 191.57849835078414 0.6832709407623531
2.016489487926925 12.362913727157808 32.78870440124657 200.36613671413417 0.6989577931706051
2.0250205100316006 12.316714475557426 30.67514925470432 209.64537423691095 0.7153573939351416
2.032826018835976 12.269116050821024 28.73032565428501 219.44767767177046 0.7324897732875155
2.039849395260797 12.219829820216376 26.936455579603123 229.79250360849372 0.7503583493335654
2.0461117893670773 12.169209732516583 25.277171079072236 240.7411105522306 0.7690855056611321
2.0507142471853435 12.119148656888237 23.878201718550493 252.7314859680597 1.078002184608548
2.0520718102101556 12.06984898380266 22.804587875754027 266.264459307393 1.4128399815441632
