M[M_sun], R[km], Lambda[1], P_c[MeV/fm^3], rho_c[fm^-3]
0.23841724892012095 16.20908015294055 2780876.1263280716 3.453507347168396 0.169602847481901
0.24841147567977076 15.866354852724651 2282169.7661055466 3.6354797413906152 0.171977590660064
0.2586873940442227 15.563156724298867 1881903.0990048554 3.8246246598107008 0.17437317972357763
0.2692468425920045 15.293885920946266 1558489.5315326652 4.020037504913027 0.1767636851163307
0.28009496987829585 15.054268620924201 1295930.1007313542 4.222063904361697 0.17914149521689712
0.29121834026066346 14.840250831409644 1081618.475018929 4.432064353591647 0.18154311771916495
0.30263395520921077 14.648987688221148 906042.7738462853 4.650386176060016 0.1839724300319688
0.3143283067383658 14.477593565343836 761474.2641429522 4.877394400368137 0.18643104796638518
0.32631008078095636 14.323708997770058 641952.9979504367 5.110377251988719 0.188858774247188
0.338572369268033 14.185515802704959 542875.8403113397 5.352581585633625 0.19130888017876632
0.3511167465506929 14.061194289412432 460334.0801275802 5.604477718670537 0.1937889315184616
0.3639466268236699 13.949442028672703 391438.832154352 5.8664777009726805 0.19630457904406226
0.37706195756973543 13.848748127380894 333678.29007393133 6.1354307739466005 0.19879513124646214
0.39045877505236404 13.758071468770444 285129.8989223046 6.414844987185141 0.20131656859711444
0.4041394048853373 13.676477977320026 244211.2384100318 6.705490609636628 0.20387269826113774
0.41810267235818027 13.603030623041164 207041.7914739602 7.007403574608103 0.20645390910220598
0.4323497839119098 13.537012296519134 180324.60573141664 7.317324124548622 0.2090126442107397
0.44688223972039687 13.477598794353185 155422.71170666098 7.639779596446642 0.21161585393374677
0.46169586981545735 13.424321419756483 134225.79823394743 7.975303543617438 0.21426360759143415
0.4767969451805315 13.376623137965552 116133.8877840207 8.321884312821114 0.21691711814636097
0.4921777958752538 13.33392643055813 100654.13782738036 8.679629590004225 0.21956924003710934
0.5078339723028349 13.295825261656205 87391.78679829702 9.051966542551794 0.22226940849983215
0.5237488065679167 13.26233900659803 76055.4958056524 9.439499235700906 0.2250205548900309
0.5399994613980227 13.231863247398733 66190.53841872247 9.836712186438548 0.2277443732061989
0.5564946835241271 13.205365355181932 57746.67376809408 10.249969013567046 0.23051621392688795
0.5732713153035048 13.182069116614132 50448.46538793564 10.68013950520829 0.2333387182109543
0.5903180989894362 13.161680179610183 44140.16810164414 11.124106957245667 0.236163429945263
0.6076421597633216 13.14388045159635 38667.58085046887 11.582954453622525 0.23900743980144662
0.6252305547276336 13.128625760119316 33923.624177790436 12.060632843213675 0.2419107864140789
0.6430942370897744 13.115582353072288 29799.02738324407 12.556650043186266 0.244860128229017
0.6612131813396451 13.104556138669619 26002.580170340065 13.066314391027472 0.24779069111596055
0.6796010211601001 13.095417105113217 23078.803847387793 13.596921462456821 0.2507798912298016
0.6982373561023092 13.087885076543632 20347.072410305762 14.149375821717458 0.25382936255342914
0.7171463240709902 13.08205295233636 17959.3934127249 14.717431351627427 0.25687267304979094
0.7362954819555617 13.077488141614383 15869.578985002681 15.30715031844581 0.25996669217332774
0.7556893661137624 13.074270620970399 14039.27177400101 15.92110535575499 0.2631267517092848
0.7753238160458106 13.072102032467724 12432.293090740579 16.556085044601527 0.26630897362553085
0.7951985198592284 13.070972286836833 10948.201132933855 17.211798635101264 0.2695076396449249
0.8153110286890652 13.070745977184712 9779.938886585569 17.894537073618075 0.2727780874473974
0.8356411943599379 13.071311738225837 8688.057539503574 18.604647641398092 0.27611608133257226
0.8561881072387927 13.072546831961377 7724.973108742104 19.334274065820367 0.2794467026324051
0.8769528306065123 13.074499466416613 6875.889174873705 20.093906204136104 0.2828483006615069
0.897918227203577 13.076792621585453 6125.270573533039 20.884793875330722 0.2863223648261301
0.9190860874151721 13.07969061168473 5462.088644711728 21.70117231173968 0.28981552225515417
0.9404384339365255 13.082801503974368 4875.025120294871 22.547041986048185 0.29335888230979473
0.9619787820632313 13.086200475934161 4354.850012138626 23.427687077421556 0.2969855807166298
0.9836905991439837 13.089845398006403 3893.626064024846 24.343123298452916 0.30068652281862873
1.0055803585397705 13.093731533388254 3484.407127667763 25.285777374072943 0.3043858240524073
1.0276096170950595 13.097506297081004 3120.7307047783925 26.267231736116468 0.3081713841678543
1.0498081095954188 13.101503223230937 2797.3775369256196 27.28898172849355 0.31204516269906235
1.0721085347068364 13.10520747263215 2509.8168993604313 28.346816986333543 0.3159708206699448
1.0945576733149283 13.108921246594617 2253.458212863612 29.44181493060572 0.31994877562257484
1.1171037752020698 13.112437594187082 2025.1458729820936 30.581769659658764 0.3240160227450879
1.1397718121302631 13.115761054210447 1821.2555153593091 31.768529721470884 0.32817282240921836
1.16251702293578 13.118767785994354 1639.3123479071903 32.9958419796221 0.3323766116900621
1.1853407859297582 13.121466386414895 1476.7555248838694 34.26944116017413 0.3366579577281439
1.2082358529639956 13.123817186215764 1331.3183608444529 35.59545270873484 0.3410448524188815
1.2311844092040152 13.125764785769558 1201.121963414977 36.975894289217024 0.3455365746399027
1.2541600525948633 13.127149773929883 1084.5096809644776 38.40629758285047 0.35008470336946246
1.2771957611887668 13.128348361254403 980.0580595559057 39.8903359061069 0.3547157918206222
1.3001793236354882 13.128509453264396 886.3024987280761 41.43572386708087 0.35946386102857697
1.323192891665555 13.128265046682444 802.0709201819736 43.044914535402825 0.3643310982467833
1.346194714994209 13.127494553852097 726.4532950810637 44.720297357539074 0.36931860819532164
1.3691486810255604 13.125964291822562 658.4976952950938 46.45376881088696 0.37435691960189604
1.3920461145623413 13.12373065766825 597.3178785553553 48.25953141450304 0.37952707721809453
1.4148792874274894 13.120751406892685 542.2534334499737 50.14060708806837 0.3848323631867047
1.437630110661804 13.116959673753671 492.6179953248266 52.10018100412515 0.39027564072819904
1.4602644150690456 13.112363919284444 447.88986007205295 54.14163160679239 0.39585871087067137
1.4828099244504216 13.107003556092677 407.5331672845859 56.26225118480464 0.40154473736849505
1.5051824818796915 13.100618253847527 371.09059767845577 58.46912631937812 0.4073697429431211
1.5274174426371157 13.093420531606903 338.18976708943507 60.76969814733179 0.41335516637250663
1.5494548582675398 13.085047607600469 308.40346090851847 63.16820904561368 0.4195041948436443
1.5713257165265533 13.075881572322958 281.46831684226044 65.66916650943453 0.4258177729767421
1.5929831625450888 13.065685348451009 257.09344595729704 68.2774224139763 0.4323008538881261
1.6144089313982763 13.054456028833709 235.0098867900995 70.99801755506178 0.43896867901803754
1.635583797375569 13.04211796486272 214.98909904592 73.83637872089096 0.44582851320296585
1.6564686918259224 13.028564696751008 196.82430977206525 76.79380389708885 0.45286404776215733
1.6770707965975016 13.013967925978998 180.34397493549338 79.88084494507515 0.46009731687787003
1.6973612064153019 12.99822429873106 165.38375900224568 83.10493673774337 0.46755115582608286
1.7173401948315286 12.981428347136482 151.78222407187752 86.47312625200705 0.4752363460252252
1.736959296197156 12.963112765586251 139.39005205286637 89.99291781976645 0.4831578598841668
1.756214774723652 12.943772368046092 128.1290399130064 93.67234676939603 0.4913232018084835
1.7750636932684463 12.923091483789678 117.87651514831752 97.52004799023885 0.4997510744879747
1.7935184574128242 12.901234281056432 108.53424585306719 101.54523517708702 0.508457694692406
1.8115357103208596 12.87800233196684 100.0161193332498 105.75776555466707 0.5174505220081996
1.8291160149234695 12.853533280058995 92.24792706359798 110.16822517738844 0.5267419650948809
1.846183110510163 12.82751727672414 85.15347253181083 114.78799191189078 0.536355379448104
1.86280751923928 12.800354488664006 78.67349611975348 119.62927554676826 0.5463106729966475
1.8789189212077557 12.771796639907496 72.7484694253577 124.70515654129068 0.556616236964775
1.8944728760320404 12.741664825764609 67.32546800707368 130.02246765324728 0.5672687490799885
1.909480915998454 12.71016092102958 62.36737895660951 135.6021327094532 0.5783189815182358
1.923916787801281 12.677341820584674 57.83406974801064 141.46058250502028 0.5897863017035294
1.9377749900303831 12.642909878646101 53.67038160165115 147.61469083418388 0.6016814241596696
1.9501308507634576 12.608086043628294 50.04801009786657 154.28660835938817 0.8417915294227444
1.9568984029788137 12.573257192124537 47.56806813528232 162.0169083648754 1.2206993485418371
1.9584311644542867 12.534613272344895 45.8789088575004 171.03365739844457 1.5720593067539197
