M[M_sun], R[km], Lambda[1], P_c[MeV/fm^3], rho_c[fm^-3]
0.23841724892012095 16.20908015294055 2780876.1263280716 3.453507347168396 0.169602847481901
0.24841154188597783 15.866333341490549 2282472.977991063 3.6354911166040673 0.17197773535708125
0.25868792435350807 15.563129264383887 1881832.1297153775 3.8246480579225635 0.1743734659550818
0.2692483706327542 15.293826586905567 1558546.5965528232 4.0200752000201705 0.1767641462444457
0.2800977948898798 15.054202868278173 1295879.2891387572 4.222115522323963 0.17914209880888238
0.29122129333345975 14.840220236978194 1081596.7093407088 4.432130605246943 0.18154386318410368
0.30263787891763444 14.648970194704344 905944.9611646394 4.650467809714616 0.18397331416719284
0.3143361218249824 14.477428167713134 761357.5974353742 4.877494175492112 0.18643210705229082
0.32631640637505593 14.323640335388632 631254.3680858931 5.110496910258622 0.18886002109948205
0.3385799170816694 14.185408719940531 542804.4634029471 5.352719662658025 0.19131025792678244
0.35112566567117753 14.061106895421801 460329.3630687616 5.604635078641904 0.1937904439121155
0.36395584064303405 13.949381261517074 391407.5469252787 5.866655271204908 0.19630622337527612
0.37707196680078287 13.848590508993162 333632.5133460436 6.13563778714344 0.19879704822464578
0.39046866373250305 13.758035626596039 285097.46253754373 6.415074877422088 0.20131861759105252
0.40414979488204117 13.676383559292026 244201.77027243513 6.705744405815379 0.2038748680965672
0.41811580269827003 13.602991578936662 209609.4708219734 7.007693941149466 0.20645639159667095
0.4323652091697997 13.536944457208115 180307.70735315754 7.3176414026413426 0.20901525963440368
0.4468988732279791 13.477630192066309 155414.59455348688 7.640125027106919 0.2116186002837647
0.46171469235586066 13.424207745261562 132701.9795233906 7.97567841631314 0.21426647771217708
0.4768133685997641 13.376588159543948 116120.69140924882 8.322306214329663 0.21692034833166135
0.49219455150279046 13.333919771538673 99586.63197029295 8.680084493235036 0.21957258684821604
0.5078529593350956 13.295798249023493 87374.99684568819 9.052455921989864 0.22227288390159408
0.523800458150325 13.261969632552297 75985.10959380787 9.440024701785598 0.2250241581817749
0.5400206892299805 13.231874765802953 66182.5857704362 9.837297141627918 0.22774838443407044
0.556518663371671 13.205398590000645 57204.10206971057 10.250594379336974 0.23052034647364522
0.57329488322926 13.181949416622118 50440.19426754275 10.680807078916462 0.23334296560178971
0.5903462951407327 13.1615652513661 44128.610585021575 11.124845868979223 0.23616813121927488
0.6076760982054606 13.14391209569791 38660.00013041911 11.58374055019323 0.23901227391272664
0.6252627221589377 13.128578927771862 33916.01318079444 12.061468365587993 0.24191575446977542
0.6431274823540342 13.115562267595724 29790.908725721412 12.557570648633613 0.24486560219270428
0.6612443186643524 13.104521444968773 26203.121459810554 13.067290235947024 0.24779628827039288
0.6796377669113337 13.095348147236379 23072.581396713278 13.597955060618983 0.25078561146802586
0.6982733823143651 13.087884953537941 20341.793504081998 14.150469911174795 0.25383522404716374
0.717185126491415 13.081981071953065 17954.036726647086 14.71863052879889 0.25687909754225824
0.7363375900981162 13.077542363625918 15866.220055096763 15.30841719232163 0.25997326535759685
0.7557326192026127 13.074223287166989 14035.01967211036 15.922443176054882 0.26313345624039514
0.7753677939425648 13.07208569347541 12429.1308870815 16.5575471831242 0.26631630118156635
0.7952459212556926 13.070949061812449 11018.375056062177 17.213340003108208 0.2695151108011334
0.8153569466130185 13.070772676966916 9777.870370693317 17.896161588939098 0.27278572375426846
0.8356885421141803 13.071316524504415 8685.426116979983 18.60641888250176 0.2761244073486062
0.8562362532732591 13.072612103868762 7723.189573892866 19.336138460597844 0.2794552060203343
0.8770061170897037 13.074496316536013 6873.834896293129 20.09586838748492 0.28285695900194713
0.8979707151385524 13.076793005636068 6123.401722266786 20.886858698005312 0.2863311998839216
0.9191436347420919 13.079690762926784 5428.594021960823 21.70341684909161 0.2898251262843347
0.9405072319414453 13.082889215842158 4873.179611255554 22.549401589307585 0.2933686936258409
0.9620385908572289 13.086227627227782 4353.381277285388 23.430167856136748 0.29699561005366265
0.983755532599576 13.089881932838525 3892.5240006346626 24.345815776502153 0.30069740801755596
1.005648403096848 13.093730616476067 3483.1868249720806 25.28860573613542 0.3043969081361569
1.0276800448528354 13.097536991401178 3119.78137144995 26.270203035042123 0.3081827061315461
1.049868396114742 13.101492411498112 2796.6119791663905 27.292103707091215 0.31205674845409936
1.0721817054822684 13.105272878873091 2508.9586302108974 28.35019835709837 0.31598336903699636
1.0946178217580287 13.108899075946654 2252.8332161013573 29.445365892772788 0.3199616167824834
1.117177032218134 13.11244212707949 2024.4554144207993 30.585499353367414 0.32402912505937037
1.1398505961578125 13.115789988734555 1820.6378551622727 31.77244783896417 0.3281862427431309
1.162602193916821 13.118861451141656 1638.8228778149817 33.00007869670245 0.3323911232911075
1.185419991769994 13.121474102509172 1476.2259799724193 34.27389035422565 0.33667283363532097
1.2083158438353316 13.123824270308525 1330.8426485141883 35.60012653483649 0.3410601153395063
1.2312623374955831 13.12574487542143 1200.689246801864 36.98080531479435 0.3455521898000602
1.2542359437342627 13.127164694481815 1084.1783814622054 38.4116013097664 0.35010156716785235
1.2772607796059454 13.128159020155518 979.6456077180501 39.89590738577889 0.35473311140656827
1.3002662856825995 13.128485399369463 885.9130589879753 41.441578800881715 0.35948166860972797
1.323277355472277 13.128270769968504 801.7959261713789 43.05106965154142 0.36434942164282746
1.3462752963075404 13.127433241195638 726.1901414154748 44.72693865687232 0.3693383789283494
1.3692319805617248 13.125928221782566 658.2135645801351 46.46074988237979 0.3743772077907224
1.3921392144180893 13.123734736404234 597.0962409058695 48.266872249833085 0.37954798552211944
1.414963439566313 13.120686189578725 542.0467262340779 50.14832948278404 0.384853931115906
1.4377189831297628 13.116949951662157 492.43065198498687 52.10830814720799 0.3902979000829887
1.4603696687034173 13.112359186955642 447.7026006483948 54.150187850440616 0.39588165276397935
1.4828994397227764 13.10694535503715 407.37643880570914 56.27147212508325 0.4015694615157691
1.5052950789977244 13.100701186684649 370.9423539276688 58.47883515435722 0.40739531050537076
1.5275120578732784 13.093327093683179 338.0340830195328 60.779925363854325 0.4133816311863033
1.5495542420285293 13.085068654991044 308.2839333508382 63.17898711366903 0.41953159564686593
1.571443206399759 13.075949650304317 281.36799279901993 65.68052976712293 0.42584612639350106
1.5930774344643006 13.065610814792487 256.97949277317593 68.2894077506058 0.43233028290007836
1.614497468758605 13.054329353250287 234.908161035803 71.01066486966063 0.4389992520415771
1.6356722666217929 13.041962834882767 214.89427409235907 73.8497305777367 0.44586027645805126
1.6565678497395395 13.028539805977639 196.7434592375377 76.80818267903865 0.4528982540095854
1.6771687522563354 13.01392975864339 180.26951145910954 79.89602981394152 0.4601328520773819
1.6974964021938002 12.99834696213836 165.31198188959925 83.12098038824769 0.4675881668433843
1.7174334107214122 12.981231352444972 151.7154580763684 86.49008563257813 0.47527492821367767
1.737052902260336 12.963016857391043 139.3303414309523 90.01085383989601 0.4831980764407113
1.756311000647272 12.943714840705589 128.08296286331864 93.69132454827961 0.4913651434541299
1.775170587695874 12.923110425835315 117.83138652830989 97.54013779210536 0.4997949093171183
1.793614240258955 12.901101825616205 108.48684363851574 101.56651292229922 0.5085035467880825
1.811623898048286 12.877800771744969 99.97036753560305 105.78031266192762 0.5174984739185027
1.829200724700055 12.853327192415142 92.20291006519655 110.19212906320755 0.5267921576869038
1.8462757173049873 12.827321600346188 85.10776802286675 114.81334709440526 0.5364080118662126
1.8629105345585444 12.800266588590139 78.63928215096217 119.65618423878834 0.5463659086816739
1.878994795944743 12.771557540222405 72.71507801079188 124.73348310246577 0.5566732960792584
1.8945647146519307 12.741538541556151 67.29837810735916 130.0524040723328 0.5673281632977506
1.909556678955723 12.709961819526445 62.34251561712162 135.63396364020738 0.5783815200823643
1.9240092518286152 12.677165543671842 57.80794269969736 141.49444558871795 0.5898521029464651
1.9378545198208135 12.642744274593122 53.64841733753839 147.65140002047957 0.6017576803494519
1.9511110001922884 12.60695754724505 49.83745520520374 154.12372276993676 0.6141336188313288
1.9637330483145852 12.569692490205208 46.33958127897641 160.93183953007826 0.6270119713380577
1.9757114350193838 12.53090030073322 43.13077366662705 168.08440958909335 0.6403635091672857
1.9870283419066153 12.490687227099176 40.18403576298501 175.61457619185526 0.6542652229579499
1.9976695659721342 12.44899788791534 37.47811612636683 183.5502870482748 0.6687646150477146
2.0076125943462197 12.405801116672558 34.98991372849707 191.91634305208996 0.6838758675009874
2.016843617438532 12.361074149170584 32.69926788901106 200.72683217779297 0.6995977811583298
2.0253547619840915 12.31483570297297 30.593564581988133 210.03123223810874 0.7160366938960258
2.033111506326048 12.267112007114383 28.65583903978922 219.85702111119485 0.7331986099372777
2.040118770566401 12.217858248442413 26.86848831637304 230.23101689925917 0.7511120845341772
2.046363868049182 12.16709811162589 25.221811387871245 241.21165787001323 0.7698916254208151
2.051821463233307 12.114830605501536 23.70163112299609 252.8153462927353 0.7894857716834379
2.056474982096604 12.061123957195052 22.304536344290117 265.1157598684649 0.8100607603918335
2.060322839355886 12.005806197006475 21.010814901210356 278.1370700487796 0.8315848563669116
2.06335585004402 11.949172951683547 19.82194023692581 291.95883210603205 0.8541994976548697
2.065562500170973 11.891073864019678 18.72299537493931 306.6168912747327 0.8779120433872761
2.0669302122138564 11.83146036425175 17.707349004585765 322.19532217087686 0.9028434777620304
