M[M_sun], R[km], Lambda[1], P_c[MeV/fm^3], rho_c[fm^-3]
0.23841724892012095 16.20908015294055 2780876.1263280716 3.453507347168396 0.169602847481901
0.24841339996937792 15.866314108573116 2282305.504155519 3.635551929911292 0.17197850892534888
0.2586922088367266 15.563118880990233 1881802.2635984493 3.8247731488591485 0.1743749962053493
0.26925901204179215 15.293608071620424 1558228.5052274852 4.020276728463164 0.1767666115625752
0.28011244787887757 15.053886614573555 1295437.2415606533 4.222391489858889 0.17914532582104944
0.29123967622725566 14.839935046689911 1081265.985584118 4.432484814146584 0.18154784874966398
0.30266239094474356 14.648524080958833 905620.0868820053 4.650904262642249 0.1839780411809329
0.3143633256424398 14.477082926782995 761074.5254719886 4.878017038203081 0.1864375553390759
0.32634774708452235 14.323281028407692 641645.0964970484 5.1111366784698955 0.18886668755440006
0.33861696351707843 14.185017423013974 533929.5229480908 5.353457917806388 0.19131762431934815
0.3511671455444363 14.06078518539338 460058.3062501743 5.605476443409101 0.19379853030615504
0.36400171115268515 13.948957851609194 391175.5403733439 5.867604705862818 0.19631501530522935
0.3771245160241705 13.848271422737652 333431.2058872928 6.136744664696582 0.19880729810317396
0.3905277773517827 13.757626383696232 284906.7909589757 6.416304089476533 0.20132957346321828
0.4042140890918442 13.675998742195718 244006.34854358848 6.707101456221067 0.20388647022574166
0.41818692903057536 13.602570580843748 209439.77180832814 7.009246557880553 0.20646966572399664
0.43244240904427983 13.536604539489884 180160.41282302103 7.319337935483477 0.2090292446911846
0.44698141457790563 13.47726128477776 155277.24197972956 7.641972114607274 0.21163328557193703
0.46180463442852804 13.42403496791008 134091.74817699168 7.977682956222008 0.21428182497976545
0.47691032524883065 13.376273045987224 116007.71009832487 8.324562265322578 0.21693762123210505
0.49230090618586564 13.33358233152029 100539.20174506688 8.682517039226699 0.21959048355984845
0.5079652453325342 13.295536938591267 87290.73485472557 9.05507285062833 0.2222914684143331
0.5239144452522235 13.261689337048352 75908.0541304845 9.442834627945114 0.22504342675880937
0.5401476220435406 13.231677766296539 66113.52746604806 9.840425236360916 0.22776983479643306
0.5566543886001666 13.205168189291271 57675.06368384374 10.253938603491497 0.23054244580071107
0.5734382595747624 13.181901575425858 50385.16895753433 10.684377047567526 0.23336567927661767
0.5904991889923306 13.161545232773042 44077.06884387915 11.128797396279264 0.23619327253421057
0.6078240442976425 13.143666145327684 38615.13627973442 11.587944448080608 0.23903812583850104
0.6254254987871716 13.12845491702384 33875.23243898114 12.065936622438208 0.2419423229370966
0.6432954180851302 13.115392277581387 29754.104734025375 12.562494001890663 0.24489487668486207
0.6614252945746408 13.104429859664354 26168.689960602856 13.072509052049531 0.2478262218378013
0.6798290211246596 13.095258864250251 22865.7000306706 13.60348278778513 0.2508162035466368
0.6984714580848291 13.087768492719867 20314.382291788734 14.156321197508472 0.25386657182951755
0.7173919419447637 13.082011613584545 17931.56454984537 14.725043945271233 0.25691345689031514
0.7365544813141662 13.077435248580821 15843.755498396513 15.315192719404191 0.26000842022887816
0.7559580421106239 13.074191651225586 14014.87589996551 15.929598199723609 0.263169313880458
0.7756023782481468 13.072025991245741 12410.880965584005 16.565367233760984 0.26635549162648864
0.7954900357835922 13.07096680264033 10928.867033619294 17.221583869390326 0.2695550695990828
0.8156154342044271 13.070819676182097 9763.240332759238 17.90485023188054 0.2728265661784274
0.8359528755980505 13.071359720290184 8672.691160431095 18.615892454494517 0.2761689394634872
0.8565112573827827 13.07258986766031 7710.985119936293 19.34611035084228 0.2795006871878208
0.8772921146903331 13.074478827865509 6862.72396063533 20.106363394339297 0.28290326932372334
0.8982621032940189 13.07682832390522 6113.688001397674 20.897902774946783 0.28637845578595705
0.9194471199496883 13.079735033452215 5451.644227482572 21.71542238726165 0.28987649613069244
0.9408186166611774 13.082892315389799 4865.3366867781415 22.562022692412175 0.29342117263090933
0.9623613011224001 13.086326166617546 4346.423905006228 23.443437213996 0.2970492556534757
0.9840980324279581 13.090031123361234 3885.9519392941247 24.36021776282034 0.3007556326281764
1.005986429264824 13.093777875085898 3477.2907431433887 25.303734686399412 0.3044561970631274
1.028035874345749 13.097675662818817 3114.452448631895 26.28609668789746 0.3082432679817875
1.050229004845052 13.101524833386435 2791.574203678479 27.308803493519605 0.312118721856119
1.0725541318996863 13.105290496539402 2504.4607457069806 28.368286016118297 0.3160504928753066
1.0950080674726905 13.108996865552532 2248.6798239204068 29.464360892174234 0.320030307411474
1.1175677201831218 13.112493501367002 2020.7218146785383 30.60545060339986 0.32409921326732366
1.1402472567180388 13.115861703221261 1817.3449153445335 31.793407204868878 0.328258032751858
1.1630099773517835 13.118904809512948 1635.704765325378 33.02274282286483 0.3324687524437443
1.1858412939665963 13.12151114221891 1473.4303347823911 34.29769132535489 0.3367524123260102
1.208742433987426 13.123923002009041 1328.320290597285 35.62512939873766 0.3411417650883025
1.2317092920751058 13.12585883493806 1198.3613982931454 37.007077326819264 0.34563572462775927
1.2546964013400284 13.127278131805394 1081.9998371485815 38.439974711904405 0.3501917836026114
1.2777091168247403 13.128172488375244 977.7582508174343 39.92571346320347 0.3548257670295018
1.3007251671038182 13.128486956535767 884.1583698594598 41.472901585103735 0.35957693578795424
1.3237594986041454 13.128350269200494 800.1558638787816 43.083998670973514 0.3644474492755829
1.3467561540107462 13.127472387174757 724.7134099677156 44.76159463630094 0.36943917177243146
1.3697246241459309 13.125959159609653 656.8745792552621 46.49809882984619 0.3744857502257118
1.392617912816001 13.123644664904605 595.8725402024374 48.30614634012685 0.37965984671818837
1.4154596192141455 13.120645278993953 540.9324423551046 50.18964537323102 0.3849693225498922
1.4382147185270024 13.116887181109396 491.39007055712995 52.15178995543191 0.39041699199342833
1.4608585182149756 13.112219854137578 446.7846242371735 54.195965922278454 0.39600439770710266
1.483404392235889 13.10680436689891 406.5037051687897 56.32080761917946 0.40170174499066624
1.5057865541805506 13.100384660735074 370.1509197546955 58.53078164500795 0.4075321080857418
1.5280265017586026 13.093147662812909 337.3084327736746 60.83464604356596 0.4135232310630835
1.5500881188512936 13.084926469895818 307.613906020858 63.23665579382296 0.4196782052385696
1.5719493178318888 13.075618702186691 280.7435551996534 65.74133026251182 0.4259978348060166
1.5935978722387079 13.065368580383245 256.4225322149314 68.35353753677448 0.43248774833488374
1.6150133980905994 13.054079322766599 234.40129360676707 71.07833753830269 0.43916284076827516
1.6361987928513833 13.04173431335555 214.4232741138142 73.92117399314553 0.446030235996565
1.6570967901170184 13.02823314006396 196.32336784976064 76.88512288024837 0.45308129006708525
1.6777152438983784 13.013673637182148 179.87495542353358 79.9772844308586 0.46032300182769037
1.6979752933560028 12.997624809006707 164.93289406854976 83.20683153854603 0.46778621643366824
1.7179641723513956 12.980865731528567 151.37485687885138 86.58083821450782 0.47548138818454067
1.7375874203884512 12.962684046949482 139.02673610658877 90.10683396638476 0.48341328528616306
1.7568526286773047 12.943348895784727 127.7919854457906 93.79288087919677 0.4915895869820371
1.775694504268673 12.922552108217683 117.56240330536252 97.64764654374557 0.5000294874274902
1.7941062430806005 12.900397404264043 108.23663501795563 101.680380605668 0.508748923911468
1.812143607164048 12.877331339539088 99.75081696595687 105.90097523923681 0.5177550922517197
1.8296913364118987 12.85265292561853 91.99813109906154 110.32005462395422 0.5270607715653522
1.846781055787837 12.826676053965615 84.91933347762274 114.94904176826878 0.5366896875672584
1.8633684599316798 12.799388837349646 78.46116096784439 119.80019537370049 0.5466615214778054
1.8794400613791449 12.77057742110872 72.55056775635086 124.88424317917742 0.556975621552428
1.8949928492140184 12.740474603971709 67.1466918752165 130.2126231921579 0.5676461470100895
1.9100158140378727 12.709118458102749 62.20708574364337 135.8043253047558 0.5787162314348436
1.924432611742057 12.676121637672306 57.67500610579714 141.67568693881253 0.5902042831027093
1.9382789589921339 12.641715748627787 53.52709353844309 147.84431797877895 0.6021287733126773
1.9515143901518992 12.605882802552937 49.72531905302599 154.32918247672623 0.614525134377686
1.9641211192026082 12.568467519819633 46.23471288510801 161.15051830768348 0.6274244294883007
1.9760829005017548 12.529764719837786 43.03711062282378 168.31520060232734 0.6407909253663173
1.9873796170427858 12.48940269646602 40.09506282223315 175.86084518953854 0.654717388278728
1.9980015031187894 12.44769049577759 37.39569472614772 183.81322549199209 0.6692433238265809
2.007925616237249 12.404358381579936 34.912509414417734 192.19442499980622 0.6843732184583219
2.0171355206429937 12.359544190613398 32.62758633023022 201.0241445460758 0.7001253074609146
2.0256330427004943 12.313335131259578 30.526934962150186 210.34929966373295 0.7165966490845
2.0333560702640425 12.265475373208947 28.593443357364038 220.1944581616548 0.7337829304010184
2.0403499056423704 12.216202445905056 26.811548812344387 230.5925167437353 0.7517334457643504
2.0465550262100387 12.165310785234762 25.16782190973034 241.59751831568607 0.7705471044668275
2.0519998013750462 12.113087086779938 23.654338111850752 253.22772064378645 0.7901786186202263
2.056610516434666 12.059174380385807 22.257388938591163 265.55813742684035 0.810798332809698
2.0604367426710324 12.003855091471864 20.968831173101783 278.609192063609 0.8323610116595027
2.0634502856383796 11.947149743187927 19.781748631315242 292.4629890858894 0.8550173836156969
2.065623273477527 11.888911782117434 18.68417975427 307.15938427232726 0.878786159778226
2.0669713427754313 11.829306669223026 17.672414362270953 322.77373853155103 0.9037596130915119
2.0674641189786627 11.76824609360907 16.73729730499939 339.3813957818889 0.9300513166184367
