M[M_sun], R[km], Lambda[1], P_c[MeV/fm^3], rho_c[fm^-3]
0.23841724892012095 16.20908015294055 2780876.1263280716 3.453507347168396 0.169602847481901
0.2484157175489352 15.866204348285448 2282105.747623416 3.6355728600165795 0.17197877516420398
0.2586976112146852 15.562848196947701 1881465.5631348847 3.82481620205429 0.17437552287950475
0.2692635127476808 15.293482375799728 1558055.0007221557 4.02034609069644 0.1767674600778947
0.2801155599663375 15.053884651422793 1295413.796696423 4.222486474032231 0.17914643651359208
0.2912473673600238 14.839770775711639 1081137.8359058583 4.4326067296845775 0.18154922054571423
0.302669565709051 14.64837823846389 905457.9133572512 4.651054487968964 0.1839796681998816
0.3143714526522783 14.47698859080383 760995.2919040959 4.878197007906646 0.1864394306431224
0.326359807143818 14.323129020258634 641534.4685279218 5.111356890848063 0.18886898219152892
0.3386290724344618 14.184950405837192 542499.6920276034 5.353712033425684 0.19132015991346216
0.35118148665845694 14.06059887884851 453029.797814262 5.605766054271147 0.19380131376897633
0.36401799012375635 13.948810459414272 391107.8877285325 5.867931520210269 0.19631804166289027
0.37714269451284266 13.848180443181995 333378.4293781793 6.137125680615276 0.19881082637680533
0.39054679493271677 13.757526458081816 284825.8081364723 6.416727221321937 0.20133334480469733
0.4042368267771668 13.675885149863527 243958.942093172 6.707568599505037 0.20389046407644967
0.4182132330575262 13.602570231725098 209400.81860233683 7.009781031261809 0.20647423521469768
0.43246997545678273 13.536514416824035 180109.197438206 7.319921957446808 0.20903405896893723
0.44701050940237935 13.477174477239574 155232.49279084397 7.6426079714686 0.21163834095845396
0.4618350029007729 13.423857630577018 134044.16997824569 7.978373023575367 0.21428710831100728
0.47694514185532516 13.376126702006278 115962.51326554545 8.32533892997421 0.21694356757429673
0.4923338026807776 13.33353083577757 100511.29110136892 8.683354472958072 0.2195966447218791
0.5080032291693285 13.29547908375647 87260.44165624114 9.055973770027954 0.22229786642909474
0.523954450833881 13.261583334928591 75880.49214020386 9.44380200004559 0.22505006034374392
0.540192980243917 13.231629792703185 66089.9452896143 9.841502164107682 0.227777219640045
0.5566985871617346 13.205001973336497 57649.54516835117 10.255089951328602 0.23055005414609794
0.5734820359658472 13.181766044931075 50364.414632708795 10.685606127122588 0.23337349920897002
0.5905497066817218 13.16135970655759 44059.48789286722 11.130157865694493 0.2362019284253209
0.6078769565553258 13.14364041971184 38271.99252832712 11.58939182050798 0.23904702647442577
0.6254837363021006 13.128419523973722 33861.464011139564 12.0674750269915 0.24195147036359224
0.6433577041813963 13.115411030231746 29742.549641462792 12.564189127237915 0.2449049559806375
0.6614920775904458 13.104449381844807 26159.54087593628 13.074305923621639 0.24783652815541654
0.6798936620244257 13.095253582035541 23031.99846213173 13.605386037675439 0.2508267366949834
0.6985430489927332 13.087811107592943 20306.591082124516 14.158335871104388 0.25387736527659865
0.7174600480874501 13.081895915027628 17922.10193870824 14.72725221114838 0.25692528749202365
0.7366320582976489 13.077522683981053 15723.33654751064 15.31752568909697 0.2600205248590056
0.7560383836237535 13.074166148652129 14008.476418048876 15.932061861862413 0.2631816606055423
0.7756854872890222 13.071999792281805 12404.909733978448 16.568059936538567 0.2663689861963832
0.7955750625395464 13.070953028842547 10996.675198205436 17.224422532244812 0.26956882886585976
0.8156975316236125 13.070756201793415 9757.72927875568 17.907842075125522 0.2728406298396518
0.8360448511386981 13.07136279126288 8668.103033736163 18.61915464736694 0.27618427394850187
0.8565979342605508 13.072551983472355 7707.105242145918 19.3495441695828 0.27951634862025015
0.8773881481760534 13.074530921536555 6859.319608971971 20.109977381446264 0.2829192164220093
0.8983637085099286 13.076829780209614 6110.192838865539 20.901705870913155 0.2863947286470907
0.919553639585668 13.079743499640292 5448.518537172237 21.719556655993983 0.28989418602901884
0.9409186121628752 13.082835453937111 4862.569582261422 22.56636897923691 0.2934392446493704
0.9624735717098005 13.086340961535926 4343.869173761758 23.448006780455596 0.29706772957935895
0.9842130194561632 13.090044154805964 3883.6000233541413 24.36517748023077 0.30077568386337616
1.0061049040814933 13.09382701441919 3475.1901286317334 25.308944802189245 0.3044766150147487
1.0281510669353686 13.097636983319587 3112.3389027440494 26.291570203531936 0.3082641244983584
1.0503623387289651 13.101646565076841 2790.082959633031 27.314554682709943 0.3121400646895326
1.0726791885707585 13.105332097735353 2502.886033220798 28.37451530981455 0.3160736099687013
1.0951467701797784 13.109121439661925 2247.3350210766303 29.47090273167957 0.3200539643256375
1.1177006062980384 13.112499205466014 2019.4281043727744 30.612321840061465 0.32412335173800855
1.1403772228745732 13.115824922058623 1816.2426575481225 31.8006257083699 0.3282827575661339
1.163146623260084 13.118943065829415 1634.69838498408 33.03054863348421 0.3324954889020434
1.185983366167434 13.121533742733233 1465.6596861306475 34.305888761228346 0.33677982050235217
1.2088860466392402 13.123905069312222 1327.4493817595428 35.63374087280692 0.34116988685456495
1.2318521592000236 13.125777838609524 1197.5397204894825 37.016126013003515 0.34566449594685683
1.2548486522564581 13.127247864287508 1081.2629381890022 38.44974739764323 0.35022285696001454
1.2778643939290444 13.128143177274175 977.0278138315418 39.935979714551955 0.35485768085366376
1.3008761370074653 13.128497390430871 883.5922093774521 41.48369035829088 0.3596097494730589
1.3239083695051286 13.128279276616158 799.6171275885479 43.095340816947456 0.36448121413525286
1.3469205432444409 13.12745766557306 724.2268182088561 44.77352228334269 0.3694738355565922
1.3698744900977216 13.125892367736846 656.4037526441515 46.510963846544406 0.37452313816655963
1.3928007711072914 13.123648333139439 595.4295594322435 48.31967463527913 0.37969837826061714
1.415622257090163 13.12058511323006 540.5379206124734 50.20387714967871 0.38500907057600764
1.4383749784261335 13.116812972606093 491.04096307997696 52.16676798785281 0.3904580151837806
1.4610377132283303 13.112217942107792 446.4566740598168 54.21173513262607 0.3960466797593934
1.4835804290213293 13.106754723368416 406.21354735383636 56.33780269724834 0.4017473139674097
1.5059612668412914 13.100351833486863 369.89423917991775 58.54867638341825 0.40757923267270113
1.5282035404592287 13.093049477105959 337.04871297765544 60.85349668865392 0.41357201059279236
1.5502579808011607 13.084745011977848 307.36234073199057 63.2565222531501 0.4197287112234955
1.5721348840050686 13.075581538963542 280.5291803313444 65.76227589285709 0.42605009800401344
1.5937764409955222 13.065299401468463 256.2432310304355 68.37563040499624 0.43254199556239653
1.61522026388846 13.054106191802925 234.23888561097914 71.10165126802572 0.4392191982821209
1.6363831359061347 13.041608925759077 214.26509780278903 73.94578712949973 0.44608878915044486
1.6572767305846907 13.028100154266047 196.16990229742578 76.91163046502022 0.45314434999848907
1.6778878399450576 13.013467987068587 179.7368328448311 80.00527884833187 0.4603885135696017
1.6981702526995683 12.997604476545238 164.8094739387203 83.23641004321844 0.4678544509385203
1.7181397408109447 12.980682040231951 151.2548154285148 86.61210591677249 0.4755525214653934
1.7377143276266553 12.962320624010518 138.9537334311638 90.13990329305358 0.4834874340904272
1.7570029147335098 12.942966217033344 127.68679401778508 93.82787203320011 0.49166691882318503
1.7758584161021382 12.922304061823846 117.47129594198807 97.68468923178942 0.5001103125103961
1.7942914953221965 12.900311906520416 108.1603951309488 101.71961498297192 0.5088334713296276
1.8122940811581445 12.877022858603452 99.66731666575346 105.94255161925325 0.5178435145412063
1.829856188828954 12.85235625161301 91.92448632113887 110.36413440168515 0.5271533288305957
1.8469363717148524 12.826349020296902 84.85155929111681 114.99579945989183 0.5367867474237157
1.8635296961074324 12.799058635995417 78.3965894040952 119.84981971332024 0.5467633857523988
1.8796057436930396 12.770356581172972 72.49229425305099 124.93619354358502 0.5570797997861052
1.895153761928041 12.74026932301684 67.09903462630676 130.26783417421066 0.5677557231521516
1.910161023807976 12.708620879218754 62.145997606810376 135.86303260578987 0.5788315742860749
1.9245976953994717 12.675851121443031 57.63273812337772 141.7381447653804 0.5903256483822544
1.9384210013581102 12.64136613410457 53.48731441968524 147.91080116237947 0.6022566589788148
1.951649144343323 12.60548554915701 49.68590824759257 154.39998938479127 0.6146600611023959
1.964258452810005 12.56817495268281 46.20176445416941 161.22509964899191 0.6275638163454471
1.9762011519827771 12.529288656665507 43.001734422742324 168.39474025560378 0.6409382297860143
1.9874935370089397 12.489015098559152 40.06717142600188 175.9457212396414 0.6548732260284333
1.9981370918993968 12.447287770911426 37.36710908210375 183.90384890072585 0.6694083138551151
2.0080482698536612 12.40394119246288 34.88748583266786 192.29026923347243 0.6845446363506388
2.0172361481652956 12.359063273965603 32.60424291418326 201.12661947936652 0.7003071304472192
2.025731961619185 12.312761924516174 30.501277655160024 210.45893123223215 0.7167896545942005
2.0334504342321282 12.264949528509057 28.572526176435847 220.31076821119908 0.7339843378694477
2.0404325751179617 12.215660148247986 26.790730079842348 230.71712447333232 0.7519476268029721
2.046619631727961 12.164712130180456 25.15060091272236 241.73001413210835 0.7707712959551757
2.0520561758358133 12.112413509855527 23.637175170901266 253.36987182031893 0.7904174525995229
2.056659618837301 12.058531471131124 22.24171042055804 265.7096158210512 0.8110492926560088
2.060485931039578 12.003266000615147 20.954796668828116 278.77194789859857 0.8326285776673554
2.063481513755658 11.946483865358605 19.76837990518613 292.63679267693476 0.8552993424553773
2.06564660584587 11.888191739264448 18.670977857336716 307.3464100906545 0.8790875135911886
2.0669828012625278 11.828556749117476 17.660231712993998 322.97387972210163 0.9040777402806577
2.067465814589873 11.767487052332157 16.725660565013243 339.5958431675421 0.9303878209147335
