M[M_sun], R[km], Lambda[1], P_c[MeV/fm^3], rho_c[fm^-3]
0.23841724892012095 16.20908015294055 2780876.1263280716 3.453507347168396 0.169602847481901
0.24843034711725617 15.865704456714125 2281588.013342835 3.635839142320808 0.17198216237582245
0.25872679534603266 15.5619920151861 1880311.8181017258 3.8253639742803793 0.1743822238333739
0.2693095161405601 15.292415476337265 1556792.9884536064 4.0212286479692 0.17677825649160459
0.2801792353605136 15.052467428844826 1294034.6602907924 4.223695105897155 0.17916056958810264
0.2913294803921039 14.838258386386439 1079722.2619686236 4.43415813088049 0.18156667694272438
0.3027719435977385 14.646879034339868 904182.0771693573 4.652966232476178 0.18400037339391492
0.31449156795287553 14.475312495166728 759622.7745528392 4.880487385713074 0.1864632966310267
0.3264995813579767 14.321447950053987 640285.3446046312 5.11415958200931 0.18889818654077034
0.33879254464546343 14.183143943432613 541238.6460951234 5.356946370511767 0.19135243249120004
0.35136681316114243 14.058861339612188 458894.3494432936 5.609452336826956 0.19383674279387672
0.3642241267233455 13.94711352974173 390087.69094709365 5.872091529012665 0.19635656406745047
0.3773743292288533 13.846434622776782 332437.879334416 6.141975914064166 0.19885574038155984
0.3908057964897226 13.755936208638369 284008.0623834118 6.422113813272872 0.2013813550829973
0.4045182130761119 13.674336258931852 243188.31002230535 6.713515721599799 0.20394130911394454
0.41851592971355506 13.601006425040207 208708.06183868222 7.016585744873801 0.2065324122477618
0.43280491919203906 13.535149002327543 179491.69725753766 7.327357811273544 0.20909535506377191
0.44737038918442357 13.475742463927613 154667.46547746658 7.650704121488645 0.21170270948247236
0.46222736962189065 13.422551513501109 132048.99984924303 7.9871597646585775 0.21435438183648672
0.47736545006344067 13.374984221360215 115515.86808806544 8.335228957401986 0.21701928814075636
0.49278791126123495 13.332457743247376 100095.57959962577 8.694018743376173 0.2196751038232061
0.5084891775144867 13.294405842998325 86888.36298204036 9.067446930111688 0.22237934480286412
0.5244692668968981 13.260607066186022 75549.82370384528 9.456121889673305 0.22513454183146686
0.5407322160364766 13.230679362153118 65792.75250939658 9.855218181297406 0.227871274828268
0.5572788798265234 13.204232967890865 57382.30581385161 10.269754335472621 0.2306469594390579
0.5740974381056322 13.180901990310064 50114.95341612873 10.701261118160325 0.23347310299001717
0.5911965672243802 13.160647941838727 43839.322433924804 11.147487542355561 0.23631218727603542
0.6085661298217465 13.143026062260667 38401.128977832355 11.607829116831704 0.23916040687252552
0.6262058306546439 13.127749528158114 33680.811124818116 12.087072613275277 0.24206799854185257
0.644122958962604 13.115035502123593 29582.38662390991 12.585784632118816 0.24503336387770933
0.6622915099571853 13.103979762954124 26012.140956456034 13.097198435007922 0.24796783275003526
0.6807259997441973 13.09486260433311 22900.854794431572 13.629634649478616 0.2509609356914593
0.6994162907843977 13.087511485580446 20188.53784616338 14.184004950126617 0.2540148852434101
0.7183783170856926 13.081687932799285 17815.205485908034 14.755389815101678 0.25707603237688925
0.737579329353655 13.077198868501654 15739.293219402958 15.347253247704344 0.2601747665118859
0.7570291277732883 13.07403578366211 13921.522498190752 15.963455784894359 0.263338992299239
0.7767162795915273 13.071960543029666 12326.923437287176 16.602374915350765 0.2665409568586733
0.7966463146503157 13.070865890514225 10926.209743524812 17.260598760377746 0.2697441784580376
0.8168131252036571 13.070798526783507 9694.321110853405 17.94597168902715 0.2730198644882018
0.837198201925192 13.071392219247812 8610.32876973331 18.659532718070533 0.27636924956234055
0.8578037398052288 13.072709988131967 7655.038073337326 19.393311155761705 0.2797159671058119
0.8786178034012451 13.074584518921233 6812.012059843013 20.15604226015582 0.28312248254514966
0.8996486360675533 13.076977463848985 6067.517896849632 20.950182749818204 0.28660215373591097
0.920882671779813 13.079931936025012 5409.711066102807 21.77225882239119 0.29011969047140207
0.9422889853543243 13.083074228080317 4827.660625793001 22.621775670845565 0.2936696276852796
0.9638867382322738 13.086535214578522 4311.901503776779 23.506261751169145 0.2973032438279885
0.9856684431823345 13.090315274112987 3854.9107369751696 24.427034238933093 0.30102049082456733
1.0076037589912283 13.094052236900525 3448.935388052684 25.375373054490378 0.30473694106055743
1.0296927172280739 13.097964194706272 3088.8198656094414 26.361359063082507 0.30853005093447045
1.0519408521158438 13.10179746517032 2768.3295049489425 27.387886392718375 0.3124122008371789
1.0743074589430182 13.105597412712655 2483.3886572615147 28.453949436470094 0.3163683923652553
1.0968113107802389 13.109330860179957 2229.50531639982 29.55432516040667 0.3203556405184121
1.119408477483965 13.112767223795844 1993.5301573099964 30.699947764928922 0.32443117926932713
1.1421319917790482 13.11608127456686 1801.4357926814298 31.892683338298102 0.3285980733102258
1.164931735600225 13.119066421486869 1621.2280599710675 33.13010426214775 0.3328364867873362
1.187813753912934 13.121802440967887 1460.329045937562 34.41044285435683 0.3371293977440618
1.210755852211006 13.124100790787152 1316.3672417765624 35.7435797198378 0.3415285783350123
1.2337498200658423 13.125923641452445 1187.4529370503042 37.13154563905632 0.34603148567593695
1.2567823959083155 13.12733410317365 1072.0922800778446 38.57441236237378 0.3506192432869925
1.279825818342217 13.128202298875882 968.679624538998 40.066945661509315 0.35526480357650847
1.3028826310957775 13.128497857615008 875.8055938373753 41.621327257736745 0.3600283674010529
1.3259467619778056 13.128208223337008 792.6145906991458 43.24004287267576 0.364911983111145
1.3489941838304897 13.127362501859054 717.8099517263271 44.92570004455551 0.3699160901815218
1.3719794926900424 13.12570471483562 650.5541949610783 46.67511524005911 0.375000190216688
1.3949071707641152 13.123320823654398 590.0788549280957 48.492296066751344 0.38019004183951044
1.4177738178554733 13.120308967529725 535.6392322117505 50.38548247304585 0.3855162773300227
1.4405691786998227 13.116436681382023 486.5598252676406 52.35790396702124 0.39098151569681566
1.4632320235845544 13.111666804299094 442.34256932694154 54.412976016958574 0.3965862678178195
1.4857914666914516 13.106140507082547 402.4466913519139 56.55439660474863 0.40232743135008153
1.5082018035963392 13.099671498474308 366.4447505609594 58.777073382525586 0.4081807007690153
1.53044872979302 13.092216070065707 333.8910399282333 61.09410518021193 0.4141946295539681
1.5525213946971788 13.083842921615881 304.4827739975904 63.51010831223555 0.4203733964926055
1.5744170808110034 13.074618951666794 277.8735046650289 66.02964976227545 0.4267172449576385
1.5960596374484601 13.064086508681282 253.7966897109821 68.65766263163727 0.4332345025837102
1.6174926942779404 13.05268818348815 231.97264013164275 71.39928354726327 0.43993868055704427
1.638663878456877 13.04019477526285 212.20292299222655 74.26002418879831 0.4468363399957772
1.6595581713341399 13.02650071501376 194.2866353236148 77.24578067021972 0.45393081418643594
1.6801635120373875 13.01173678768374 178.0002236555909 80.36273890613904 0.46122503146010707
1.700458955239505 12.995759230517459 163.21712491333162 83.6141178235478 0.46872578313245533
1.7203923995903165 12.978529800755744 149.77281504288405 87.01140648341385 0.47646092078143953
1.740008790196489 12.960183642321176 137.5556858166546 90.56223546584447 0.48443439699440005
1.759248683507553 12.940745413687402 126.44297947607839 94.2747742893709 0.49265459057243793
1.7780696666886346 12.919666032138391 116.30999736110913 98.1578218455488 0.5011426615312689
1.7964920911272315 12.897567651384847 107.09051885542868 102.22077214840637 0.5099134309808664
1.8144607732936855 12.873990232524244 98.68310107670028 106.47365775882531 0.5189730409887401
1.831986827596379 12.849282601503887 91.01775593071922 110.92725601624782 0.5283357530470144
1.849028291752976 12.823016183232657 84.01145736188334 115.59249819418145 0.5380243481837303
1.865592252410665 12.795636278372413 77.62634672497775 120.47779168183528 0.5480423196880266
1.8816401972144696 12.766580342337882 71.77232086724914 125.59997102331346 0.5584109004661746
1.8971192919199127 12.736198802891725 66.42990012238268 130.97332388591525 0.569155894603534
1.9120642455750507 12.704452179455297 61.54034246979312 136.61325397029884 0.5803055420841665
1.9264394418310995 12.671205823787897 57.06150814041692 142.5363546263261 0.5918766943957438
1.9402105743081006 12.636610699640373 52.959406263090884 148.76052100783116 0.6038911623611843
1.9533844446934958 12.60051076947512 49.19884157568664 155.30504272643083 0.6163846934357687
1.965915602245846 12.562850556886893 45.74672598634475 162.17844015279374 0.6293455372730157
1.9778046296516074 12.523834310314914 42.58255994657622 169.41154612904526 0.6428213156804328
1.9890202053136312 12.48326904960981 39.67723591156933 177.03083916358804 0.6568655705735413
1.9995621200407927 12.44124726622315 37.00517206244101 185.06254767613066 0.6715178542783652
2.0093803605370533 12.397524150149563 34.5471837081511 193.5157892892753 0.6867364851131772
2.0185137226377234 12.352555065878992 32.29273015670635 202.43704556040785 0.7026322413376099
2.0268935793691654 12.305959827220292 30.214529000691194 211.86100862952614 0.7192580007686525
2.0345126567101253 12.257779287939524 28.301834946722582 221.79835376040504 0.7365603047847024
2.041395496119073 12.208121117481715 26.537209994492617 232.31099627353646 0.7546872411005895
2.047496173746361 12.15704441023444 24.915584279609128 243.4249057444813 0.773639162152217
2.0527893387710554 12.104301219958433 23.418748592357982 255.18846784584693 0.7934729498251158
2.0573013624713514 12.050224994739514 22.03986728211392 267.6476922100121 0.8142601753382942
2.0610022841802116 11.994608386953225 20.765480415766287 280.85454480449584 0.8360523083134052
2.0638758802315453 11.937523928110512 19.591138493398386 294.8609471084999 0.8589075533043147
2.065912491284064 11.878967265357003 18.507914740646523 309.7400497339184 0.8829443737819781
2.067113739328377 11.818955530718096 17.50669798988617 325.5356161244928 0.9081496557058791
2.067464376206798 11.757558268668602 16.582677130911613 342.340963353935 0.934695379777056
