M[M_sun], R[km], Lambda[1], P_c[MeV/fm^3], rho_c[fm^-3]
0.23841724892012095 16.20908015294055 2780876.1263280716 3.453507347168396 0.169602847481901
0.24841801548046252 15.866125108176995 2282111.2451864304 3.6356044627718265 0.17197917716320296
0.25870124386891935 15.56272243161593 1881461.131793989 3.8248812095240043 0.17437631812255464
0.2692681350282467 15.293430860680019 1557947.0722938462 4.020450824181052 0.1767687412933626
0.2801250484407255 15.053625131204095 1295196.3882164315 4.222629896744967 0.17914811361970226
0.29125817186431213 14.839690826778762 1080989.6535294773 4.432790819523467 0.18155129192823066
0.3026822257027373 14.648243483801972 905345.0737412889 4.651281327045987 0.18398212498586236
0.31438808120083467 14.476699510566961 760776.5304784379 4.878468763168535 0.1864422623627518
0.326375511474681 14.322950774653126 641392.9749314941 5.111689416385726 0.1888724471440959
0.33864832865752964 14.184658641929465 542310.9940560595 5.354095756900384 0.19132398874927534
0.35120311821453465 14.060428257962213 459868.27671970584 5.606203380460101 0.19380551693034648
0.3640410596305354 13.948628567130413 390984.23994873767 5.868425029456319 0.19632261164428538
0.3771702594958221 13.848027356501959 333257.4709881516 6.137701043873645 0.19881615434058159
0.3905786404650584 13.757296996320854 284740.8713885596 6.417366187929143 0.20133903986474938
0.40426986463129155 13.675766475596143 243867.39420636435 6.708274032745894 0.20389649519183792
0.4182474104371315 13.602361132312842 206723.62434687995 7.010588148890443 0.2064811356827622
0.4325086313096523 13.536341276876101 180038.9805349526 7.320803905901903 0.20904132914898682
0.4470523137614913 13.47696166160173 155161.23029087923 7.6435682043849225 0.211645975300133
0.4618798764625186 13.423717598919012 132496.04981405498 7.979415129456462 0.21429508693879207
0.476993341084366 13.376008782254036 115910.38181882138 8.326511824481223 0.2169525475530801
0.4923854647356751 13.333403782431775 100460.93050364971 8.684619147929522 0.21960594918039716
0.5080608668489391 13.295315657866626 87214.73628607938 9.057334329134196 0.22230752864443776
0.5240141817953115 13.261453580505664 75845.06807645559 9.445262925257612 0.2250600783827924
0.5402543524023021 13.231454653584844 66054.09801353337 9.84312855954422 0.22778837236220864
0.5567672674795765 13.204935434815186 57617.99050626136 10.256828748891271 0.2305615444811542
0.5735590002259755 13.18169054779872 50335.70885601824 10.687462329438674 0.23338530916584735
0.5906263298648422 13.161311294556286 44033.43220456283 11.132212522883133 0.23621500103738763
0.6079576557553704 13.14362397785739 38578.30561388432 11.591577737540879 0.23906046880019044
0.6255707872692581 13.128336782085519 33840.36991278919 12.06979844148185 0.2419652854964348
0.6434491850788938 13.115425449003888 29723.603551710024 12.56674926508491 0.24492017868179494
0.661583694658853 13.104312889416734 26139.524449766388 13.077019745162225 0.24785209382364934
0.6799918190611577 13.095215644572322 23016.054258453383 13.608260540511223 0.2508426450446679
0.6986429702400957 13.087716443852385 20140.070474854616 14.161378677197598 0.25389366685845866
0.7175690876893122 13.08187977133064 17908.670327236272 14.7305874462769 0.2569431557382426
0.7367420728396887 13.077375544561228 15824.288324868516 15.321049290892878 0.260038807092413
0.7561552931790791 13.074191497172762 13998.284029567356 15.935782877430993 0.2632003085993302
0.7758084709851348 13.071996637478486 12394.93205556055 16.572126938661285 0.2663893681133416
0.7956963297193836 13.070914171421412 10988.409571831366 17.22871001495518 0.269589610699222
0.8158334471605622 13.070748908561637 9750.31129865104 17.912360946497145 0.2728618715528311
0.8361820359293053 13.071331702032127 8660.786875766653 18.624081919597415 0.2762074354184506
0.8567441048441313 13.072598004427022 7700.921926931403 19.35473069920226 0.2795400040573352
0.8775375254536798 13.07450817699307 6853.260196325096 20.115436074363615 0.282943303478739
0.8985170331100859 13.07685021950026 6068.7122994323145 20.90745023440196 0.28641930789257425
0.9197095893257794 13.079774681413726 5443.886989024487 21.72580132252621 0.28992090599406933
0.9410889141338312 13.082961465852769 4858.379284471609 22.572933930451324 0.2934665419549387
0.9626405174291094 13.086337817953241 4340.039148737591 23.454909030750652 0.29709563412161827
0.9843871792227619 13.090132099162503 3880.28113713352 24.372669151484637 0.30080597132734227
1.0062855953693164 13.093816448499721 3472.002891985314 25.31681474819548 0.30450745658973466
1.0283384015706172 13.097695091354618 3109.6094727324335 26.299838068035978 0.30829562872060784
1.0505421609979575 13.101560526145027 2787.3474288174234 27.323242031858513 0.312172303699509
1.0728672701777686 13.105360320318754 2500.6850160788085 28.38392498582774 0.3161085295550649
1.0953295361032667 13.109034923009352 2245.2262379648373 29.48078458538614 0.3200896995595457
1.1179196674999892 13.112706747953808 2017.6134618254016 30.622701333027415 0.3241598146192949
1.1405839224688095 13.115850544722258 1814.414546784036 31.811529841045534 0.32832010639545933
1.1633586056335041 13.118917053261963 1632.9975154659874 33.0423401155539 0.332535877080032
1.186202269321283 13.121591893781666 1471.0001076809156 34.318271912818105 0.33682122364446637
1.2091086050320652 13.123874630237815 1326.0588736156308 35.64674956035964 0.3412123682309003
1.232069791170496 13.125804147133682 1196.377401396294 37.02979525314814 0.34570795883881866
1.2550780704491888 13.127291291828477 1080.2406424676458 38.464510560811746 0.3502697981037079
1.278099581898289 13.128220290145242 976.0483392480808 39.95148858982771 0.3549058919778316
1.301119515268415 13.128489589744275 882.6663784884704 41.49998870134344 0.3596593203267026
1.3241460500450861 13.12827882248755 798.782205191261 43.11247524708929 0.3645322222628675
1.3471604639644061 13.127419751992914 723.4723752214393 44.79154135060105 0.36952620205067394
1.3701306648638234 13.125893792765526 655.7410363999542 46.53039930488918 0.3745796209356062
1.3930427800458405 13.12362528504745 594.8180442763442 48.34011227244305 0.3797565891197581
1.4158850947168862 13.120581994982075 539.957856240912 50.225377720092084 0.38506911966667656
1.4386477859593747 13.116788867659317 490.5157617933275 52.189396133317466 0.39051999119589154
1.4613043779491277 13.112174071673921 445.9602054143998 54.235558740764304 0.3961105581035115
1.4838437742746982 13.10666950028514 405.74245678152295 56.36347873328288 0.401816159234503
1.5062266070149213 13.100262479851752 369.46768126069236 58.575711838043674 0.4076504287194535
1.5284729096725873 13.092982957552143 336.6743841038323 60.88197656739151 0.4136457075450453
1.550527094072764 13.084670181905967 307.03845894268454 63.28653709602108 0.4198050171810207
1.5724006446950458 13.075433140059403 280.2111385794958 65.7939214540878 0.4261290594964613
1.59405477862342 13.065226610452783 255.95625185117524 68.40900955887476 0.43262395533948184
1.6154698087075836 13.053784849428707 233.94703175263228 71.13687528889658 0.43930434717367606
1.6366481930105032 13.041471756357577 214.02647869170022 73.98297473182889 0.44617725619382637
1.6575602116350578 13.028023626427672 195.94770901185518 76.95168107683473 0.4532396279672457
1.6781522468813457 13.0132222257526 179.51619266579195 80.04757634261549 0.460487496966261
1.6984424378302672 12.997345820577383 164.61877419346163 83.2811014200247 0.46795754925269484
1.718404891119951 12.980324808140281 151.07172732948877 86.65935005299592 0.4756600007544752
1.738020349768868 12.96222060386325 138.7613890902339 90.18987012733864 0.48359947087461114
1.7572735228834777 12.942651205478917 127.53514394586014 93.88074326119 0.4917837663385262
1.7761309948548125 12.92212201908153 117.33807171818967 97.74066091820043 0.5002324396138395
1.7945638504120804 12.899963808405584 108.02869540106327 101.77889899030258 0.508961224338657
1.8125608546524072 12.876659903665777 99.55110589275867 106.0053751695185 0.5179771241086079
1.8301063277506922 12.851981617278003 91.81705321529637 110.43074147277578 0.5272931881643622
1.8471954683489165 12.826012462657642 84.75384536015784 115.06645386970267 0.5369334122105404
1.8637672584231912 12.798643746149832 78.30567325733534 119.92480677863114 0.5469173122947024
1.8798525102251338 12.769874683356527 72.40629494988565 125.0146958684394 0.5572372237741011
1.895383961001756 12.739725584179872 67.01239221878443 130.35126472383496 0.5679213061107958
1.9103960762915044 12.708293689783407 62.0812161487183 135.94401279448496 0.5789775224928193
1.924805212558128 12.675220081274736 57.56436888527756 141.8253785444522 0.5904819579980464
1.9314399098348725 12.647355569164413 55.04180566559474 149.69515561380825 1.9063213009585165
