M[M_sun], R[km], Lambda[1], P_c[MeV/fm^3], rho_c[fm^-3]
0.23841724892012095 16.20908015294055 2780876.1263280716 3.453507347168396 0.169602847481901
0.24841671073050098 15.866152465770325 2282193.041741194 3.635573648938695 0.17197878519959167
0.2586974801509196 15.56289535607263 1881562.2319951882 3.8248178248725995 0.1743755427316077
0.26926396595287827 15.293478585138935 1557941.5477440385 4.020348705201492 0.17676749206140338
0.2801158789116113 15.05388323081225 1295431.9101803838 4.22249005433209 0.17914647837964423
0.2912461480358518 14.839834517968548 1081232.647770465 4.432611325143593 0.18154927225391015
0.30266975051651385 14.648386264875318 905490.8803641364 4.651060150552627 0.18397972952862768
0.3143721173816863 14.476975043443463 761011.2200148572 4.878203791697743 0.18643950133096954
0.3263593577060279 14.323129274053123 641553.3949577925 5.111365191586729 0.18886906868613607
0.3386293388221128 14.184896324103622 542505.7257342325 5.353721612155362 0.19132025549109982
0.35118212565299206 14.06065273039239 459967.1909237381 5.605776971009559 0.19380141869023268
0.364017216673953 13.948796070558393 391085.29388864466 5.867943839357213 0.19631815574033215
0.37714381340590253 13.848218431613255 333376.64182143024 6.137140042936558 0.19881095937439672
0.3905493216769586 13.757465940813743 284823.04271003685 6.416743171247222 0.20133348696515033
0.4042376223809669 13.675885010133115 243947.02126625116 6.70758620849475 0.2038906146248541
0.4182134164991318 13.60258386767802 209404.7490748884 7.00980117835771 0.20647440746269094
0.43247061467931946 13.53651510739192 180110.29562596517 7.319943972356367 0.2090342404447994
0.44701122756532635 13.477155534734841 155234.6901671983 7.642631940385619 0.21163853152357529
0.4618348252277127 13.423837169768529 132553.2520916444 7.978399036059539 0.21428730746920485
0.4769448708516576 13.37614762576436 115966.9659802796 8.325368206933819 0.2169437917261489
0.4923347930060981 13.333547599248456 100504.96998806456 8.683386040745948 0.2195968769722038
0.508005881994495 13.295453949040189 87257.43889741013 9.056007731059939 0.22229810760847668
0.5239561237770548 13.261616817907383 75879.46026685578 9.443838466179118 0.22505031040387474
0.5401956536932261 13.231616587361538 66087.29434459699 9.84154276025851 0.22777749802104688
0.5566999604883708 13.205092172193558 57649.47902736904 10.255133352958199 0.2305503409530712
0.5734856942272863 13.181753015854772 50361.136709093094 10.685652459080844 0.2333737939928006
0.5905495822349188 13.161329709510632 44056.94902199719 11.13020915084386 0.23620225472348208
0.6078765692727995 13.143675635765577 38599.96287945296 11.58944638175535 0.2390473619995396
0.6254857663151296 13.128418177558155 33861.34109944465 12.067533020007073 0.24195181519281553
0.643360454434973 13.115415030158774 29740.387949188946 12.564253028462907 0.2449053359403544
0.6614927297598491 13.104462699205492 26158.47952895473 13.07437366055428 0.24783691667419155
0.6798962132921808 13.095243571063659 22854.896119448462 13.60545778495029 0.2508271337656431
0.6985462995905803 13.087774925387997 20305.667474444395 14.158411818937708 0.2538777721608312
0.7174634062872216 13.081887288194713 17921.711754161475 14.727335457332313 0.25692573347656567
0.7366344038640654 13.077476637290994 15835.782993279881 15.317613636527797 0.26002098117488665
0.7560425898644764 13.074158953181417 14007.633785418384 15.932154736319818 0.2631821260489872
0.7756868867277334 13.072020835013694 12404.84294781364 16.568161445852187 0.2663694949136984
0.7955813371117147 13.070934013908099 10996.014065581348 17.22452954421422 0.2695693475629756
0.8157033745081627 13.070749204437545 9757.814207617967 17.90795486196907 0.2728411600131363
0.836044656113586 13.071370998437974 8667.75286852786 18.61927762655768 0.2761848520328247
0.8566028489408636 13.072526920298877 7706.716687734468 19.349673619097423 0.27951693903138697
0.8773912672314449 13.07452623839277 6858.979084947974 20.110113623355318 0.28291981760376506
0.898368060871895 13.076838642454744 6110.0722342358185 20.90184924229333 0.28639534211111606
0.9195549042641064 13.079754461441771 5448.424064044168 21.71971251300094 0.28989485291711564
0.940921274287764 13.082862735221852 4862.62279831054 22.566532829474305 0.293439925944608
0.9624761970283909 13.08635568137867 4343.806001115182 23.448179048513975 0.29706842602777933
0.9842154039922096 13.090055764934869 3883.5530852644683 24.36536445766841 0.30077643977914087
1.0061078079019985 13.093842221190826 3475.289496176865 25.309141219934187 0.3044773847573371
1.0281571240605176 13.097641238800081 3112.2224062577757 26.29177655178069 0.3082649107764942
1.0503712544834007 13.101625309109723 2789.8453847468636 27.31477149962838 0.3121408693035382
1.0726849151862055 13.105353107144454 2502.9766934768554 28.37475015242568 0.31607448147658634
1.0951492828027911 13.109132411328895 2247.3943534221635 29.471149357806553 0.3200548561868811
1.117703748600798 13.112515705483045 2019.4153966014726 30.61258088506471 0.3241242617561792
1.140394689515284 13.115891197234292 1816.0845318592462 31.800897846007242 0.3282836896918217
1.1631475218208562 13.11886590345745 1634.6514154385966 33.0308429144051 0.332496496872894
1.1859875858035833 13.12153412008786 1472.408821696868 34.30619780733149 0.33678085379986417
1.208895546543632 13.123883091938474 1327.3703532063273 35.63406552916232 0.34117094705750683
1.2318565706966629 13.125821701263254 1197.5437468048713 37.01646715337704 0.34566558064118086
1.2548550765246784 13.127249138900883 1081.246221314347 38.45011583552093 0.3502240284498343
1.2778712867319697 13.128135211783231 977.0228155234931 39.93636676131541 0.3548588840330846
1.300885942491764 13.128479785312352 883.5440897634995 41.48409710574433 0.3596109865815441
1.3239189968804392 13.128319188824685 799.6193201787818 43.09576842834172 0.36448248710764747
1.3469255698181473 13.127480808524416 724.2335203736233 44.77397197009642 0.369475142423279
1.3698804467590566 13.125865482886347 656.4330849042541 46.51144887645861 0.3745245477465211
1.392806426196724 13.123664922046462 595.4081199872372 48.32018467330414 0.3796998309604274
1.4156297337175214 13.120600836082279 540.5239431785906 50.20441371171778 0.38501056914380904
1.4383838428513969 13.116790765364618 491.03718732043404 52.1673326867922 0.3904595618323277
1.4610419913482162 13.112205588388933 446.45049514275706 54.21232966232675 0.3960482738744657
1.4835874080893412 13.106749434165188 406.1952122237332 56.33844344893526 0.4017490320176947
1.505974307559533 13.100356844840812 369.87168108354757 58.54935105652554 0.4075810093788359
1.5282090227345053 13.093038848438137 337.04255302295144 60.85420740409069 0.4135738497003985
1.5502583979383664 13.084761095253796 307.3719432495073 63.257271269894176 0.41973061542936135
1.5721494253451263 13.075625102410356 280.53291126811865 65.7630655999617 0.4260520684684057
1.5937861685243013 13.065255173123422 256.2195095768859 68.37646336913755 0.432544040837588
1.6152135727592765 13.053951317167549 234.2042759811045 71.10253026543269 0.4392213231291155
1.636390924805177 13.041614301759955 214.25676889387356 73.94671512200209 0.4460909967881473
1.6572848011468806 13.028083823662039 196.15520861502714 76.91262989157072 0.4531467275734458
1.6778870963346872 13.013397889547628 179.71873948888623 80.00633433778636 0.46039098359609176
1.698178950751887 12.997556547757402 164.79881059045124 83.23752526299285 0.46785702363345366
1.7181373580554842 12.980523363597205 151.23996486009085 86.61328483055237 0.47555520346627395
1.7377340572608693 12.96231613932079 138.91610312674072 90.14115014045343 0.4834902298003225
1.7570082817826518 12.942981749800852 127.69079234852416 93.82919134710252 0.4916698345593484
1.7758532962486673 12.922171104515568 117.46071557086054 97.68608590350267 0.5001133599703127
1.7943049201861478 12.900376202185633 108.16620044674774 101.72109429786185 0.5088366591527355
1.8122945175214342 12.876892524619544 99.66299618381497 105.94411924580322 0.517846848480538
1.8298604231646838 12.852278623587553 91.9148300589235 110.36579642632054 0.5271568186951762
1.8469448859817046 12.826393717980912 84.8499342165995 114.99756246390703 0.5367904070765067
1.8635365595865958 12.799044995768574 78.39285275576229 119.85169081424743 0.5467672265760772
1.8796151730309172 12.77036414150832 72.49167536972674 124.93815235228313 0.5570837278669302
1.8951580806706931 12.740227704594293 67.09385986008154 130.26991593708252 0.5677598547856728
1.9101601549420646 12.708632837645949 62.14991348254098 135.86524621178802 0.5788359233810398
1.9246026582966507 12.67580155713741 57.627125755952996 141.74049980142073 0.5903302245838784
1.938424082724813 12.641263716308133 53.48248113749316 147.9133079932984 0.6022614810665157
1.9516531528590724 12.605436902536923 49.684030350415014 154.40265926314555 0.6146651487125113
1.9642640459118947 12.568146443720961 46.19999087361174 161.22791185731828 0.6275690721490218
1.9762063783034882 12.52930202017962 43.003781881658064 168.39773944399457 0.6409437841691084
1.9875042663594629 12.488939359324666 40.063028205653026 175.9489216674538 0.6548791022145632
1.9981322788580547 12.447201390395007 37.364484054932554 183.9072660674098 0.669414535188395
2.008050688226432 12.403933578172639 34.88464656836214 192.29388327875452 0.6845511000887406
2.0172417006911187 12.359063801523654 32.6023351711175 201.13048357881533 0.7003139865834331
2.025733296947552 12.312757538079534 30.501982198978546 210.46306522208425 0.7167969324506558
2.0334544694750734 12.264914294005868 28.571110063740463 220.31515405496293 0.7339919325845464
2.0404354202567707 12.215563332660732 26.788348317593584 230.72182324340363 0.7519557032478073
2.0466252739853092 12.164706626517138 25.148407990267273 241.73501037727112 0.7707797499250402
2.0520567336607427 12.112380338906469 23.634858349499144 253.3752321993929 0.7904264587906499
2.0566600118599623 12.058515317988718 22.2416620248553 265.71532795432904 0.8110587561580281
2.060493078742924 12.003231652686093 20.953486982167217 278.7780853470838 0.8326386674597717
2.063486022078897 11.946479554184965 19.76774894096288 292.64334677398335 0.8553099750642197
2.065644048085376 11.888173964490182 18.67172462066281 307.3534628575776 0.8790988776810412
2.066979558812961 11.828506247597847 17.659705510561594 322.9814271247335 0.9040897369814769
2.067460383176811 11.767458811932011 16.72620159100842 339.6039301222472 0.9304005107173811
