M[M_sun], R[km], Lambda[1], P_c[MeV/fm^3], rho_c[fm^-3]
0.23841724892012095 16.20908015294055 2780876.1263280716 3.453507347168396 0.169602847481901
0.2484157802744268 15.866224422366106 2282132.4469424956 3.6355738896309933 0.17197878826128873
0.2587008567196064 15.562716507154184 1881483.9892553284 3.8248183199784593 0.17437554878828854
0.2692629936802648 15.293536581433985 1558034.4864002266 4.020349502861352 0.17676750181925835
0.2801159803332388 15.053867209350866 1295419.6119259347 4.222491146646694 0.17914649115256884
0.2912468968349837 14.839814573364617 1081083.0557401753 4.432612727173617 0.1815492880295798
0.30267019003784734 14.64835796205124 905486.0466066203 4.651061878152341 0.1839797482394372
0.3143715195167792 14.476969576900286 760974.9639650721 4.878205861367407 0.1864395228971544
0.32636009611576555 14.32313425898432 641551.9510535505 5.111367724063111 0.18886909507481767
0.3386298373823978 14.184938824384092 542506.9559388976 5.353724534535106 0.19132028465093226
0.35118132638871186 14.060612095373505 459987.01461292 5.605780301603682 0.1938014507007203
0.364017664744348 13.948867225488705 391096.38745429344 5.867947597813553 0.19631819054429112
0.3771452971006702 13.848188889505034 333353.2456821569 6.137144424747185 0.19881099995072474
0.3905488403832449 13.757482260303778 284833.1879182983 6.4167480374218355 0.20133353033698906
0.404237965375007 13.675883558635073 243958.35277977347 6.707591580835389 0.20389066055578622
0.41821415805483403 13.602490208156508 209396.61651987213 7.00980732505254 0.20647446001397946
0.4324718766816733 13.536496646987374 180108.7521138965 7.319950688905073 0.20903429581143462
0.4470124103982586 13.477155542194728 155233.9041644477 7.6426392530852985 0.21163858966326932
0.4618361879130639 13.423861704190402 134044.9915166698 7.9784069722341835 0.21428736823057726
0.47694470007470974 13.376149749852772 115963.37465607324 8.325377139072533 0.21694386011287561
0.49233485437221086 13.333527654978782 100511.34359176694 8.683395671797221 0.21959694782971192
0.5080050115206096 13.295499022691523 87260.20646054953 9.056018092270124 0.2222981811901708
0.5239558913856696 13.261621286775064 75878.9874920732 9.443849591675106 0.22505038669501704
0.5401952419788473 13.231653876878827 66086.57419700937 9.841555145789261 0.22777758295265713
0.5567009489193638 13.20508446434121 57651.76396895514 10.255146594417726 0.23055042845538307
0.5734852018631347 13.181781834657071 50364.14367609334 10.685666594559939 0.2333738839287936
0.5905516393616983 13.161328500006272 44056.827164001996 11.130224797502372 0.236202354274248
0.6078783213147796 13.143636956961519 38599.91409087253 11.589463027925317 0.23904746436538243
0.6254857566723591 13.128435228564552 33860.59926768509 12.067550713182364 0.24195192039727562
0.6433624009200349 13.11539487077844 29741.49381077798 12.564272524187375 0.24490545186285748
0.661494140857531 13.104467134786228 26158.61114549038 13.074394326523276 0.24783703520800535
0.6798968631617712 13.095245167022991 23031.445090005658 13.605479674443613 0.2508272549085795
0.6985461703320144 13.087780538852728 20305.5172714018 14.158434989989047 0.25387789629782137
0.7174626649179962 13.081899747426538 17921.209441466617 14.727360855056016 0.2569258695427688
0.7366345004881765 13.077406424793868 15835.238436463824 15.317640468566298 0.26002112039311254
0.7560419221942484 13.074179426589353 14007.658586678352 15.932183071556974 0.26318226805197453
0.7756887799094989 13.072017875787184 12404.646747317587 16.56819241552123 0.2663696501192291
0.7955817032405716 13.07097922744094 10996.417418115165 17.224562192702763 0.26956950581328104
0.8157036790684796 13.070746499442052 9757.917254914495 17.907989272329107 0.2728413217648079
0.8360486144956484 13.071369955303586 8667.347426894548 18.61931514653073 0.27618502840175413
0.856601071942959 13.072544222456132 7706.870823018627 19.349713113119467 0.27951711916115046
0.8773931579547888 13.074518656491632 6858.832984581373 20.11015518968801 0.2829200010195807
0.8983687079717388 13.076838973661479 6110.085194842383 20.901892983776477 0.28639552927417666
0.9195576689726547 13.07974229609399 5448.344392985729 21.719760063763527 0.28989505637949553
0.9409171558656669 13.082830583233294 4862.489225701538 22.56658281891529 0.29344013380251904
0.9624780781100604 13.086351703391399 4343.775311153132 23.44823160617316 0.2970686385088339
0.9842177507943948 13.090047932650176 3883.3882108118714 24.365421503061647 0.3007766704032878
1.0061115621884464 13.09379281798277 3475.079535675892 25.309201145500445 0.30447761959997055
1.0281598021680523 13.09763457365224 3112.2466638243595 26.291839507075796 0.308265150664026
1.0503683251421332 13.101636120507747 2789.879992916184 27.31483764884356 0.3121411147852348
1.0726870886869322 13.105348186613275 2502.8555194883356 28.37482180116466 0.31607474736717867
1.0951524473549277 13.109130648915928 2247.3356194314692 29.471224601617926 0.32005512828716504
1.1177058932470314 13.112508145925371 2019.3907781773166 30.612659917793135 0.32412453939604113
1.140396920907405 13.11589161559124 1816.0846168035023 31.800980873212463 0.32828397407655996
1.1631453326019323 13.118811727958404 1634.6085400428065 33.030932697390476 0.3324968043975268
1.185990181792774 13.121532264388836 1472.3475471473587 34.30629209507918 0.3367811690515179
1.208890926397834 13.123859501062107 1327.3791995229517 35.63416457949858 0.34117127051785545
1.2318595847216198 13.125804975021431 1197.4941148662085 37.01657123288299 0.345665911573718
1.2548555927279634 13.127253264954321 1081.2461778567144 38.45022824333519 0.35022438586316784
1.2778716275764592 13.128136535281007 977.0149278932095 39.93648484658587 0.3548592511147417
1.3008870059464372 13.12848218133242 883.5359210713825 41.484221201574776 0.35961136401477334
1.3239161611922299 13.128304615094574 799.6231972209116 43.09589888963381 0.3644828754827601
1.346929523773773 13.12747576696769 724.1928022272095 44.77410916644785 0.3694755411393625
1.3698840129348715 13.125903210965301 656.4096446605422 46.51159685581258 0.3745249777998559
1.3928056166342981 13.123661187465025 595.4110908059637 48.32034028248641 0.37970027416940105
1.4156338505639894 13.120581822744873 540.50741925835 50.20457741322296 0.38501102634686635
1.4383859689065972 13.116788359223277 491.0464435598062 52.16750497270411 0.39046003370457105
1.4610428125059047 13.112193333765687 446.42980324520795 54.212511049434454 0.39604876022850644
1.4835885538019535 13.106752850030475 406.19961759534516 56.33863893813118 0.401749556183726
1.5059859109074403 13.100491352420796 369.8757919082021 58.54955689496012 0.4075815514404737
1.5282131258663991 13.093032133244657 337.037322368632 60.85442423884385 0.41357441080041574
1.5502660196372635 13.084765454361284 307.36646536210804 63.2574997901701 0.41973119639053924
1.5721466235933632 13.075567512547764 280.5146947936137 65.76330653465048 0.4260526696447435
1.5937920067189824 13.06524570992815 256.2162181426263 68.3767175013214 0.43254466483834053
1.61521899966683 13.053957616238677 234.20035356873169 71.10279844212766 0.4392219714068462
1.636393602063755 13.041595524319286 214.2488205583011 73.94699824685071 0.4460916703249363
1.657283837966461 13.028091783465136 196.1421277143007 76.91293481061842 0.4531474529573085
1.6778929920999903 13.013389016716676 179.7155242204106 80.00665636135088 0.46039173718650556
1.6981812645373435 12.997592675569503 164.80279057206462 83.23786550998953 0.4678578085475527
1.7181395238624604 12.980548083616675 151.2397521427758 86.61364451028749 0.4755560217291382
1.7377351899919709 12.962322315113674 138.91242051724996 90.14153054641852 0.48349108275532005
1.7570092577935756 12.942984759085961 127.6825167873008 93.82959386226499 0.49167072413385626
1.7758580946535334 12.922226906465118 117.46318383499198 97.68651202018468 0.5001142897331882
1.7942880422523002 12.90032783778571 108.16626743729707 101.72154562861175 0.5088376317398456
1.8122975459744264 12.876899610816185 99.66192854399925 105.94459752005778 0.5178478656471257
1.829860162596395 12.852295095388818 91.9146122292251 110.36630350103034 0.5271578834339482
1.846950633537923 12.826350320512185 84.84944209150808 114.99810034700641 0.5367915236170073
1.8635350658977505 12.79904827414336 78.39416143776678 119.85226167727595 0.5467683983911329
1.8796141104800048 12.770396610962749 72.4945246709158 124.93874997455224 0.5570849263038057
1.8951622945420383 12.740233515966109 67.09459751793197 130.27055107218942 0.5677611153257341
1.9101669786599624 12.708620354462575 62.147503895649926 135.86592157173072 0.5788372502678159
1.9246023133065624 12.67580801505701 57.63000999534447 141.7412183111455 0.5903316207601208
1.9384238065118549 12.641323801919198 53.48420881063258 147.91407281509427 0.6022629522617796
1.9516552013760629 12.6054526851799 49.68546861240882 154.40347383014492 0.6146667009178015
1.964262676812154 12.56814769444266 46.20019493808605 161.22876984864195 0.6275706756695802
1.976206702500428 12.529280142861449 43.00225821261779 168.3986544823172 0.6409454787853603
1.9875064445589588 12.489030920869512 40.0676009853804 175.94989810328167 0.6548808950119657
1.9981364020700187 12.447160875212116 37.36247399400979 183.9083086296014 0.6694164332892074
2.0080516466296148 12.403866419141547 34.882770622448184 192.29498590794188 0.684553072146569
2.017241496300028 12.359071242875618 32.60358849154694 201.1316624988126 0.7003160783608818
2.025735892491047 12.312750327100215 30.501452621369282 210.46432648490463 0.7167991528938806
2.033452578492519 12.264906609026237 28.57150939967057 220.31649215765918 0.7339942497005446
2.0404345865265348 12.215602757122685 26.79055339685254 230.72325681913043 0.7519581673384307
2.0466175547537984 12.164637221235626 25.148369368431762 241.73653471183727 0.770782329197687
2.05205696307001 12.11237491760805 23.636297849925032 253.37686763038982 0.7904292065448534
2.056659972870316 12.058493108701022 22.241141478331834 265.7170707046717 0.8110616434368406
2.0604929698628363 12.003223479149543 20.95455527975348 278.7799578602411 0.8326417458186532
2.0634892891274603 11.946507674728974 19.76789858192304 292.6453464057162 0.8553132190354161
2.0656463086757815 11.888158914410324 18.670987114763687 307.35561463262115 0.879102344825951
2.0669791466186447 11.828515852662148 17.659463749762384 322.9837298122109 0.9040933971350548
2.0674627499483904 11.767433766907617 16.72601612941759 339.6060379407338 0.9304029014911341
