M[M_sun], R[km], Lambda[1], P_c[MeV/fm^3], rho_c[fm^-3]
0.23841724892012095 16.20908015294055 2780876.1263280716 3.453507347168396 0.169602847481901
0.24842870615976131 15.865862328665026 2281672.304383124 3.6358110090094895 0.17198180450946238
0.2587245352989098 15.562149881069855 1880581.5604530268 3.825306098317801 0.17438151583078287
0.26930425628043914 15.29254946582502 1556888.1900520464 4.021135395139464 0.17677711572016627
0.28017367480160504 15.05269473998554 1294166.0324410158 4.2235673937520515 0.17915907619270655
0.2913209118781886 14.83845135911901 1079935.0885692944 4.433994192460427 0.18156483230437204
0.30276165973898145 14.647017755100595 904219.7488895814 4.652764207804921 0.18399818536094184
0.3144806176549428 14.47544231019979 759756.0857255186 4.880245339038056 0.18646077447813034
0.32648469089791443 14.321630877868504 640374.5606843149 5.113863379576872 0.18889510007894297
0.33877471314072005 14.183404629856412 541402.4055109129 5.356604536263084 0.19134902163077624
0.3513468974009013 14.059089434297114 458982.6335149977 5.60906272209215 0.19383299818940541
0.3642021303535421 13.94729478691708 390214.1091151931 5.871651828419183 0.19635249236353058
0.37734918526868894 13.846639926353161 332531.3571757428 6.1414632329511125 0.198850992865344
0.3907773333153538 13.756093276897298 284106.325682918 6.421544417320663 0.2013762801008235
0.4044892591883202 13.674434735948665 243252.97061266363 6.712887052103403 0.20393593429170165
0.4184850959632421 13.601165304479355 206194.43685781967 7.015866382383229 0.20652626204397875
0.4327672174067549 13.535166505775166 179552.5330667834 7.326571700745096 0.20908887490606237
0.44733324313897704 13.475820383743843 154716.4074352734 7.649848176527197 0.21169590428325136
0.4621863431917451 13.422728023572976 133591.4756225852 7.986230778274299 0.21434726928035233
0.47732084241327266 13.375078497383932 115559.6152298159 8.334183269941583 0.2170112820914891
0.49273865486743756 13.3325093798795 100139.09236887858 8.692891158009504 0.2196668079594414
0.5084361561577837 13.29453163293725 86928.27267162377 9.066233778884257 0.2223707294267667
0.5244148690522084 13.26074505064505 75584.6292052071 9.45481916665276 0.22512560863626851
0.5406745371220739 13.230759388263225 65822.58501755341 9.853767751676719 0.22786132876090084
0.5572166643270312 13.204301885375884 57407.66213576463 10.268203571920447 0.23063671167175592
0.5740317114387674 13.180983309515197 50143.168786739974 10.69960554846611 0.23346256954410632
0.5911265864403495 13.160765388269077 43864.25700002556 11.14565476794202 0.23630052637754273
0.6084859355538467 13.143031935964968 38421.99585614192 11.605879144539866 0.23914841549207308
0.6261291102824128 13.127893276166409 33700.6020463881 12.084999866277188 0.24205567388981716
0.6440329092320332 13.114966494841342 29598.58255621733 12.583500445766909 0.24501978199723992
0.6622069206674044 13.10400702108927 26026.970981030885 13.094776993835092 0.2479539440880957
0.6806396872893453 13.094892321916236 22914.510825595982 13.627069695838049 0.25094674047866256
0.6993251160957437 13.087488648358196 20200.211777553246 14.181289667982133 0.25400033834400365
0.7182815375590808 13.08170061532846 17826.204436950873 14.752413240432228 0.2570600856244016
0.7374811746353016 13.07726075847498 15749.932939520422 15.344108391128517 0.2601584494007927
0.7569254861397815 13.0740494135327 13930.619915645566 15.960134554268782 0.2633223478410441
0.7766110744787061 13.071976229414089 12334.746435685658 16.59874444607115 0.26652276264063646
0.796531232002497 13.070863902260863 10933.242664600086 17.256771270569818 0.26972562625368895
0.8167000093153977 13.070758453231022 9700.480261116825 17.941937420015204 0.2730009007297337
0.837086458734585 13.07152512312247 8616.718006161262 18.655281097769773 0.27634985818816293
0.8576786704462017 13.072679380704164 7660.354024567169 19.388680025897596 0.2796948448122609
0.8784869932113738 13.074573455130398 6817.183678660302 20.1511678519214 0.2831009737060477
0.8995102425106833 13.076976542722425 6072.077844066335 20.945052975649133 0.2865802042233458
0.9207408113588684 13.07991255555667 5413.953287012359 21.76668158786022 0.2900958263449548
0.942146111769079 13.083121085175398 4831.50457949537 22.615912071096176 0.29364524662457375
0.9637381719402892 13.086558708214852 4315.472423536682 23.500096556190464 0.2972783190662854
0.9855130018413516 13.090215597123079 3857.722317267887 24.42055179876058 0.3009950867538769
1.0074513132543679 13.094028739243157 3451.735535728991 25.368342234521894 0.30470938794124774
1.0295345179174125 13.09789875267326 3091.143893594325 26.353972352379124 0.3085019042981077
1.0517703090874402 13.101788060034036 2770.635438693576 27.380124480104758 0.3123833961495916
1.074136217335204 13.105572828310427 2485.3219645441714 28.445541055869008 0.3163371886158206
1.0966349790711525 13.109297463725385 2231.4111292043635 29.545494357642976 0.32032370614539585
1.1192341577522535 13.112759045558528 2004.9683671478926 30.69067173369954 0.3243985928196195
1.1419501819079936 13.116144029867057 1803.0479595124802 31.882937892057523 0.3285646932130491
1.1647461603241562 13.119031644121227 1622.5714620928552 33.119564351925696 0.33280038549256113
1.1876136554165453 13.121716229071168 1461.529917211074 34.399373437895825 0.33709238708328343
1.2105505145495874 13.12403680818923 1317.5357331497971 35.731950449729766 0.3414906016061561
1.2335534981744596 13.125958252484159 1188.5688183716907 37.11932513453315 0.34599262920241025
1.2565768626372595 13.127300424087002 1073.0424157493221 38.561212056305784 0.3505772714238585
1.2796181031055474 13.128205166900475 969.6034944959307 40.05307774454652 0.35522169356016264
1.3026757562991291 13.128506624260176 876.7256955005003 41.60675250324598 0.35998403878314217
1.3257340881443902 13.12825254441481 793.3679333838767 43.22471948244125 0.3648663663361428
1.3487648194531956 13.127394965857722 718.5274979218251 44.90958448511456 0.36986925560701306
1.3717645281257023 13.125787519694175 651.1819192456005 46.65773042460907 0.3749496669669368
1.3946907265501909 13.123386299938913 590.6321375893579 48.47401360566845 0.3801379693930574
1.4175528548563219 13.120338519323402 536.1491997410071 50.36624786780755 0.38546255686904285
1.4403369595414672 13.116529224441312 487.06827432739544 52.33765922539632 0.3909260675667827
1.463010898001715 13.111792891547855 442.7818717763602 54.39166022814259 0.3965291137005576
1.4855570616919729 13.106244969297768 402.86559046652314 56.53173074448089 0.4022672940839137
1.5079664283242527 13.099765496519426 366.81872486712643 58.752878458807 0.4081169850688688
1.530205309205634 13.092312164750112 334.232771989826 61.06861569141782 0.41412867078862636
1.5522809887375382 13.083933605509303 304.7886699140192 63.483242977674806 0.4203050974484724
1.5741595807902846 13.074654223299442 278.1643279256419 66.00132260974765 0.42664656350490376
1.5958216981909943 13.06424444326559 254.0474952608428 68.62778128422948 0.4331611313837851
1.6172353013302665 13.052755177747688 232.21187135709675 71.36774807124009 0.4398624481803408
1.6384285990028342 13.040410017477893 212.4297490562857 74.22672795412866 0.4467571302793
1.6593217589123828 13.026672492379866 194.46425402838952 77.2106102373723 0.45384850933684195
1.6799227102600924 13.011837749318454 178.16641139865345 80.32485806638296 0.46113638379312655
1.7002046282278787 12.995888756955202 163.38130132151315 83.60515923373758 0.5041818693992407
1.7060036112543462 12.979003466683492 157.91548183325 88.45185924753844 2.2204354221271747
1.6927864260563419 12.957197769002272 163.05486486154786 96.28355486352609 4.270323067201501
1.670912647375983 12.93016596596831 173.2126111315976 109.79361982614738 6.213533448282206
1.6415923988119299 12.89158335352267 187.70037510249222 127.10067927075438 7.025010925044276
1.604912140553374 12.835107375048462 206.72964627671044 145.96315669812518 7.088447250069517
1.5640853922127809 12.761301926544458 228.8841093404135 165.5288342811227 7.151845433925939
1.521009387080581 12.672341315099333 253.59792437882678 185.8348996988049 7.217386733890755
1.476697518625895 12.569022603440484 280.3863110256438 206.92093978676 7.285192942844284
1.431845240530939 12.452101714732613 308.78040187696723 228.82986941725073 7.355366975039613
1.3870369874460502 12.322020318144347 338.13592737875575 251.60820381876295 7.428046273180296
1.3426138035655821 12.179007155502088 367.7685663325912 275.30343212867814 7.5033373941411385
1.2991442338943717 12.023956266635443 396.5997864426732 299.96873540031885 7.581412596724295
1.2569735998047578 11.857271956057494 423.4643932640662 325.51226376761366 7.661883660940328
1.2164197098557241 11.67946426165083 446.9850303762257 352.08657462719856 7.745263409523355
1.1778094325631965 11.491409807513623 465.92578982112656 379.7986075528071 7.831833734055847
1.1414303760268503 11.29416854502793 478.8796269737679 408.7153324551988 7.921787322386634
1.1074933711042656 11.08877058045155 484.8942699592399 438.91040755662056 8.015315131409585
1.076152861105319 10.876474299503538 483.3114901905851 470.2496316441181 8.111907529274943
1.0475431754812312 10.658889765767256 473.87978612833666 502.97496078713743 8.21231434246052
1.0217459748793778 10.437704603314947 457.06083844438314 537.2169249222461 8.316907451456231
0.9986799757022248 10.214259937843648 433.82122695420065 572.9340449732069 8.425473760304355
0.9783692023438296 9.990649914330378 405.46981949605816 610.2046473561 8.538201188462065
0.9607182481669271 9.768420589639565 373.3777647664542 649.2879334908956 8.655864322024055
0.9455857034457491 9.54885538158162 339.1561781085609 690.0412700622262 8.777904287758238
0.9328159052977395 9.333785769845159 304.47551062674137 732.7796515031908 8.90526062347542
0.9222190137961341 9.124148404773255 270.46115039856954 777.5045130733978 9.037843816077586
0.913618109758389 8.921060346935382 238.14973795591612 824.3963968211108 9.17613220052414
0.9067984286329318 8.72516109973408 208.1796224620119 873.5390727937279 9.320265470435665
0.9015677447782333 8.536958305871874 180.92961917401735 925.1654459138296 9.470906976359514
0.8977197550733826 8.356828085943295 156.64917407175477 979.2738118657032 9.627871627744886
0.8950850209666846 8.184985309604418 135.28315239173713 1036.2122405778086 9.792160541306407
0.8934793684495175 8.021254544164693 116.29532762910075 1096.0496987444276 9.963825238883778
0.8927374566027819 7.865639036907397 100.5464125543842 1158.972966870845 10.14328279680702
0.8927038661819919 7.717766766995447 86.7226155994787 1225.2714425718939 10.33128755385231
0.8932521909087912 7.577501589592706 74.93047781410876 1295.1572865295066 10.528296435673226
0.8942542838472493 7.444451262616903 64.86724204314362 1368.8582777697625 10.734798723233958
0.895593249731861 7.31817299951034 56.32139798413405 1446.5974304674733 10.951240029589378
0.8971794460795374 7.19813516148444 48.92067348909911 1528.7351184437332 11.178510854762825
0.8989112549857111 7.084286127352604 42.85921917419781 1615.5882774829672 11.417310475147085
0.9007072965239467 6.976070798368031 37.52028303614692 1707.5069393714991 11.668412004994998
0.9025040887795067 6.872914871647271 33.120195250213534 1804.8764863522154 11.93266244439754
0.9042302372059009 6.774739248393083 29.299681954316817 1908.1216259209389 12.2109877363289
0.9058324088917895 6.68107756435808 26.035595976944297 2017.6454585781078 12.50418377071136
0.90726386672153 6.591693563055625 23.230739633584562 2134.005105954919 12.81353424062307
0.9084845836085875 6.506063889455548 20.81140267389339 2257.773401770224 13.140283246178877
0.9094413993570125 6.423852386784552 18.72850969058868 2389.576143294485 13.485784235982404
