M[M_sun], R[km], Lambda[1], P_c[MeV/fm^3], rho_c[fm^-3]
0.23841724892012095 16.20908015294055 2780876.1263280716 3.453507347168396 0.169602847481901
0.24838946760379077 15.867124566711157 2283366.843484904 3.635105010606203 0.1719728239427621
0.2586428312604127 15.564367651888599 1883385.2625071781 3.8238539183306943 0.17436375116393812
0.26918244871897806 15.29548928595378 1560304.7750570064 4.0187959126033626 0.1767484965901604
0.2800044838850804 15.056092200639615 1297852.2667412467 4.220363845244376 0.17912161566310184
0.29110599648058966 14.842265080929556 1083568.8194381837 4.429882478065772 0.18151856721249607
0.30249118363363997 14.651122462774287 907940.1201082744 4.647697902833668 0.18394331462530436
0.31415752468510566 14.479891073907446 763341.7701825543 4.874033497307761 0.18639464762641839
0.32611097079108237 14.326142246862574 643783.5398501515 5.106437363145176 0.1888177201733927
0.33834635675648667 14.187918953145434 544511.1034239845 5.3480355246637155 0.19126351907318337
0.3508576211830295 14.063690646666492 461905.36097191856 5.599297102318679 0.19373914038526696
0.36365242233074907 13.951728248442864 392876.58447729296 5.860632071025289 0.19625044749472204
0.37673536690480974 13.850959896743872 334976.5174411437 6.12861643479157 0.1987320292814881
0.39009890431639477 13.760337471076156 286322.86462667905 6.407278036012708 0.20124912494536215
0.4037414417801675 13.678693403577727 245297.7492500454 6.697137257311888 0.20380128111089404
0.4176706984652256 13.60522966317575 210624.18172994678 6.9978473577347575 0.20637220803781012
0.4318803069022435 13.539059051659203 181219.77776633945 7.306882802609262 0.20892657309171186
0.44637247468841224 13.479569347371735 156228.21362516994 7.628412415879329 0.21152547904771368
0.46114702195376955 13.426242415137287 134948.2979564633 7.962968160466168 0.21416916475934578
0.4762080562707451 13.378524264410993 116790.1981669783 8.308002606693849 0.21681083627211353
0.4915415432999674 13.335584816353817 101238.08865488149 8.664662812044206 0.21945912655513022
0.5071521170848283 13.297368898349493 87922.26793253935 9.035866279213886 0.22215507005563218
0.5230506043832754 13.263335620732903 76475.65046963014 9.421686040751624 0.22489502718241794
0.539229878218953 13.233239337237807 66624.98117643439 9.81747018028773 0.22761242451546237
0.5556672863852015 13.206577989570153 57597.84466126139 10.229398713747578 0.23038028111779735
0.5724047597277959 13.18314198943586 50798.58787862047 10.65818190487794 0.2331990145209073
0.5894077600432552 13.162619914677661 44450.17132731813 11.099805097839898 0.236008811071483
0.6066782304263539 13.144773580372057 38950.850219691114 11.557101964398578 0.23884845957633039
0.6242195427118179 13.129496919103042 34179.91655071703 12.033156159862779 0.24174740875066908
0.6420269134309678 13.116233176382062 30024.834112230776 12.52637810923551 0.2446801298728613
0.6601002984131399 13.105185716886098 26414.014472896346 13.034227509852007 0.24760665036769
0.6784278535694146 13.095937254168787 23264.78861105915 13.562937128751141 0.25059181186607465
0.6970104532157914 13.088272033794489 20514.15157662991 14.113404169473576 0.25363664740309405
0.71586113556214 13.082345293194928 18110.475293739048 14.678008280307697 0.25666146720735306
0.7349533594935328 13.077709657733886 16006.204350022736 15.265503562110611 0.25975060767681435
0.754296491792781 13.074422458577406 14161.79572370037 15.877128272618354 0.2629063590885
0.7738653774787643 13.072147324829285 12543.851858983084 16.508025931257986 0.26606812377404193
0.7936926722720656 13.071015118123489 11047.802608221355 17.161137536342377 0.26926208051769895
0.8137323629052494 13.07070561938507 9871.675060135502 17.841145444550715 0.27252711113549216
0.8340026679645309 13.071226119953543 8770.350859183118 18.546439377430268 0.27584246362005366
0.8544989015211506 13.0724658987973 7799.568512356086 19.27300715634389 0.2791672680916133
0.8751967282436757 13.074311997156205 6943.329574511365 20.029428607106375 0.2825637864818371
0.8961125459159686 13.076639728384988 6186.331300500025 20.81694647459208 0.2860320562616699
0.9172189939155895 13.07939849791019 5516.976391862071 21.62742709324863 0.28949997783808196
0.9385124249414215 13.082555266169033 4925.197193914773 22.469519593686947 0.29303654138698215
0.9599953471368852 13.085974470466772 4400.042040769125 23.346187145890664 0.2966560913202272
0.9816458030844297 13.089577943627296 3934.892753064382 24.254677573049666 0.30032895284120537
1.0034648977747826 13.093341274673758 3521.8557153576435 25.192872044052578 0.3040217368401002
1.0254466018653663 13.097192452895722 3154.6014061591454 26.169635551955988 0.3077994995203752
1.0475714155863223 13.101057012337431 2828.076571563068 27.186440833926767 0.31166463040245557
1.069828475937665 13.104863065082819 2537.6728122926274 28.235768098865247 0.3155587149597062
1.0922083562113545 13.108560010164878 2278.8853317217386 29.325201686193203 0.3195270732082692
1.114676151636719 13.112080586786462 2048.9886785331337 30.459292464009845 0.3235857636312872
1.1373137995050362 13.115423193283146 1842.286589777238 31.639870903170827 0.3277321402945701
1.160002452700826 13.11846798080909 1658.4137109567814 32.85673643627221 0.33190014745844015
1.1827866479971845 13.121356709184683 1494.238836140732 34.12336613476443 0.33616955499863393
1.205607644026248 13.12359784199694 1347.1750061772123 35.442009919707886 0.34054376721407614
1.2285035740108732 13.125507521046087 1215.5581959423973 36.81467197242473 0.3450239500856159
1.2514435589295052 13.127134196917465 1097.7595316355687 38.232202923354 0.34953114974857596
1.274392870485766 13.12808465878086 992.0722964818402 39.70746129296337 0.3541473050332407
1.2973663879821011 13.128502624802136 897.2320862581382 41.24355500598809 0.3588793860020435
1.32032948720115 13.128388773621092 812.0923764743541 42.84290354468539 0.36372972415328947
1.3432721669456686 13.127604015475075 735.6470538958993 44.50235512059189 0.3686698077775194
1.3661832870582555 13.126144975805635 666.8522095531532 46.224688607767455 0.3736911733160919
1.3890489734241176 13.124050621629776 604.9760935346482 48.01865867803818 0.3788410190000731
1.4118391259144365 13.12112114608291 549.2536254736173 49.887228258411675 0.3841246997143818
1.4345639606634455 13.117539346951501 499.0334467824759 51.83353697260172 0.38954533192968
1.4571839149655132 13.113069211914834 453.73973733974344 53.857643038076446 0.39508913675556107
1.4796809142746215 13.10778792480567 412.9003426808717 55.95977485413354 0.40073370626749366
1.5020351572156776 13.10155834780959 375.99187927750637 58.15066433360871 0.4065310947775244
1.524232948009577 13.094423969821184 342.6792591647823 60.434252937463484 0.4124871398670945
1.5462793025088415 13.086361936090452 312.536792669363 62.81471825989683 0.41860552437595505
1.5681278035915536 13.07731265524714 285.25997828929553 65.29650678728548 0.4248879184666087
1.5897745376415522 13.067390344110121 260.5856990092206 67.88438706051286 0.43133578778507975
1.611177047083155 13.056183765401883 238.20452863704332 70.5814461369221 0.43795819533600316
1.6323449545923445 13.043990015217586 217.92294348094575 73.39055400293923 0.44475228411210044
1.6532422143140444 13.030791940396703 199.53672272934784 76.32240563946938 0.45174261998798515
1.6738448831026604 13.016387652778715 182.84027712666895 79.38305501990489 0.4589324030112056
1.694168492235616 13.000906210847983 167.66716247998278 82.57903250039034 0.4663379499648401
1.7141242419461038 12.984055313378267 153.8760107987015 85.91724622841696 0.47397173215933375
1.7337743992245824 12.966166917584681 141.33341542419953 89.4050713011463 0.4818397769100845
1.753038268222324 12.947031674593346 129.92632942039236 93.05040571938315 0.48994868736753683
1.7719446641522272 12.926650011777832 119.52163720830617 96.86171652961256 0.498314631894455
1.7904270120168586 12.905130213328816 110.06213478414695 100.84803293912425 0.5069552712259064
1.808486805108329 12.882150689443378 101.4261596321482 105.0190328851742 0.5158794272200244
1.8260822575361628 12.857796009029242 93.5471053839128 109.38510687236372 0.525097599074761
1.8432167965882604 12.83223338794635 86.37355646317977 113.95740123836038 0.5346312350613899
1.8598869640742461 12.805247118621484 79.77919103221153 118.75410866893112 0.5453094699032653
1.8759038226845104 12.776990425888478 73.81344161694417 123.78385512883122 0.5863638761077539
1.8910866520135678 12.747238514489068 68.41965997001404 129.0947876536271 0.6285609289928155
1.9054244436744625 12.715759374239246 63.52518358670847 134.6943377633889 0.6718503182113343
1.9188512791079357 12.682392589750398 59.08750376065056 140.59819071092133 0.7161416993125255
1.931435179807271 12.647208784400508 55.03915395446551 146.83054537419497 0.7618433500825635
1.9431523685936487 12.610317399576568 51.3490409641599 153.41318301681127 0.8090154002757295
1.9539606345774436 12.571285530125115 47.974487676194535 160.36956006942225 0.8578600528161047
1.9638717583226077 12.530374674583811 44.89046017159258 167.72533178971617 0.9085421689854077
1.9728991740954114 12.487489294569542 42.06020113397348 175.49614580264304 0.9610321932725939
1.9810376339982216 12.442655508725682 39.46140564314281 183.7213034043801 1.0157011142242771
1.9882984054983512 12.395871365907311 37.07215328556918 192.43504454889754 1.0727834646929582
1.9946427198709478 12.347189833450363 34.876996051272116 201.66512279686603 1.1323884863039262
2.0000905861277563 12.296592412911208 32.854113408338456 211.44718186702994 1.1947310595912473
2.0046539576293694 12.244135013463218 30.98961549919386 221.83344045115663 1.2601950977039131
2.0082757327116254 12.189682395597783 29.271478754564047 232.85328601896202 1.328874826146423
2.0110065597694016 12.133418298937759 27.684166000622927 244.56718590719717 1.4011819215915227
2.012829504531473 12.075388890151098 26.21977358381647 257.02312910931516 1.477387726587933
2.0137431961962453 12.015580298803837 24.868654787335334 270.2800678042259 1.5578284770047086
2.0137473358333184 11.953968201268799 23.617539640700738 284.4015129107762 1.6428645646124713
