M[M_sun], R[km], Lambda[1], P_c[MeV/fm^3], rho_c[fm^-3]
0.23841724892012095 16.20908015294055 2780876.1263280716 3.453507347168396 0.169602847481901
0.248408154129592 15.866473815354308 2282547.1043181196 3.6354500157796434 0.17197721253905013
0.2586838458654554 15.563230000345856 1882102.597450516 3.8245635165419807 0.17437243175169517
0.2692408150220573 15.294005202492183 1558713.5607375184 4.019939001968236 0.176762480119696
0.28008804686408806 15.05439912252747 1295972.742011838 4.221929019937587 0.1791399179528256
0.2912097632649915 14.840404677141056 1081804.6317565117 4.431891230701633 0.18154116973697468
0.3026220539494459 14.649188317427122 906143.286665323 4.650172859827715 0.1839701197054772
0.31431552799003803 14.477750369255993 761608.4403727509 4.877127691470225 0.1864281593693677
0.3262934976755212 14.3239322464417 642139.1900281834 5.110064578769485 0.18885551615795607
0.33855484773451394 14.185636593428795 542973.4347576447 5.352220785685656 0.19130528007647063
0.35109600931444696 14.061384918791816 460502.7393056169 5.604066534417213 0.19378497960839255
0.36391876403097584 13.94975914310764 391526.7444816132 5.86601370992645 0.196300282406328
0.3770371719827394 13.848889626097126 333773.52335713286 6.134889853130044 0.1987901222256835
0.39043317555407386 13.758296388820888 285229.756270584 6.414244292906574 0.20131121465537358
0.4041071024713582 13.676632317649199 244304.82171677603 6.7048274540727535 0.20386702859958164
0.4180660371761152 13.60318208146273 209720.90511423766 7.00664486943542 0.20644742253738724
0.43231489594046035 13.537098723765302 180399.97855516392 7.3164951064715344 0.20900581035253632
0.4468412848402793 13.477738770745466 155488.4311253614 7.638877023542452 0.21160867801858738
0.46165561955332984 13.424399846915575 132770.74044375823 7.974324047398637 0.21425610831915462
0.4767496719438018 13.376739783552305 116179.9460691236 8.320781946123727 0.21690867814643358
0.49212857709335 13.334122962443518 100700.41182487593 8.678441001203923 0.2195604953592774
0.5077802812303741 13.295952015986115 87430.29886791851 9.050687879890818 0.2222603278844258
0.523719408355824 13.262106438843826 76035.97278608571 9.438126292257184 0.22501114017056587
0.5399382393685277 13.23205628559469 66232.56703734533 9.835183823408897 0.22773389272411443
0.5564297864441996 13.205502324258086 57777.96866933241 10.24833507482921 0.23050541652070206
0.5731990191798045 13.182044644816042 50476.36776217302 10.678395295640954 0.2333276208000758
0.5902477575597134 13.161687185563919 44162.36194517891 11.12217637690649 0.2361511467634372
0.6075668566838097 13.143943126837975 38691.352523947666 11.580900602139673 0.2389948096145323
0.6251505095109712 13.128691535984395 33944.386721991745 12.05844986670684 0.24189780633215233
0.6430077260982223 13.115592518153052 29815.696556880754 12.554244792768605 0.24484582649586623
0.6611256150901694 13.104660663093432 26224.65702903442 13.063764829832655 0.24777606759591542
0.6795093374708554 13.095425497159626 23092.73282031793 13.59422102410475 0.2507649462045014
0.6981385694384424 13.087910612328862 20361.09135341592 14.146517353970951 0.2538140485490081
0.7170405617506328 13.082019950738182 17971.398456339994 14.71429835804799 0.25685588829593625
0.7361898300381928 13.077536031269181 15766.575003281316 15.303840474819554 0.2599495190257298
0.7555769330175035 13.074299633344323 14049.508882111097 15.917610173437568 0.263109235486377
0.7752092995025428 13.072087311634018 12441.727539158413 16.55226510795855 0.2662898298854751
0.7950796343911829 13.071001875510287 11029.53042827924 17.207771724774638 0.2694881208305003
0.8151846415783185 13.070783683399224 9787.755399273883 17.89029295596407 0.2727581372601733
0.8355121304037025 13.071293933207079 8694.334897456361 18.600020244337784 0.27609432947618195
0.856054187620927 13.072541522182041 7731.419446589877 19.329403325786377 0.27942448749186116
0.8768122731779446 13.074441517203104 6881.043976771824 20.08878001470868 0.2828256808114045
0.8977680406268391 13.076785516490162 6130.175972299964 20.879399566327002 0.28629928340980354
0.9189391830563315 13.079668114555439 5466.417529528837 21.695308564142856 0.28979043218348366
0.9402819188302246 13.082731680322514 4878.904549847431 22.540877662741007 0.29333325082961426
0.9618206931493667 13.086185769897376 4358.369850476506 23.421206220607154 0.29695937979155124
0.9835302134501216 13.089890789733523 3897.018695338374 24.33608946918786 0.300658086326531
1.0054144581976223 13.093699154966496 3487.242156835742 25.27838859599037 0.30435686812906204
1.0274450331667695 13.097563529172529 3123.2941410256944 26.259469588008514 0.30814180694885096
1.0496189043771018 13.10137954554215 2799.950303644495 27.280825987194852 0.312014896501561
1.0719294285534602 13.105194723522729 2512.030137293377 28.33798371778398 0.3159380401487497
1.0943653539508187 13.108870798765924 2255.506726140515 29.432538677346244 0.3199152303900848
1.1169146000716954 13.112362955379686 2026.9532096076553 30.57202654952344 0.3239817954596714
1.1395828538829487 13.115797194710026 1823.0195741896366 31.7582944404794 0.3281377645303186
1.1623245978320476 13.118835733435942 1640.8648233543927 32.9847745504165 0.3323387035375508
1.18513901802624 13.121471192447512 1478.1438215686624 34.25781874282855 0.33661909810556867
1.2080285537971747 13.123805061273677 1332.5559151927878 35.58324355783732 0.34100498202212465
1.2309795439412168 13.125780029096545 1202.2648339608238 36.96306558267389 0.3454957843194025
1.253944879211515 13.12717488173832 1085.6256043917854 38.392443217414765 0.35004065185074157
1.276953630764373 13.128160143685221 981.0267294651859 39.875782195023675 0.35467054993430475
1.2999524466873396 13.128464585813932 887.1156948484463 41.4204298046802 0.3594173446602299
1.322964268284487 13.12834044358728 802.9051259261514 43.0288364347264 0.3642832347459656
1.3459646061212418 13.12752603274643 727.2147644769873 44.70294948705603 0.36926696466915143
1.3689079505766 13.125970792198997 659.1746618588286 46.435533517241616 0.37430392471691853
1.3918114780264415 13.123746986384463 597.9325649658222 48.240356489644235 0.3794724628396788
1.4146327157429814 13.120805632050882 542.8238012627306 50.12043561374847 0.384776026137637
1.4373851629749503 13.117037879611889 493.132263291 52.078952423799066 0.39021749797171723
1.4600304874580732 13.112466269095265 448.3638304371758 54.11928232685035 0.3957987856491581
1.4825396895137004 13.10695913981534 407.95026092234747 56.23816600144665 0.4014801576616026
1.5049296454745988 13.10064367228004 371.47473891158086 58.44376691062383 0.4073029606501544
1.5271672362278388 13.093412212584507 338.5066370683284 60.74298490248931 0.4132860409121134
1.5492044571598806 13.085167539228541 308.7293202142677 63.140057176299344 0.4194326250755336
1.5710751500870512 13.076007311622508 281.77049898492027 65.63948635004803 0.42574371552318135
1.5927332361273456 13.065889232609916 257.3991156211733 68.24611763814762 0.4322239875763567
1.61415620067306 13.054632510537296 235.26671129137947 70.96498397861635 0.4388888252038253
1.6353080589279656 13.042162335932193 215.2239849325107 73.80150520147289 0.44574555122203696
1.6562088177868097 13.0287846821796 197.04176565471113 76.75624869248581 0.45277470621533183
1.6768038828321599 13.01412333123875 180.54160328008933 79.84118466371802 0.46000450501211576
1.6971176355515398 12.998448977906332 165.56097896261463 83.06303379081236 0.4674544901268751
1.7170949510810918 12.98163089194848 151.9443557916323 86.42883194596835 0.4751355775298315
1.7367267314127572 12.963524618910025 139.55239341704322 89.94607312072053 0.4830528236233697
1.755949250293547 12.943996775082967 128.27230120043095 93.62278165416829 0.4912136609337554
1.7748163658180816 12.923498675171013 118.01837256266785 97.46757900470307 0.49963659008282313
1.7932771589277716 12.901474916776309 108.64839404550715 101.48966410220362 0.5083379428006056
1.8112981948228288 12.878379553643883 100.13161688326325 105.69887981884415 0.5173252871614549
1.828871253128202 12.85381389383116 92.34342257316263 110.10579655290769 0.5266108795256632
1.8459686767907661 12.827951639504576 85.24813209569629 114.72177363367835 0.5362179232060388
1.862583702858569 12.800699504754363 78.7510249015997 119.55900076475223 0.5461664193955494
1.8786926204122791 12.772177792573563 72.82652490656412 124.63053822982523 0.5564648965314068
1.894262559287182 12.742184033829897 67.40904097202846 129.94428678175007 0.5671135850534996
1.9092950544667233 12.710794096053917 62.442708520233964 135.52068755839176 0.5781588457491208
1.923213084190383 12.678289699829213 58.01886146570732 141.51301018776658 0.731082796258629
1.9328248406543278 12.645218184283475 54.68735948020121 148.21753201181647 1.0153709654220509
1.9380020619431946 12.608653114510533 52.18971858211934 155.8498486558494 1.2849783278114872
1.9393604523801777 12.56734220772309 50.26833183796027 164.39099312763696 1.5417285144106927
