M[M_sun], R[km], Lambda[1], P_c[MeV/fm^3], rho_c[fm^-3]
0.23841724892012095 16.20908015294055 2780876.1263280716 3.453507347168396 0.169602847481901
0.24843634595973102 15.865512652131923 2281010.328534329 3.6359611299449393 0.17198371410453744
0.25873923842322005 15.56167020536156 1880127.7738553886 3.8256149348835202 0.17438529386019258
0.26932912819116656 15.29202000389663 1556367.7713151856 4.0216330213118665 0.17678320323221328
0.28020924630417304 15.051969820975682 1293505.8135134743 4.224248920879476 0.17916704559509647
0.2913685737120674 14.837674029371518 1079040.4870831922 4.434869057681427 0.18157467630518134
0.3028161745066117 14.646106531688616 903542.5201478704 4.653842344937176 0.1840098621506141
0.31454909310052176 14.474490802918874 759010.8383651469 4.8815370865988985 0.1864742346293665
0.3265636330898076 14.320638038367209 639649.260953209 5.115444183866027 0.18891157223298594
0.33886552968297795 14.182469488605301 540742.0356056521 5.358428909638595 0.19136722543267357
0.3514483177529112 14.058199385477032 458401.5433223519 5.611142140864199 0.19385298357531597
0.36431966383286135 13.94633980274609 389637.760146262 5.873998605640276 0.1963742239284906
0.3774809539515516 13.845650059361356 332015.3415364447 6.144199593627732 0.19887633204081562
0.3909248749536286 13.755203192074537 283620.2347106537 6.424583541206205 0.2014033675774436
0.4046442627331679 13.673649725356581 242857.7335912488 6.716242606055085 0.20396462266630883
0.41865854474474196 13.600340362335906 208398.80407706415 7.019706116113401 0.20655908992313948
0.43295862050610306 13.53447041360585 179207.58160402603 7.330767788242761 0.20912346458240413
0.44753795590918893 13.475093839357436 154403.67014932446 7.654417103405548 0.21173222958339766
0.462406529442768 13.421993237530168 133301.86769653502 7.991189674381787 0.21438523585071986
0.4775574776363292 13.374360539683394 115296.99562939949 8.339765263003523 0.2170540192506841
0.49299165890590096 13.331808894714467 99906.92589632738 8.698910429588496 0.2197110929053604
0.5087101998315289 13.29392074636201 86717.09270077288 9.072709921817493 0.22241672073087532
0.5247024736591074 13.260110837393077 75390.92057433746 9.461773578914324 0.22517329730165833
0.5409814848510592 13.230172766838061 65652.3223698059 9.86151088945078 0.2279144259735029
0.557544242069783 13.203747107657204 57256.36709545338 10.276482471934658 0.230691420360739
0.5743741080511833 13.180593016982057 50010.116356096085 10.708444100627728 0.23351880421151414
0.5914958849443573 13.16030653156713 43737.19315920147 11.15543963512053 0.236362781907787
0.6088788749121697 13.142679621119012 38309.65880948461 11.616289866549423 0.2392124363650484
0.626534639828887 13.127507715632886 33598.42651599254 12.096066234528264 0.24212147504071313
0.6444603325949936 13.114621857074152 29508.007392831834 12.595535006575412 0.2450904414497151
0.662656880219135 13.10372204003268 25944.88615987202 13.107705597029996 0.24802809868707565
0.6811101757352032 13.094704031027367 22841.99385095785 13.64076474004911 0.2510225329077193
0.69982261046719 13.087334923397725 20133.294331541238 14.19578756655859 0.2540780096359633
0.7188010224855967 13.081638422629334 17767.340199013666 14.768306745855462 0.25714523376455994
0.7380201904433003 13.077192752275733 15696.331104307817 15.360900679251683 0.26024557630919337
0.757490038487511 13.074005036536835 13882.227804064549 15.977868858082541 0.26341122389685623
0.7771896070375636 13.071899102439685 12291.351007374913 16.618130570780348 0.2666199168520298
0.7971428897002675 13.070882213116969 10893.83896315316 17.277209736546798 0.2698246934273212
0.8173258928484413 13.070751328333289 9665.123286631086 17.963480366606564 0.2731021669652376
0.8377261042981039 13.071389303758004 8584.006141839154 18.67798501096345 0.2764534093157074
0.858357824867709 13.07275781638725 7631.149515587557 19.41341130855543 0.2798076426450835
0.8791878055176303 13.074637476978099 6790.798239231906 20.17719865450325 0.2832158373607727
0.9002430956370358 13.077104359690942 6048.086531014523 20.972447885386387 0.2866974228173193
0.9214731275743239 13.079929183220345 5392.223177232146 21.796467047746937 0.29022327373435164
0.9429277277487383 13.0832193779341 4811.487688530756 22.64722730817682 0.29377545651762804
0.9645412219052363 13.086664368330478 4297.330289811007 23.533022954112532 0.297411434502989
0.9863234331588099 13.090308215264955 3841.5486949245187 24.45517298674228 0.30113076391918325
1.0082899955553999 13.094189775065121 3437.214320325166 25.40589341257604 0.3048565474608747
1.0303960225132776 13.098056935691694 3078.040079686849 26.393424873047373 0.3086522358593985
1.0526604247945284 13.101952521524721 2758.561367985475 27.42158154466458 0.3125372445439729
1.075052250591942 13.105706083577683 2474.4044423660184 28.490452465512973 0.3165038561871137
1.0975726668790775 13.109445631256675 2221.4755849266785 29.592662712779155 0.32049427861630136
1.1201918006037486 13.112902981487753 1995.9490078276403 30.740218923692225 0.3245726507733849
1.1429282375989778 13.116203019519158 1794.7538009919867 31.93499318558379 0.328742992976197
1.165759733516081 13.119203969152105 1615.1014072688404 33.17586521430344 0.33299322717583607
1.1886478505607523 13.121870681020821 1454.7189726316205 34.45850363546963 0.33729008925592047
1.2116077631161493 13.124134469841382 1311.2062629977954 35.79407219324319 0.3416934673567638
1.234635177134139 13.126151708789564 1182.9523128271887 37.18460616189069 0.3462001975975206
1.2576803143287754 13.1275009727123 1067.9304341266636 38.63172962098001 0.35080148998044386
1.2807258627877145 13.128198731607615 964.8694749628473 40.12716292591369 0.3554519958750878
1.3038020462915254 13.128499617142355 872.4293433141711 41.68461499693232 0.36022085489790967
1.3268770151358265 13.128213161221275 789.4312235871366 43.306582737108705 0.36511006812875935
1.3499355561001207 13.127307859911792 714.9259819636416 44.99568123166832 0.37011946749113683
1.3729358109452934 13.125638906029122 647.9367140464012 46.7506115612652 0.3752195954500971
1.395884230098665 13.123210370670776 587.6369031212142 48.57169222415513 0.3804161794550232
1.4187459244337755 13.120152988214736 533.5982974516753 50.469015348501394 0.3857495768711804
1.4415593814462855 13.116298981641116 484.574371281065 52.44582563719987 0.39122232352193403
1.464241507531226 13.111465631602083 440.4945355225516 54.50555125397371 0.39683449020346956
1.4868022325681614 13.105849018156592 400.72968284284224 56.65190921000011 0.40258422422072554
1.509222796120892 13.099381225887978 364.8842313290947 58.88216024897144 0.40845743994578143
1.5314684055091756 13.091857029465823 332.4796197251808 61.20481741599172 0.41448111793509
1.553554699758508 13.083410036202302 303.16105387939734 63.62679929785568 0.42067005696257986
1.5754346771061862 13.07396802496978 276.6657374931027 66.1526932899095 0.42702426117729714
1.5971066992793825 13.063572645138532 252.68512772108684 68.78746035665003 0.4335532102611711
1.6185385818159166 13.052071030049852 230.95438038419914 71.53627000136298 0.44026982516905283
1.6397056123489124 13.039494057462589 211.27006010313158 74.4046630404902 0.4471804270238684
1.6605940912544135 13.025715558259442 193.41180381768655 77.39856521945521 0.4542883562559257
1.6811967415816202 13.01086545372324 177.19803803550286 80.52429193228181 0.4615978792000384
1.7014880050370416 12.994857567347578 162.47796436978757 83.78801965375543 0.46912695639690866
1.721450796007349 12.977671155248927 149.10181115105647 87.19526379927196 0.47687919181315985
1.7410436460157028 12.959262828405992 136.9439520199724 90.75671269216684 0.4848704583007831
1.7602410265570771 12.939414560325066 125.86722170081642 94.4805819584474 0.49310943370137655
1.7790837610783885 12.918517840357746 115.79062350510368 98.37572683910474 0.5016181180950287
1.797486441424553 12.896350523014549 106.61764485794176 102.45160331593958 0.5104108564680747
1.8154445502017476 12.872635869934127 98.24665766120788 106.71830422760321 0.5194933412379578
1.8329703510601059 12.847842688670834 90.60559507113194 111.18620981952051 0.5288787816790343
1.8499903089212357 12.82156462204902 83.63973079578813 115.86361813200999 0.538580878225365
1.8665310080085464 12.793971185526607 77.27270056590184 120.76568350896613 0.5486262202484314
1.8825348980076066 12.764808003527786 71.44936775327602 125.90582512789149 0.5590242424656237
1.898042885591155 12.734540729288618 66.14021852154882 131.29842973375978 0.5698011257377054
1.9129494370591236 12.702609952910686 61.26442041998819 136.95900772611287 0.5809848481213555
1.9273033091789353 12.669330105744272 56.806170587815906 142.90426246515574 0.5925915965971172
1.9410595187038575 12.63457757318436 52.72202988536999 149.15221174412383 0.6046446104967552
1.9541808492707295 12.598146788438708 48.97330356491525 155.71960601131377 0.6171707846646313
1.9666953438620087 12.560611754391958 45.54407339364183 162.6179700609941 0.6301669852578751
1.9785382297294019 12.521444016983363 42.39542645500308 169.8803894725087 0.6436895957620375
1.9897158726829611 12.480611580000064 39.49765772057125 177.53123906704676 0.6577843361712954
2.000208688855865 12.438380490602041 36.83846742270142 185.59288389696087 0.6724766751179927
2.009993168006209 12.394700466541309 34.3948151540828 194.0810455439134 0.6877474487578595
2.019076552200592 12.34950450415634 32.15019862495841 203.04153976262634 0.7037048055005878
2.0274241194600786 12.302812201740128 30.08209508708571 212.50218347459918 0.7203771652893824
2.0349990071845094 12.254451446192752 28.176852728401535 222.48472000644574 0.7377488460033852
2.041823538353587 12.204721832069273 26.425468055942012 233.04650256263804 0.7559514604345109
2.0478744007715677 12.153473494572344 24.809907503956104 244.2071048456565 0.7749626936071138
2.0531398858162397 12.100703639666976 23.320253516365227 256.02787716997415 0.7948832756066555
2.057585084328014 12.04638253279228 21.945786201737313 268.54234588359776 0.815742381098357
2.061227242471126 11.990629080912173 20.679757379929775 281.8160568715796 0.8376330070656695
2.064045965382904 11.93342254190226 19.512381847660127 295.8879346678618 0.8605736191137854
2.0660263226256776 11.87470217554055 18.43359941430231 310.83883386144976 0.8847028402667746
2.0671696039246577 11.81459716597293 17.43784452327152 326.7188174836908 0.9100303706229816
2.0674596976793573 11.7530086258624 16.518238197659624 343.60903326665397 0.9366851964042668
