M[M_sun], R[km], Lambda[1], P_c[MeV/fm^3], rho_c[fm^-3]
0.23841724892012095 16.20908015294055 2780876.1263280716 3.453507347168396 0.169602847481901
0.24842261706366403 15.866070935859932 2281837.8039246583 3.635714318864078 0.17198057457424426
0.25871363014217874 15.562419514652925 1881068.806025779 3.8251071916797392 0.1743790825854622
0.26928684784461004 15.29301274672404 1557462.0217559512 4.020814914267849 0.17677319524476728
0.28014959285672225 15.053201755394307 1294760.5267814295 4.223128497053404 0.1791539439767486
0.2912925552716321 14.839025724993121 1080347.28893497 4.433430812776777 0.18155849314500364
0.3027227102112134 14.64760610309589 904798.5466429774 4.652069958515182 0.18399066627761387
0.314436474806938 14.476056882886962 760261.6728151452 4.879413573320598 0.18645210738814355
0.32643398731547746 14.322236745258714 640853.9903808789 5.112845540062429 0.18888449407958688
0.33871589030727006 14.184051905310469 541818.4226849022 5.355429916261606 0.19133730114082692
0.3512803450977366 14.05966597295976 459367.1987772722 5.607723944103759 0.19382013113486776
0.36412667609015004 13.94784848617983 390569.0214097474 5.8701409767532 0.19633850161450286
0.3772656360285927 13.847203614084917 332859.7479666961 6.139701660024216 0.19883468039386243
0.39068515769216056 13.756609401989296 284389.72361895244 6.419588009031159 0.2013588427847426
0.40438714728170194 13.675095515105989 243547.7171817366 6.710727023414204 0.20391746708387537
0.4183724387102711 13.601687523696457 206436.54156156865 7.013394810908279 0.20650513129496897
0.4326490887782195 13.535739591214108 179783.1058690168 7.323870846037921 0.20906661090651057
0.4472005259188704 13.476411160613164 154936.1034257665 7.6469074419102485 0.2116725239424284
0.4620431980089885 13.423231777353951 132289.22437418313 7.983039153087596 0.2143228333858284
0.47717098719060036 13.375615788891068 115728.75651543583 8.330590805847594 0.21698377727229934
0.4925711213370206 13.332917037153756 100291.80587053952 8.68901739818728 0.21963830795873884
0.50826231449667 13.294883685084416 87061.99831145488 9.062066130544885 0.2223411322445905
0.5242292838667922 13.261059328813573 75701.39349822397 9.450343876524117 0.22509492011717586
0.5404801979233723 13.231060505587644 65925.96700475556 9.848785180464697 0.22782716165052916
0.5570033045621533 13.204625879743205 57507.247903733565 10.262876414126115 0.2306015087077832
0.5738096725429735 13.181350365636927 50235.06876150469 10.693918450815085 0.23342638578469943
0.5908904299918164 13.160993370782606 43942.88745155998 11.139359130736594 0.23626047082795792
0.608245805026726 13.143389419517558 38494.16893820922 11.599181031293387 0.23910722535589105
0.625867710859485 13.128069153914803 33765.501708158474 12.077880132041797 0.24201333961210894
0.643759781701255 13.115201058397679 29657.121135658603 12.575654664567221 0.24497313060981954
0.6619168913132253 13.104164623007483 26079.267440825482 13.086459889966683 0.24790623966923944
0.6803387606183788 13.095156528593053 22964.155209210923 13.61825978835455 0.2508979838424919
0.6990087469009179 13.08765880144106 20243.882573284853 14.171963559171896 0.25395037448776425
0.7179492467139124 13.081897585467164 17866.30640263132 14.742189985544393 0.257005315382288
0.7371374647775591 13.077441599363345 15785.792733998996 15.333307315833144 0.2601024079434888
0.7565645737713771 13.07413687525782 13962.394663570649 15.948727881805395 0.26326518292106
0.7762358808387005 13.071963718271855 12363.353501717036 16.58627608748563 0.26646027704519554
0.7961438918745593 13.07094818233468 10959.63361157512 17.24362645766098 0.2696619121048742
0.8162956782209101 13.07076801717419 9723.84491475398 17.928082657362985 0.2729357740929647
0.8366642193634026 13.071397070686697 8636.790838173283 18.640680098490954 0.2762832639440034
0.8572409628050993 13.07262635849045 7679.216638034046 19.372776210305226 0.2796223085044095
0.8780453939971458 13.074528354957598 6833.557192572515 20.134428826841308 0.2830271109970057
0.8990506181699638 13.076945363099387 6087.62428882103 20.927437255282108 0.28650482927255905
0.9202571753507408 13.079844109508123 5427.914875763419 21.74752990294862 0.29001387923875543
0.9416488804753057 13.08305687114593 4844.147130713757 22.595777319232262 0.2935615255950914
0.963225572920165 13.086414209090696 4326.629295850324 23.478926469941854 0.2971927322589247
0.984977879466589 13.090130021804933 3868.2713418339713 24.398292670445194 0.3009078553326553
1.0069051905363002 13.093961020680737 3461.1773312260975 25.344200906310977 0.3046147803564323
1.028964029732089 13.097708823658525 3099.7442065527985 26.328609385011006 0.30840526016944786
1.0511979997336753 13.101662760214982 2778.4323371720416 27.35347360626386 0.312284493967471
1.0735511276817653 13.105477023910188 2492.3766099807835 28.41667149222648 0.316230052810137
1.096017064889815 13.10911829319194 2237.8821254163945 29.515174882093504 0.3202140634019484
1.1186142102484684 13.112704732087183 2010.8930811315151 30.658824091571326 0.32428671290429223
1.141306272960392 13.115959701526164 1808.358713769977 31.849479094357687 0.3284500901573179
1.1640948482304811 13.118973007980719 1627.4811585421962 33.083379215184046 0.33267644418182285
1.186955185095678 13.121627748354374 1465.9516545916606 34.36137100288139 0.3369653257123405
1.209876484405484 13.123958696524344 1321.494354567634 35.69202659771097 0.3413602256419787
1.2328617598877083 13.125887387994082 1192.1726058173888 37.07737220386675 0.34585923512389943
1.255874500730434 13.127316245525241 1071.7052549773114 38.51589712026489 0.35043318746977153
1.2788991628892485 13.128151100296893 972.6054946297324 40.005471749882126 0.3550737048453725
1.3019507045992338 13.128526082854236 879.4972057221742 41.55672088347761 0.3598318693206947
1.3249889034066689 13.128253129293958 795.9400819594814 43.172118853244314 0.364709777550611
1.348008466237626 13.12735931501082 720.8387849619696 44.85426551338603 0.36970848920528454
1.3709845488960715 13.125780630098355 653.31777642817 46.59805680725399 0.3747762452195591
1.3939295213196292 13.123587454660399 592.6151178979279 48.41125990181833 0.3799592331239822
1.4167653442662351 13.120445608504905 537.935325939666 50.30022715051324 0.38527816715460206
1.4395613589972263 13.116788970267542 488.695915399697 52.26817259047518 0.3907357512841626
1.4622057072572194 13.11192364846925 444.2690818941107 54.31849876718771 0.3963329455570951
1.484751931586658 13.10642609829123 404.2125906570295 56.45287184804463 0.40205584938191485
1.5071540840129132 13.099978042250779 368.0210995901674 58.66983992456737 0.40789830868824634
1.5293999761953294 13.09265683842336 335.37198026845414 60.98113585100324 0.4139023005262551
1.5514475913022803 13.084294332023196 305.85544820809537 63.39104310039118 0.4200707000888033
1.5733641583650169 13.075189994978631 279.1332745389574 65.9041078861609 0.42640399489926745
1.5949903980057547 13.064642811821786 254.93620575595452 68.52523495322745 0.43290933727119507
1.6164125754421632 13.05331263089597 233.03874982662384 71.25952747190522 0.43960084079285416
1.6375940739585249 13.04080625796445 213.16064646621345 74.11246747781492 0.44648531155795923
1.6585090814261723 13.027368421325447 195.15456617896638 77.08992094111986 0.4535660756682329
1.6790980477795838 13.012496624935688 178.80109195001083 80.19487344473026 0.46083219746761067
1.6993950089959071 12.996632128412275 163.95531009247253 83.43673916270068 0.46831658918474683
1.7193309620950787 12.979448255600786 150.462958311524 86.82388230053648 0.4760343077142437
1.7389410084227352 12.961168402356783 138.18682784400775 90.3638893330314 0.4839896607369673
1.7581895904860663 12.941725924788976 127.02557878946288 94.06488289482151 0.49219072224788757
1.777027415839608 12.9208936545579 116.85640930767043 97.93560457840113 0.500657795826624
1.7954487672833146 12.898802698010174 107.59177747476195 101.98538539197577 0.509406188509015
1.8134451814364287 12.87550542878551 99.15725524367514 106.22419662066325 0.5184425011734538
1.8309883757026015 12.850761948283964 91.44495232504178 110.66274874938311 0.5277803494012097
1.8480460564699361 12.82462043252564 84.40884052576504 115.31256697852383 0.5374442950660716
1.8646164914196302 12.797154919583095 77.98200084464463 120.18427408475658 0.5474470089731273
1.8806877141327434 12.768343219946342 72.11113309302235 125.2881589944707 0.5577856107925686
1.8962067379335048 12.738141377574275 66.74228302937237 130.64190564218228 0.5684981353823244
1.9111728916380601 12.706392945603813 61.82524409135335 136.26080931920367 0.5796130903747115
1.9255694396809855 12.67340310744177 57.32832633112518 142.16135161897677 0.591148005177464
1.9393642782231764 12.638838610833517 53.20735274702778 148.36130311966872 0.6031232351531796
1.9525678723399273 12.602796393438124 49.42522753333143 154.8798112554534 0.6155743898765478
1.9651389052498784 12.565318414662817 45.95748400657461 161.73051159432674 0.628508392849283
1.9770495343928522 12.526326558604092 42.77496140577288 168.93377854594405 0.6419365082456535
1.9883067220768313 12.485936539860683 39.85702097294724 176.5209521515313 0.6559293860495609
1.9988875475067474 12.443992276139854 37.17327671093254 184.518062065348 0.6705265574631746
2.0087557540297665 12.400591787561936 34.70702134743701 192.93988779457197 0.6857064824032807
2.017902773030994 12.355584149146456 32.43711469033852 201.82121650776224 0.701539565560135
2.0263440162231614 12.30913585571653 30.34851989025046 211.2020775398067 0.7180979577940809
2.034020470277201 12.261168468649297 28.42738372393344 221.09921419274883 0.7353496447346708
2.040937804874376 12.211586232003711 26.65442101637162 231.56186699817195 0.7533996060013993
2.0470941193483787 12.160679671133783 25.024475199468267 242.6273392988404 0.7722878550016287
2.051499990042869 12.112435948905308 23.68182215887145 255.6473471326737 2.25793658535018
