M[M_sun], R[km], Lambda[1], P_c[MeV/fm^3], rho_c[fm^-3]
0.23841724892012095 16.20908015294055 2780876.1263280716 3.453507347168396 0.169602847481901
0.24840578137792393 15.866485638293266 2282587.1228220267 3.635403198242442 0.1719766170022704
0.2586781100044345 15.563406276062604 1882299.350391705 3.8244672179131793 0.17437125372068424
0.26923278172789117 15.294180782514838 1558868.181309764 4.019783865483421 0.17676058231915293
0.28007603337658116 15.054674061561272 1270101.0084605778 4.221716587703891 0.17913743388743364
0.29119426882624383 14.84071912909629 1082117.1543977181 4.431618579652748 0.1815381018619678
0.3026060082615145 14.64941358085277 906364.0032878739 4.649836912786881 0.18396648122311768
0.3142951242747001 14.478040203690979 761953.2658996582 4.876707664152701 0.1864236102535859
0.3262689731391025 14.324230475617048 642319.1792154051 5.109572170740886 0.1888503852123009
0.3385268505901688 14.18604970997485 543194.7830529575 5.351652593219934 0.1912996105884018
0.35106299158252 14.061697951687615 460694.26395631937 5.603419003976104 0.1937787561646455
0.3638873642111257 13.949991839252549 391772.4557408627 5.865283028348893 0.19629351616792026
0.3769958462129946 13.849146921459319 333941.79655166727 6.13403803824686 0.19878223427181152
0.39038766842177514 13.758581914300132 285398.1708724834 6.413298360715732 0.20130278363476745
0.40405696736600716 13.676881020003675 244436.3142886894 6.70378317390075 0.20385810050568098
0.4180129926966706 13.603470474809328 209843.18771959655 7.00545014578489 0.2064372082240035
0.4322541242969116 13.537340732009312 180505.29250893596 7.3151896762836115 0.20899504927862828
0.44677786528719077 13.478003120294106 155592.26150383631 7.637455784018635 0.21159737843913315
0.46158529322197334 13.424713319813447 134376.74920884188 7.972781696544441 0.21424429968857073
0.4766674787567935 13.376928673601563 116265.12808896074 8.319046148270445 0.21689538843640296
0.4920469235664193 13.334274521589265 100776.08864212484 8.676569456358688 0.2195467260416501
0.5076993977073524 13.29623238902022 87502.24969523743 9.048674525543461 0.22224602974539112
0.5236303310034954 13.262252509115292 76093.94656770596 9.435964506841168 0.22499631610528592
0.5398430777735882 13.232211065993734 66285.7549603437 9.83277736172143 0.22771739083410983
0.5563284014960508 13.205555958854728 57826.20391892351 10.245762405408845 0.23048841578740012
0.5730931507625738 13.18231013391257 50524.029279386115 10.675649028755972 0.233310147869887
0.5901327621806256 13.161763053412669 44199.829953434884 11.119136722041423 0.2361318071728294
0.6074464028208811 13.144048506519471 38726.26065266034 11.57766688991239 0.2389749238583329
0.625024278641878 13.128740232430575 33975.49927445446 12.05501288374748 0.2418773698683365
0.6428736726002409 13.115692399329184 29844.844457252988 12.550457919606233 0.24482330956829543
0.6609816236562459 13.104738892593112 26252.27884686491 13.059750787514119 0.24775304425039757
0.6793635668391576 13.095475033535248 23116.182575693765 13.589969478220244 0.25074141689091417
0.697986524432701 13.087956810494594 20228.661156418315 14.142017048080628 0.2537899385325894
0.7168850687241881 13.08214339226502 17859.009580826376 14.709365936160653 0.25682946325382006
0.7360230254280152 13.077576947484026 15897.478902766778 15.298629675391973 0.25992248275520546
0.7554052954126999 13.07429373645712 14064.311522286736 15.912107637186894 0.2630816593421957
0.7750269082270833 13.07210841372148 12455.264708396813 16.546251418180677 0.2662596920783219
0.794894666822037 13.070963161028045 11041.663295596229 17.201432253263675 0.2694573928137489
0.8149881785293579 13.070724282359008 9798.771588419815 17.883611597719252 0.2727267304145667
0.8353086526642496 13.071283646139312 8704.430430892147 18.59273564456452 0.2760600869925429
0.8558404015669897 13.072545075599438 7740.622309242202 19.321735713673284 0.2793895159927583
0.8765886584781896 13.07441498061337 6889.608672830512 20.08071033875654 0.2827900725173692
0.897543887318881 13.076770693569312 6137.643760208505 20.870907888029283 0.2862629488279385
0.9187024609859075 13.079656922115854 5473.6003835408155 21.68607808254422 0.2897509363762309
0.9400592475942259 13.082808681933054 4885.034877877858 22.53117411025444 0.293292903105972
0.9615698671246248 13.08619708244151 4364.303898409241 23.41100448620497 0.2969181360353014
0.9832734234098739 13.089779291235637 3901.879617629896 24.32501750768822 0.3006133244004412
1.0051507025072421 13.093652832267411 3491.9231976707756 25.26675801029636 0.304311288962378
1.0271751514050493 13.097492436376212 3127.6002414651193 26.24725139198284 0.30809525021550194
1.0493368519869455 13.10133306230246 2803.6511012781807 27.26798835967482 0.31196725568563266
1.0716490095084612 13.105148803587833 2515.4018028105825 28.324079912468758 0.3158864427154473
1.0940705372497201 13.108849398098997 2258.694503454263 29.417937732775346 0.3198624297531785
1.1166171229646387 13.112352261609141 2029.86107536374 30.556690904696552 0.32392792174940377
1.139267271804545 13.115634768927839 1825.5012597016291 31.74218426630263 0.3280825839704676
1.1620120304668802 13.118772938078541 1643.2108178925873 32.96735496315344 0.33227903797670694
1.184814805142706 13.121401492112739 1480.272093315535 34.23952580185525 0.3365579355469652
1.2076931624648017 13.123769015049938 1334.57021753849 35.56402731759948 0.340942229163315
1.2306271728970815 13.125657548900714 1204.0865716801932 36.94287440437117 0.34543158418890013
1.253606680345084 13.127153698099466 1087.204368701932 38.370638233648464 0.3499713204436087
1.276606546629913 13.1281242947495 982.4622519862182 39.852876755855874 0.35459934573979013
1.299609412552666 13.128535464200905 888.5403395337096 41.39635939992047 0.3593441353463972
1.322607348945672 13.128360608270798 804.1766487382745 43.00353233713237 0.3642079060289574
1.3456003085612218 13.127526006756428 728.3227361451405 44.67564762474225 0.3691856887314347
1.3685414792541735 13.125992998953803 660.1797115092554 46.4068353396739 0.37422052290015356
1.3914399995823148 13.123810434515477 598.8719500426906 48.21017986938292 0.37938651322733896
1.414270132238559 13.120853039691433 543.6545551407845 50.08869101557306 0.38468736643152524
1.4369939294259193 13.117052330475241 493.9437559664521 52.04554459102449 0.3901259975766949
1.459646938606565 13.112526042675663 449.0822157633565 54.084111227188146 0.3957044812266627
1.4821469931227598 13.107078896968348 408.6421315982054 56.20026402485087 0.4013785309269077
1.504575081556642 13.101001565857862 372.0869421786282 58.40386020119441 0.4071978690217859
1.5267824169950337 13.093656349000115 339.0775953270566 60.70094824196942 0.413177263280307
1.548811101071697 13.085336457029767 309.2393841651277 63.095757205235216 0.41932000240664535
1.570683473996096 13.076268123318389 282.2463482028061 65.5927820406483 0.42562717968590985
1.5923197504818243 13.065969181455452 257.8054982713695 68.19685748961848 0.43210303331827893
1.6137540245105362 13.054850019295559 235.66851226041928 70.91300413520753 0.4387631715748515
1.6349211003012505 13.042436172578439 215.57743983481834 73.7456004796646 0.445610556767984
1.6558064684290603 13.029082615144834 197.3837662223671 76.69715620106751 0.45263412877353953
1.6764136942770766 13.014490445471067 180.85311042233468 79.77878074894456 0.4598584691403996
1.6967221327545339 12.998779592143032 165.83767987674116 82.99710208145967 0.46730239259552414
1.7167013950858887 12.981920702640974 152.19934542702893 86.35913861332604 0.4749770268514847
1.7363088759416307 12.963774724439062 139.78868435639035 89.87236808129747 0.48288756049006815
1.7555726964095666 12.944538369749637 128.49817878003486 93.54479755010811 0.4910413129641323
1.7744431872186919 12.923924021350825 118.20955609788774 97.38502736556296 0.49945646700240265
1.792890321740688 12.902001474765406 108.84474051312213 101.40223324876386 0.5081495352500393
1.8109086129288048 12.878848507982198 100.30509252661345 105.60623551262958 0.5171282564998114
1.828496043647443 12.85443358888627 92.51491416061492 110.00757994784043 0.5264046475337051
1.8456004540680744 12.82848273063134 85.39180742844924 114.61759674771882 0.5360016722910255
1.862200399993637 12.801294877361041 78.89271935695315 119.44844404853343 0.54593947874938
1.8783236535326464 12.77279381859824 72.95422653023128 124.51315042599421 0.5562268112577652
1.893885506544823 12.742748746726049 67.5254169053384 129.8212954585752 0.5668694866114953
1.9089520502549435 12.71155610498548 62.55136930225826 135.38823425082288 0.5778987329689441
1.923398230396415 12.67868237702025 57.99934778905527 141.2330335797591 0.5893441387202484
1.9372691292930204 12.644377310635985 53.8270201527633 147.37315750042657 0.6012224588378207
1.9505591956568313 12.60876820734214 50.003506854761326 153.82740366218118 0.6135689653565339
1.9631987622618499 12.571545653508053 46.49355946795397 160.61609212953002 0.6264158105752565
1.9752001430381185 12.532916268664602 43.27599578188719 167.7515791034151 0.6397471197372248
1.9865232309434608 12.492705331751516 40.319551538455954 175.259440238917 0.6536131710813806
1.9971986979893799 12.451053070100947 37.60063615067652 183.1711299514807 0.6680743172417383
2.0071647944354467 12.4078554201528 35.10199157962592 191.5142529320683 0.6831550826292572
2.0164214077836062 12.363244337915656 32.805727864622924 200.29814085650804 0.6988371469843339
2.0249570673344803 12.317073612738406 30.690302198039095 209.57263702653265 0.7152293406512615
2.0327546455857797 12.269424413733239 28.74508059585435 219.37051481024864 0.7323561547682493
2.03979385191201 12.220279187377916 26.952698874843826 229.7098446494629 0.7502162716169273
2.046066565835917 12.16958931215237 25.298757886419704 240.65298812050636 0.7689384264841483
2.0515599104507682 12.117429056884777 23.775747619369646 252.22088317631543 0.788486989998313
2.0562608842588816 12.063840215503696 22.37109763314357 264.47760042814633 0.8089960088881997
2.0601472824978906 12.008724718960382 21.076443930837783 277.4565439424197 0.8304660906186366
2.063216089380862 11.952097297611017 19.88088428355266 291.2306572429364 0.8530158086123681
2.0654809775890866 11.894133467589038 18.776527206448794 305.8350132273078 0.8766522070022749
2.0668809536640764 11.83462294110444 17.758415449872594 321.3527897914253 0.9014948550973074
2.0674530545855196 11.773927050105408 16.82094401423639 337.88560493310956 0.9967828004040676
