M[M_sun], R[km], Lambda[1], P_c[MeV/fm^3], rho_c[fm^-3]
0.23841724892012095 16.20908015294055 2780876.1263280716 3.453507347168396 0.169602847481901
0.24841308160210412 15.866272146567317 2282584.6591641614 3.6355304446465926 0.17197823562465614
0.2586920295387924 15.563044084596038 1881717.5809989027 3.8247289540584775 0.1743744555658162
0.2692555138224363 15.293684995375425 1558283.26618368 4.020205527619994 0.17676574055535213
0.2801052917950309 15.054093196498588 1295671.8180032547 4.222293988666848 0.17914418569587817
0.29123448619914516 14.839977756855731 1081360.7916699818 4.4323596688738975 0.18154644061257494
0.3026533729191328 14.648701971333049 905741.6035336845 4.650750058744046 0.1839763710719717
0.31435427388445014 14.477173157383211 761172.1990940749 4.877832303498133 0.18643563038319247
0.3263370711559124 14.323387044436107 641728.8184899123 5.110910637579772 0.1888643321835375
0.33860265421613567 14.185192021310266 542643.0609265583 5.3531970781441816 0.1913150216319808
0.35115182556901336 14.060936850828245 460157.07220827974 5.605179171286416 0.19379567321061844
0.3639853282546354 13.949028797832298 391249.9274020601 5.867269248295126 0.19631190890984673
0.37710625790379093 13.84839292407725 333521.9563291254 6.1363535756031675 0.19880367655019385
0.39050760280690133 13.757742128800434 284967.7589897192 6.41586977379129 0.20132570244103792
0.4041953102665341 13.676257765107014 244081.9275960745 6.706621968822183 0.20388237083878
0.4181611496014688 13.602725903765304 209505.83329234883 7.008697966247371 0.20646497552902265
0.43241765552313516 13.536776755155875 180218.00664568954 7.3187384900752575 0.20902430327309776
0.4469539335606663 13.477383933254892 155318.79110745215 7.641319469279052 0.21162809670854132
0.46177369664824636 13.424150915013536 134127.76725618413 7.976974673219018 0.21427640218487518
0.4768758460405226 13.376380246929537 116045.93212967606 8.323765106600002 0.21693151798209157
0.49226280824002105 13.33375657215765 100578.5069456006 8.681657512784124 0.21958415985746588
0.5079249869433563 13.295597879617217 87319.38158279777 9.054148168832475 0.22228490164733686
0.5238749481947627 13.261697007222855 75936.40501840557 9.44184174615813 0.22503661824566254
0.5401035525961827 13.231823856859988 66141.64462207741 9.83931992052675 0.22776225528647837
0.5566057933787597 13.205219838472797 57696.13656407595 10.252756912189335 0.2305346369394115
0.5733839674828446 13.181797014740555 50402.07743781834 10.683115582614052 0.23335765329444227
0.590442591768292 13.16145701352691 44092.9708414815 11.127401093121401 0.2361843886534293
0.6077724261125317 13.143717174762356 38630.45502913379 11.58645896065482 0.23902899081388837
0.6253692698096566 13.128479640889507 33889.264388154006 12.064357713747517 0.24193293467107746
0.6432378180938272 13.115450753506684 29767.35772341684 12.560754263604545 0.24488453211843458
0.6613637213407063 13.104542364841901 26181.278423293268 13.07066489905242 0.24781564432808142
0.6797605328484303 13.095308668827986 22876.717221547857 13.601529467049943 0.2508053932914112
0.6984043946306747 13.087811922912673 20324.45202308092 14.154253531927319 0.2538554944822605
0.7173178933478355 13.081963507342012 17938.97044567985 14.722777618570472 0.2569013152325485
0.7364801309246012 13.077523337085697 15851.897074397031 15.312798421822553 0.2599959973985557
0.7558794939272814 13.074206738806263 14022.546546121564 15.927069786397459 0.2631566426526359
0.7755214288496246 13.072060325872817 12417.928560234923 16.56260378902445 0.26634164253090437
0.7954015550460461 13.070998956358656 11008.61346869394 17.218670643957847 0.26954094892045294
0.8155239474107718 13.070807838221128 9768.703474424869 17.90177981720852 0.2728121331790253
0.8358607590113423 13.071300728651547 8676.91363790906 18.612544626269006 0.2761532024351251
0.8564160840841066 13.0726463328448 7715.3551545658565 19.3425864082755 0.27948461470625874
0.877190739880457 13.07446052755984 6866.381445573444 20.102654572424917 0.2828869037568734
0.8981579563059442 13.07679424737971 6117.090471532081 20.893999900360328 0.2863617559874957
0.9193405248078316 13.07971756622391 5454.807739596658 21.711179697898363 0.28985834231720664
0.9407147700853365 13.082947143611602 4868.069993519792 22.557562446124308 0.293402626764862
0.9622487532314055 13.086254693516782 4348.626044895531 23.438747856232418 0.29703029743314324
0.9839771357792985 13.090025356599408 3888.266261518819 24.35512808374619 0.3007350559816133
1.005864993556105 13.09379297309814 3479.516567043907 25.298388073469564 0.3044352441921082
1.0279098683400623 13.097624088746628 3116.2506880684914 26.280479801696895 0.30822186515991906
1.0501045298739202 13.10151937209828 2793.3982432258517 27.302901689417098 0.3120968200863057
1.0724281537362832 13.105296008644105 2506.017965261235 28.3618936608351 0.31602677065553353
1.0948743914538104 13.108981321687983 2250.0976813290326 29.457647843042274 0.320006031360837
1.1174322582551337 13.112471033491298 2022.0679782041375 30.598399571645697 0.3240744431812856
1.140100280653918 13.1157629205603 1818.3790578956243 31.78599985707389 0.3282326611082088
1.162861444597221 13.118877165969828 1636.860390784254 33.01473289904212 0.3324413168570119
1.18569544122901 13.121533189400113 1474.3891266305177 34.28927957913352 0.336724287601726
1.2085915242946303 13.123869588909946 1329.2246098652708 35.61629283624651 0.34111290826972057
1.2315500021547667 13.125784455106244 1199.1982627483192 36.997792173668365 0.3456062014352499
1.2545409122179672 13.127230436254502 1082.750479102712 38.429946762868035 0.35015989860674074
1.2775540639041074 13.128163007413502 978.4124446914872 39.915179113837695 0.3547930197917898
1.300560673383473 13.12848354960665 884.8213233467277 41.461831129845784 0.3595432653764535
1.3235993798990746 13.128346461015536 800.7232570369481 43.07236046080464 0.364412803051309
1.3465970317564764 13.12756163562081 725.2893530871519 44.74935571211116 0.369403603363592
1.3695478946547357 13.125933517222553 657.37402679371 46.4848982427932 0.3744473870599677
1.3924547788281705 13.12366218865253 596.2802513021359 48.29226525579917 0.37962031035505395
1.4152767093405658 13.120653555568317 541.3344478880492 50.175042550624866 0.3849285382264142
1.4380318951874624 13.116872772010915 491.7890797899626 52.13642151574351 0.39037489952032917
1.4606862983591058 13.112285279552477 447.14309288861284 54.17978578445173 0.3959610138331749
1.4832267527492147 13.106834120531666 406.7910845007239 56.30336990299731 0.40165498916642445
1.5056023105973884 13.100446565978702 370.4333967020127 58.51242095654937 0.4074837564507494
1.527853642977569 13.093272104519544 337.57708900370665 60.81530468743898 0.41347318172782715
1.5499021304893636 13.08496710357432 307.8496102714252 63.216272319777545 0.41962638486051823
1.571773719966527 13.075804282656234 280.98324067617835 65.71983968297438 0.4259442118596111
1.5934170361195528 13.06545186575766 256.62379861114454 68.33087003366843 0.4324320901385012
1.6148287182341061 13.054148503927593 234.5811061391041 71.05441759476517 0.439105017821663
1.6360160251386235 13.041773002162055 214.5769776757502 73.89592104522843 0.4459701607699043
1.6569103933912686 13.02834929609013 196.46957897087913 76.85792663127854 0.45301659184545395
1.6775227792829552 13.013657018523762 180.0073973060394 79.94856294615089 0.460255788623655
1.6978088815819388 12.997899540210158 165.0664145388656 83.17648506824564 0.4677162103127407
1.7177821223943814 12.980956717342577 151.48437339917447 86.54875895275744 0.47540840862511147
1.7373866239232234 12.962696732062259 139.13303116387908 90.07290660482204 0.4833372125763402
1.7566439419163553 12.943349163070057 127.88537015364706 93.75698213568802 0.49151024933200804
1.7754900025631513 12.9226296564447 117.6542566263684 97.60964339079125 0.499946566663625
1.7939331153893074 12.900679569040472 108.32595425496054 101.64012930183512 0.5086621850857115
1.8119584015142989 12.877543158117197 99.83131636611772 105.8583216271535 0.5176643789661046
1.8295112612523332 12.852806329981407 92.06521613881209 110.2748331837238 0.5269658170748
1.8466073446960927 12.826932197136342 84.98551701973149 114.90107352618885 0.5365901148439444
1.8631946957345369 12.799660508387756 78.52237882434218 119.74928677799565 0.5465570210005846
1.8792778255239344 12.770930191282414 72.6086306606126 124.83094859030247 0.5568687476893308
1.8948272035239468 12.740795825079637 67.2011402276579 130.15598421787715 0.5675337367601486
1.9098767889870214 12.70954617822925 62.2551699786075 135.74410023745108 0.578597906612272
1.9242836194033388 12.676395103792647 57.71728615002441 141.61161509838035 0.5900797815429798
1.9381310855834355 12.642086207301567 53.57088174351971 147.77611753967457 0.6019975843696488
1.951362505353069 12.606214343324751 49.764177080357584 154.2565474838388 0.6143867241299088
1.9639807935986804 12.568954493599959 46.27615443583065 161.07337805748546 0.6272792093780806
1.975948625155844 12.530102924470043 43.06796870049064 168.23360894729956 0.640639820717241
1.9872610692539916 12.489992700791712 40.12947674970777 175.77378057173917 0.654557532181509
1.997906505458714 12.448255455696048 37.42639170458441 183.7202665270654 0.6690740816573659
2.0078140423892226 12.404864428029892 34.93860311121141 192.09611146758962 0.6841973842131707
2.01703552630335 12.360164475237582 32.654359463376146 200.91903092486498 0.6999388026065457
2.0255395003974783 12.31390831329345 30.551045933231006 210.2368467083475 0.7163986765454896
2.0332708951177576 12.265954500002596 28.61108481643726 220.0751560000041 0.7335763416629827
2.0402741520508973 12.216779024445932 26.831008814591375 230.46470533506158 0.7515137581065624
2.046489166587896 12.165899592391062 25.184840975772328 241.4616174613816 0.7703171514342184
2.051932902481201 12.113706982007526 23.6729808670635 253.08191856872284 0.7899336506176633
2.0565664983662786 12.059882248581669 22.273835666098677 265.40194039157427 0.8105382447367164
2.060400601544957 12.004624829231814 20.985017136806814 278.44226082589444 0.8320865814071923
2.0634143309186483 11.947881756268503 19.79649550491729 292.2847289369659 0.854728194972071
2.0655995614216813 11.889680525763886 18.69783821098613 306.96756617722815 0.8784770841924574
2.0669651739904387 11.830042487752705 17.683006652116582 322.5684718364215 0.9034333388419826
2.067466148236052 11.769049303470482 16.748446539472962 339.16145969683515 0.9297061996224618
