M[M_sun], R[km], Lambda[1], P_c[MeV/fm^3], rho_c[fm^-3]
0.23841724892012095 16.20908015294055 2780876.1263280716 3.453507347168396 0.169602847481901
0.24841550299679963 15.8661893705276 2282181.9057729016 3.635565185836708 0.17197867754573362
0.258695083092472 15.56301997755327 1881638.5803977482 3.8248004162380096 0.17437532976999384
0.26926151260536546 15.293603809147276 1558155.5237187662 4.020320658381808 0.17676714896177925
0.2801137322297343 15.053926518524298 1295491.4828544299 4.2224516471075315 0.17914602926674048
0.29124659260421704 14.839800302677295 1081240.4069266317 4.432562027992077 0.18154871756138408
0.30266656332500014 14.64849434089402 905575.462376726 4.650999406049905 0.1839790716338564
0.31436756777282976 14.47702635775147 761018.4679379639 4.87813101970734 0.1864387430388494
0.3263536462107504 14.323219224294101 630930.8689552861 5.111276146934877 0.18886814083109918
0.33862375997194116 14.185028769283559 542512.7206077446 5.353618858218387 0.19131923020080674
0.35117663096690627 14.060639124842416 460001.5640959576 5.6056598639901 0.19380029316948227
0.36401128636831287 13.948921032529025 391132.9710715468 5.867811688452079 0.1963169319999815
0.3771370035017105 13.84822307382736 333384.37990494946 6.136985974584054 0.19880953267467397
0.3905393631485749 13.75757923808524 284859.90995297214 6.416572072452168 0.2013319619747961
0.4042284048155337 13.675909281615146 243967.30544889506 6.707397312718605 0.2038889996566951
0.4182011191904876 13.602528085579385 209419.81572673886 7.009585056078404 0.20647255972100687
0.4324606658231206 13.536559433391801 180132.38942942934 7.3197078138936895 0.2090322937159016
0.4469997366778909 13.477174942481504 155249.25830967844 7.642374821159989 0.21163648729452697
0.4618250033547788 13.423934623806533 134066.69575417906 7.978119995386965 0.214285171062815
0.47693089270189104 13.376210279739542 115986.28186263848 8.32505414816973 0.2169413872123402
0.49232042057096703 13.333572582521715 100522.1349330803 8.683047408238746 0.21959438558731262
0.5079890790735122 13.295470930251794 87271.25786747508 9.055643426223385 0.22229552044282902
0.5239416876300382 13.261596218840513 75886.92949962866 9.44344728914891 0.22504762797582759
0.540175456420517 13.231575604707222 66094.82792675559 9.841107280742268 0.2277745117964526
0.5566811945176463 13.20508851441419 57659.98594109102 10.254667779205965 0.23054726434512016
0.5734658660007594 13.181773191292129 50372.19137141812 10.685155451866354 0.2333706318193026
0.5905305940442681 13.16142519224981 44068.14314408892 11.129659011264605 0.23619875449904468
0.6078572234095163 13.143656560545667 38605.84345077483 11.588861099780752 0.23904376280027984
0.6254648161100002 13.12838867606312 33864.67439955219 12.066910925813422 0.24194811619121182
0.6433348018589147 13.11540221514725 29506.31132578773 12.563567557833174 0.24490126009945354
0.661469938881396 13.104422871854602 26161.054676877087 13.073647044821165 0.24783274902378963
0.6798696971239357 13.0952661453567 23035.90581479495 13.604688150872049 0.2508228743828053
0.6985168957281775 13.087739395045618 20308.606673717088 14.15759712613386 0.25387340751154824
0.7174337693281558 13.081966927641204 17926.44812588529 14.726442476738951 0.25692094940692856
0.7366047663543152 13.077430615581203 15838.62999235048 15.316670226562602 0.2600160862854577
0.7560098288274621 13.074170669307714 14010.885263403616 15.931158475135348 0.2631771332527904
0.7756534342607558 13.072046441004533 12407.119767349503 16.567072560921815 0.2663640379305058
0.7955448885424566 13.070986405653281 10998.726176666252 17.223381633590467 0.26956378353183913
0.8156696467572496 13.070734855121012 9759.765107091584 17.906745005684755 0.27283547288064985
0.8360107926142172 13.071361693044185 8669.866141094682 18.617958440269078 0.2761786509763068
0.8565656100429683 13.072603939154158 7708.560200738851 19.348285027450494 0.27951060575176634
0.8773545121001177 13.074478156874394 6860.309031893377 20.10865217165324 0.282913368794391
0.8983245928768414 13.076841780014098 6111.554266273566 20.900311314879453 0.28638876155688836
0.9195132524428994 13.079748419574063 5449.592001637612 21.718040657111608 0.2898876993035957
0.9408798737468441 13.082875333667557 4863.579079166374 22.564775232861102 0.29343261779405977
0.9624340600066194 13.086269504746436 4344.43043104136 23.44633115682123 0.297060955337841
0.9841687456201935 13.090040557567248 3884.391885654447 24.363358784932885 0.30076833120915075
1.006066085750582 13.093826888901548 3475.9484951162312 25.30703428459167 0.3044691278767555
1.0281075167677842 13.09765477186023 3113.086068574119 26.289563095778906 0.30825647652968413
1.0503197766075894 13.101633142367337 2790.5691311692485 27.31244575038041 0.3121322383791992
1.0726279713437497 13.105273742463778 2503.458950661388 28.372231050670848 0.316065133015368
1.095083995841388 13.108964852792177 2247.8211267287556 29.468503859410855 0.32004528940854365
1.1176502418808578 13.112514579754606 2019.9287845229874 30.609802174929218 0.32411450022176397
1.1403331372479013 13.115869965197913 1816.5909379334805 31.79797869717656 0.3282736910248304
1.1630921729700758 13.118870830874124 1635.011565856191 33.027686247223166 0.33248568465817485
1.1859294210349831 13.12154733921985 1472.82249783502 34.302882761363016 0.33676976992365115
1.208834079898322 13.123921644747051 1327.7896297088084 35.630583039949926 0.34115957458551716
1.231795262142711 13.125769362776419 1197.8416015572514 37.0128078486776 0.34565394546884326
1.2547930740121722 13.127280128428417 1081.6022239326117 38.44616372796986 0.35021146227777966
1.2778109506338717 13.128171795536867 977.259421777383 39.93221504667144 0.3548459779501707
1.3008219048821061 13.128500459213244 883.8163407504669 41.47973407309522 0.35959771656678285
1.3238511271810303 13.128324527292609 799.8648680344085 43.091181600445786 0.36446883240768224
1.3468570159058462 13.127450157718473 724.4040525891508 44.769148353075245 0.36946112416647525
1.3698119438510425 13.125891192561799 656.6170399433898 46.50624615901945 0.37450942775900564
1.3927397231057659 13.123708387531378 595.5903305928061 48.31471370994652 0.37968424846061
1.4155640757592478 13.120627200152203 540.6617452410243 50.19865824271688 0.38499449465493585
1.438317081195646 13.11682607117843 491.2068118683499 52.161275412205235 0.3904429716206488
1.4609650390903335 13.112191548348845 446.59045611849376 54.20595241370071 0.3960311745299878
1.4835151309438592 13.106798819421652 406.3103867519113 56.3315704148637 0.4017306033215454
1.505898424978749 13.100384260663551 369.9875410006095 58.542114172293545 0.4075619515321949
1.528140883615177 13.093092127904582 337.1341818082184 60.84658392086344 0.4135541225279419
1.5501983623534308 13.084806549590946 307.4600986061101 63.24923695796383 0.419710190006262
1.5720583120783405 13.075585358403195 280.61490737742497 65.75459483448603 0.42603093235142364
1.593710930471074 13.065301889137885 256.2998257659078 68.36752862016172 0.4325221022936382
1.6151268359073805 13.053938951193809 234.27877703622087 71.09310175541937 0.43919853109240864
1.6363242416697512 13.041752727095968 214.3348776909948 73.93676108275245 0.44606731673439376
1.65721038537476 13.028172934747152 196.22712438556974 76.90190964860565 0.4531212247676705
1.6778263006956353 13.013550061290767 179.78839415622204 79.9950127580544 0.46036448915625794
1.6981052185286607 12.997628036062455 164.85675329030283 83.2255630105767 0.46782942797303845
1.7180601403405826 12.980601344002064 151.2883979888618 86.60063939191923 0.4755264353933857
1.7376666696894845 12.962400588976882 138.95676360858167 90.12777604263032 0.4834602420908167
1.7569441195950533 12.943089396545561 127.72575927913363 93.81503997171536 0.49163855945726515
1.7757965571101073 12.922416419214931 117.50470511225004 97.6711047879494 0.500080672010271
1.7942219131775825 12.900400798444146 108.19939991744158 101.70522675314741 0.5088024656716527
1.8122244699400254 12.877017665451513 99.69919732998397 105.92730447391257 0.517811087776331
1.829802080871507 12.852554899018864 91.95518317672929 110.34796914671553 0.5271193855607116
1.8468878830926978 12.826576085075764 84.88190267513112 114.97865208848307 0.5367511528220623
1.8634744551617974 12.799203365374218 78.42246543952838 119.83162100365625 0.546726029117073
1.8795393926299166 12.770374228927148 72.50999697787807 124.91714178650794 0.5570415945025933
1.895092664047961 12.740358823102618 67.1155956212519 130.2475865836525 0.5677155381603814
1.9101021503641853 12.708833948666925 62.173247995476906 135.84150273266135 0.5787892743181059
1.9245241545557334 12.6758051260381 57.64229726084357 141.7152393728823 0.5902811396390532
1.9383718444883675 12.64149109895056 53.4999265438118 147.8864194484543 0.6022097588221431
1.951604653754285 12.60560690327998 49.69887996838073 154.37402191433128 0.6146105785613004
1.9642030189108453 12.568287447890581 46.215271408495866 161.1977479005092 0.6275126980068442
1.9761612239255788 12.529514942300638 43.016519214459976 168.36556999708858 0.6408842075741239
1.9874525370134313 12.489170343614502 40.07706029485161 175.91459379513736 0.6548160740886375
1.998074245339098 12.447337893901995 37.375795827643614 183.87061353461598 0.6693478051622793
2.00798842617469 12.404054862308362 34.8950593878531 192.25511908369347 0.6844817701315742
2.017199003242617 12.359219499482283 32.61176505495481 201.0890374094157 0.7002404479525784
2.025690071483122 12.312954759415945 30.51226589387849 210.41872433233328 0.7167188706647659
2.0334179613797208 12.265151415890678 28.581507305854906 220.2681118793601 0.7339104723364019
2.0403927264900728 12.21570567463132 26.795486070088682 230.67142478278325 0.7518690762409954
2.0466097631788633 12.165013876726578 25.15744895858204 241.6814213365622 0.7706890738031813
2.052032472844885 12.112647452041463 23.643130664803124 253.31773767057547 0.7903298598919266
2.0566388890125347 12.058747064309959 22.24786492592868 265.6540606981545 0.8109572524335298
2.0604685486877194 12.003454609307335 20.95926727139909 278.7122564364828 0.8325304465851596
2.063471862400938 11.946647520504142 19.771146093835995 292.57304914522564 0.8551959323236894
2.065639703326658 11.888494012484186 18.676499069296884 307.2778168554263 0.8789769896369862
2.0669822284005988 11.828876775078237 17.66458732756287 322.9004760008999 0.9039610640510695
2.0674620451926393 11.767763760667213 16.73043757540381 339.51719215537787 0.9302644041455305
