M[M_sun], R[km], Lambda[1], P_c[MeV/fm^3], rho_c[fm^-3]
0.23841724892012095 16.20908015294055 2780876.1263280716 3.453507347168396 0.169602847481901
0.24842295393844027 15.866004713298832 2281797.8516656663 3.6357057660269896 0.1719804657789218
0.2587125236178302 15.562485341659784 1881058.2394142323 3.825089597518422 0.17437886735428082
0.2692858485623724 15.293012274254732 1557494.3437658534 4.020786566937292 0.1767728484689628
0.28014933334138564 15.053108152281276 1294651.885000345 4.22308967630039 0.17915349002827116
0.2912871862816978 14.8390706722619 1080460.0645437525 4.433380982343626 0.181557932451982
0.3027189428646341 14.647643931855951 904836.921861064 4.6520085539021725 0.18399000123350254
0.31443269834782395 14.476091373910656 760300.4119820044 4.879340007029044 0.18645134081931833
0.32642932450671674 14.32227125621385 640906.833588965 5.112755518260047 0.18888355604253435
0.3387103967381767 14.184056141873658 541851.1041085974 5.355326029953651 0.19133626455160938
0.3512733055573292 14.059801456400429 459415.59096408903 5.607605541239554 0.1938189931596961
0.3641200178234753 13.94791095315028 390597.91514453426 5.870007357703648 0.1963372642788797
0.3772586523935277 13.84723931296002 332878.74433571065 6.139545870766264 0.1988332377582561
0.39067645192278194 13.756652004934816 284415.4533245099 6.419414991755006 0.2013573006951144
0.4043774320632298 13.67513597414376 243578.17209007667 6.710536001690103 0.20391583393988244
0.4183632272055388 13.601737265673215 209050.94543830035 7.01317624294167 0.20650326264383312
0.4326380543442895 13.535852356126684 179801.01443810394 7.323632005520826 0.20906464206858996
0.4471881509177784 13.476442724890378 154952.794006231 7.646647392307859 0.21167045641538948
0.46203219645799387 13.423251058459131 133790.82962958075 7.982756921281803 0.21432067254731063
0.47715678656954574 13.375699508860961 115744.45354065677 8.330273135711 0.21698134510890385
0.4925582693620212 13.332903082585895 100305.63280783014 8.68867485880629 0.21963578783022109
0.5082458964247936 13.294942023646444 87076.55088110734 9.061697609011896 0.22233851513343825
0.5242180587582109 13.261185927669109 75714.40975496467 9.449948157361423 0.22509220654224985
0.5404645662343891 13.23118298025979 65937.3281273053 9.848344616402041 0.22782414055954742
0.556983293724792 13.204666722234654 57519.1503632086 10.262405387654052 0.23059839606712823
0.5737915636299576 13.18141323816944 50244.50563868515 10.693415605114305 0.23342318646424245
0.5908708960961454 13.161037802392364 43950.606028621856 11.138802492317934 0.23625692925511124
0.6082182480994579 13.143287374167636 38500.05648989492 11.598588814966345 0.239103583513739
0.6258442347937424 13.128112069676536 33770.81498190653 12.077250645943186 0.2420095966578875
0.6437343936912856 13.115091007135362 29661.401979626015 12.574961002833012 0.24496900606422267
0.6618900479012169 13.10421981626401 26085.3528998745 13.085724566840083 0.2479020220758342
0.680312344730874 13.095166752397136 22968.34488071569 13.617480905627943 0.25089367327489603
0.6989761804445922 13.087606520264986 20246.98683223828 14.171139049262132 0.25394595724414876
0.7179188101035316 13.081765010749764 17868.724381248943 14.741286183044265 0.25700047333518083
0.7371064643212812 13.077365594836133 15788.2590104069 15.332352441835825 0.2600974535728463
0.7565305589068833 13.074168664182341 13965.689061680687 15.947719481876652 0.2632601292911409
0.7762036477254928 13.071986968358836 12365.955635816606 16.585173858560964 0.2664547531881299
0.7961078778568454 13.070943725044527 10961.56644183702 17.242464442640305 0.2696562797083946
0.8162558949783149 13.070790639892051 9726.440865474588 17.92685789662985 0.27293001689961555
0.8366233324332806 13.07134221865404 8638.759333583781 18.639389385812773 0.2762773770842351
0.8572008510185196 13.072616612954379 7680.614877239534 19.37137036755464 0.27961589654358443
0.8779911648369463 13.074506683686618 6835.833510013234 20.132949171991015 0.2830205818643252
0.899007617217193 13.07694991237384 6052.680754938438 20.92588012293605 0.28649816654338833
0.9202160901553044 13.07982770947766 5429.0059668838585 21.745837046106164 0.2900066357653958
0.9416008958896263 13.082930051125107 4844.9447571686 22.593997588212552 0.2935541254088771
0.9631792485961281 13.086425975174214 4327.674726045768 23.477055247025362 0.29718516724509325
0.9849341183526901 13.090089975085837 3868.8486121390315 24.396325210742226 0.3009001450439299
1.0068574474972145 13.093951512542638 3462.0139851854833 25.34206714092151 0.3046064183314312
1.028920344602324 13.097780113118592 3100.435661306847 26.326367670349438 0.30839671824463966
1.0511402274011221 13.10161890417838 2779.0578773158545 27.35111808820804 0.31227575257020435
1.0734977525039315 13.105482547639067 2493.086163535631 28.414119950442466 0.3162205839630096
1.0959646869102058 13.109114412608811 2238.5095535975493 29.512495227675746 0.32020437310696376
1.1185632933940173 13.1126570824018 2011.278245202317 30.6560094118962 0.324276825009846
1.1412468035990986 13.11592188325625 1808.7824309374405 31.846522058719707 0.3284399617204548
1.1640376097159446 13.118982014650639 1627.994719653343 33.080181324979954 0.33266549077003055
1.1868973030982783 13.121654866379465 1466.3035392723714 34.35801255059085 0.3369540967068276
1.2098147108671768 13.123929242970393 1321.8460898477124 35.688498386869114 0.3413487038607109
1.2327956846708847 13.125868747953303 1192.5045497879494 37.07366472525623 0.3458474467771739
1.2558137200527926 13.127309037895081 1076.7260908079447 38.511892656212474 0.3504204548243111
1.2788393238407587 13.128143660653418 968.7389145766974 40.00126488267376 0.35506062731436305
1.3018913306220548 13.1285610598094 879.7249739547274 41.552299728485444 0.3598184225288125
1.3249256099797448 13.128283598688673 796.1631083906332 43.16747074736077 0.36469594042990655
1.3479487235699086 13.127368261672602 721.0130800083986 44.84937726841489 0.3696942831285947
1.370922400281547 13.125814272916521 653.5148948489428 46.592783933519286 0.3747609213458389
1.3938556234867312 13.123541887190443 592.7634653716349 48.40571494735788 0.37994343988132645
1.4167085142471723 13.120476515133229 538.0900137607567 50.294393608535195 0.38526187461517514
1.439474367763182 13.116662018054667 488.8153779217627 52.26203289697118 0.3907189353360967
1.4621335106592253 13.111932987115893 444.3920256207951 54.312034475186046 0.3963156128228356
1.484680169749547 13.106447002982184 404.33545699749584 56.445904383001746 0.4020371674875915
1.5070733873065794 13.099983416236647 368.16063108314256 58.66250329263875 0.40787898816277224
1.529329396923019 13.09271687858595 335.4803706997054 60.973406948655835 0.41388230056233277
1.5513766866663214 13.084299503978956 305.9354423842146 63.38289731829358 0.42004999127798526
1.5732636114928624 13.075025560857162 279.2055617023108 65.89551919608952 0.4263825645387419
1.5949163967895308 13.064701647320089 255.02656856018123 68.51617538969306 0.4328870922553246
1.616345544173951 13.053369239724796 233.1162567567465 71.24996678377339 0.4395777292349797
1.63751697194489 13.040862193335242 213.23116936699122 74.10237338903062 0.4464612983348836
1.658418773479199 13.027274717707611 195.21221838473272 77.07925911669585 0.4535411251690616
1.679027800508935 13.012606134660611 178.86197181708695 80.18339087727993 0.46080532628888354
1.6993214427407641 12.996717900677568 164.00775074569196 83.42460616684566 0.46828859963714436
1.719260165049486 12.979538186345351 150.50752674174507 86.81105566675252 0.47600512742668605
1.7388776833955073 12.961289373384147 138.2340522563347 90.35032283981647 0.4839592416340924
1.758113871333396 12.94177707392732 127.06806785001802 94.05052711910268 0.492158995412947
1.7769455561159488 12.920973967032785 116.89575664430089 97.92040618428408 0.5006246337768534
1.795373984305017 12.898847628988282 107.62360267058438 101.9692867412754 0.50937149701023
1.8133669458107724 12.875513431911592 99.1785681837562 106.20713589147108 0.5184062173811929
1.8309211449174794 12.85087765448895 91.47650753362673 110.64465955536352 0.5277423663074851
1.8479897707024717 12.824793970352976 84.43370319918648 115.29337752863844 0.5374044615074266
1.8645703532803304 12.797402959831782 78.01128574965732 120.16420179628973 0.5474062984722381
1.8806243635495175 12.768492614178037 72.13545053639486 125.26683633213767 0.5577428515679803
1.896143604351893 12.738268379052869 66.76614356844993 130.6192430056271 0.5684531572966186
1.9111124809888533 12.706556334700355 61.84395572667252 136.2367097082806 0.579565741615895
1.9255322697545183 12.673640440000954 57.34645420504408 142.13571040593115 0.5910981803090662
1.939306330885555 12.63891578689803 53.22384324296399 148.33400717457445 0.603070729242178
1.952514418982041 12.602937135452526 49.43950687072231 154.85073774531864 0.6155189885943071
1.9650981111971775 12.565580314572175 45.97415385509216 161.69988689392838 0.6284511576123633
1.9770217370919523 12.526699216454254 42.7948732094209 168.90111503857062 0.6418760166694306
1.9882781827715812 12.486200790920641 39.870221931987075 176.48609413282955 0.6558653845416316
1.9988415901113152 12.444227689444478 37.18689877410459 184.48084026939222 0.6704587910299468
2.0087052802546914 12.400664199877774 34.71462450486671 192.90051938776475 0.6856360718103778
2.0178653822358354 12.355791915410673 32.44695676717958 201.77912049013594 0.701464873892714
2.026303773384241 12.309371926583516 30.358311681934023 211.1570372095755 0.7180186646487547
2.033977096702897 12.261356094039952 28.43709028893915 221.05142691680555 0.7352668942388316
2.0409079262551035 12.211858373084306 26.665038382901045 231.51066524161007 0.7533115982555303
2.0470653231296203 12.160893495154207 25.03120467862669 242.57382127701027 0.772199072203533
2.052443926814974 12.108414457019009 23.526686119225733 254.275220976186 0.7919385665770714
2.0570008547159477 12.05444489516593 22.140157018079364 266.6744101503931 0.8126477030291479
2.0607452736870178 11.998957272628113 20.859767637818408 279.8086322193222 0.8343328574869836
2.063685703227374 11.941990503370858 19.678414476872167 293.74389760654503 0.8570953814179779
2.0657827043481256 11.883602110147567 18.589771991756926 308.5252786478742 0.8809626894732565
