M[M_sun], R[km], Lambda[1], P_c[MeV/fm^3], rho_c[fm^-3]
0.23841724892012095 16.20908015294055 2780876.1263280716 3.453507347168396 0.169602847481901
0.24841241179275342 15.866321268319505 2282225.9203752666 3.6355239060463567 0.17197815245118822
0.25869269439818265 15.562973668922792 1881817.7311521755 3.824715504347808 0.17437429103412502
0.2692535386470568 15.293763944802132 1558237.3136443624 4.020183859339978 0.1767654754850585
0.280106026494877 15.054020411126997 1295611.611876957 4.222264316655429 0.17914383872773973
0.291232321148445 14.840011671100877 1081352.9455971082 4.432321584279174 0.18154601208396015
0.3026518377962772 14.648633303406273 905702.8358875092 4.650703131166948 0.1839758628217397
0.3143498923502709 14.477290373234073 761230.5027473117 4.877776085002682 0.186435044580305
0.326333523333334 14.323427415093867 641774.2884621725 5.110841849177832 0.18886361540084598
0.33859966152807636 14.185259412778528 542668.6091516212 5.353117700199413 0.19131422958995642
0.35114802293150654 14.060956959291785 460164.90129424824 5.605088706727822 0.19379480375173935
0.36397995896192903 13.949136087874553 391281.949267196 5.867167163751984 0.19631096358923394
0.37709949762898715 13.848416255030719 333526.8301814004 6.136234562295166 0.19880257446627608
0.390499613609311 13.757825630635885 284998.02193992963 6.415737606649515 0.20132452444550447
0.4041852657876426 13.676216690146012 244097.41952053984 6.706476056022794 0.20388112335442746
0.4181542046794158 13.602784530854127 209537.6579425077 7.008531025353256 0.20646354826456004
0.4324097025539117 13.53681258733767 180227.4024784285 7.31855607469693 0.20902279956544162
0.44694355881182324 13.477423598862048 155333.7671311676 7.641120865578976 0.21162651770778085
0.4617645635313744 13.424131822437149 134139.50927683586 7.9767591394874655 0.21427475200378482
0.4768666429467185 13.37638902860274 116054.75770495001 8.323522529087622 0.21692966074693407
0.4922523208059918 13.333745121982536 100586.0754991261 8.681395957592475 0.219582235545302
0.5079126453607571 13.295690170464589 87329.1110757248 9.053866787805738 0.22228290337760986
0.5238628243596176 13.261789104656454 75941.1001623557 9.441539612943009 0.2250345464199989
0.540090209724198 13.231772553336894 66146.73569380448 9.83898357584102 0.22775994886164042
0.5565907195524931 13.205210094794158 57702.248240504996 10.252397327928191 0.23053226073200805
0.5733686022724215 13.181838614502936 50409.64003135338 10.682731724867978 0.23335521102649073
0.5904295576534734 13.161432393958034 44099.08265754939 11.126976207507113 0.23618168534854758
0.6077541222941889 13.14373099771378 38635.09631978511 11.586006938419416 0.23902621109716093
0.6253500002065483 13.128517229457415 33894.97769358419 12.0638772657772 0.24193007790464105
0.6432191129847168 13.1155153689703 29771.656760815367 12.560224880116365 0.24488138437908621
0.661343835781164 13.104475923361363 26185.06842815803 13.07010374517169 0.24781242571734954
0.6797426133685596 13.095298654957332 23055.522081978645 13.600935096678201 0.2508021038698118
0.6983803257531892 13.087856188282263 20327.82754344608 14.153624369941058 0.25385212379898064
0.7172945405445147 13.081972103733255 17941.651575164797 14.722088011426585 0.25689762071933836
0.7364535461670215 13.077465180268952 15853.561617931058 15.312069877530345 0.2599922173412254
0.755854867344135 13.07420876323358 14024.392459389808 15.926300435418513 0.2631527870245119
0.7754961462014068 13.07206590782152 12419.709707948592 16.561762928015945 0.26633742852787906
0.795375681908964 13.07098845396118 11010.223775956705 17.21778421049203 0.26953665229377993
0.8154912464932018 13.070718284800591 9769.867923600812 17.90084555730715 0.27280774153358384
0.8358321375129038 13.071300098358615 8678.28490264073 18.61152596273198 0.27614841403623075
0.8563786518773068 13.07258444691912 7716.856810049176 19.34151416077173 0.27947972425248213
0.8771607518038894 13.0744546451885 6867.7304843796055 20.10152607432367 0.28288192414028834
0.8981296710613526 13.076789890297794 6117.971547021071 20.892812360814567 0.2863566746889195
0.9193076052157526 13.079708990633547 5455.715168726605 21.709888771260268 0.28985281864120654
0.9406782625929264 13.082948051398537 4869.4864520666815 22.556205327543257 0.29339698381651563
0.9622125214802293 13.086254215464127 4349.413476233736 23.437321030462545 0.29702452903612925
0.9839428782645223 13.089954534457288 3888.672139946248 24.353579464197967 0.3007287951945106
1.0058292937849846 13.093753717252467 3479.9323506664596 25.296761282711213 0.30442886895279647
1.0278691583403154 13.097608664232562 3116.8116536193206 26.278770781538746 0.3082153530368836
1.0500623954859056 13.101462852278878 2793.7725143407265 27.301105984609645 0.31209015617258334
1.07238863684152 13.105303657677824 2506.428194227528 28.359948714012138 0.31601955290027167
1.0948332882440555 13.109038309442141 2250.659882450493 29.45560532816891 0.3199986451204687
1.1173888064901487 13.112466081080205 2022.5079155840021 30.5962542291562 0.3240669066504772
1.1400610274713534 13.115819292118713 1818.8629215465214 31.783746109627366 0.32822494157367754
1.1628150972031883 13.118833002126308 1637.0403928761054 33.01229583204492 0.3324329694164551
1.185646200033708 13.121530854951757 1474.733103803232 34.28672026400693 0.33671573051614617
1.2085447508171294 13.123834072254699 1329.4575466929589 35.61360427800212 0.34110412847128846
1.2315030421421076 13.125787781168784 1199.4131332331638 36.99496713991218 0.34559721892154505
1.2544912602102398 13.127224203557429 1082.9932971220244 38.42689575626744 0.3501501975868703
1.2775009874638499 13.128151891317213 978.6054397107393 39.91197404628754 0.3547830564703445
1.3005106676596925 13.128473361978257 884.9896208439567 41.458462964827206 0.3595330212176059
1.323544450144403 13.128309618829798 800.9273897392465 43.06881957065321 0.3644022620426371
1.3465263051082117 13.127434028067773 725.4074901368379 44.74563207068842 0.36939278182417873
1.3694983241527832 13.125943381829908 657.4797491101323 46.48088205352809 0.37443571532644415
1.3924046450585998 13.123697026364534 596.401648253689 48.28804204634471 0.3796082817311624
1.4152260850592058 13.12069745784184 541.4586301443269 50.17059977579249 0.38491612997009345
1.437978555219684 13.116895453281792 491.88236916153045 52.131745828036486 0.39036209332379795
1.4606313487804612 13.112286513716109 447.21055999720795 54.174863166560684 0.3959478147964135
1.4831728139444893 13.106852957150261 406.9003944913878 56.298064728630244 0.40164076437932
1.5055500520024598 13.100454838800989 370.52118067582586 58.5068350052168 0.4074690462245764
1.527796626925759 13.09325899350879 337.6507608174067 60.80942040933955 0.4134579550702233
1.5498522702052804 13.084966071496067 307.9018052304529 63.210071023095296 0.41961061946460154
1.5717110495929587 13.075729731172697 281.0295549204366 65.7133016000606 0.4259278981408922
1.5933603905823035 13.06547653349392 256.6846982456505 68.32397392771622 0.4324151573154387
1.6147873233527046 13.054283191749224 234.64502255360208 71.04714049573691 0.43908742650469595
1.6359605768923737 13.041834888394597 214.6244059856999 73.88823844810652 0.4459518843387741
1.6568534614792352 13.028409278289605 196.5194132473763 76.84965291091791 0.4529969091681038
1.6774727842764994 13.013803901854812 180.05246937358427 79.93982525939022 0.4602353409368792
1.697754885541472 12.997961140854283 165.10936959488103 83.16725307519084 0.467694913074024
1.7177226644112527 12.980994447945527 151.5167999920064 86.53899986349549 0.47538620692856653
1.7373432500179606 12.96288490910397 139.17415322713362 90.06258534780874 0.4833140700166593
1.7565836122879057 12.943375987484309 127.91456444287167 93.7460612144538 0.49148611366200434
1.775442742891397 12.922771091420252 117.68632540372639 97.59808234517214 0.4999213411057623
1.7938794698571268 12.90076899363416 108.36052780420803 101.62788441345512 0.5086357981829663
1.8119017365454004 12.877543683267636 99.85067162248203 105.84534601011643 0.5176367831589308
1.8294651870154248 12.85298012473762 92.09505508357043 110.26107649678532 0.5269369312367268
1.8465565065937013 12.827080532812175 85.01147203007125 114.88648133680745 0.5365598243022689
1.863145999338164 12.799724964125161 78.54357781766737 119.73380022050269 0.5465252316214804
1.8792331892570338 12.771075035401266 72.62935350730592 124.81473625190291 0.5568362364105842
1.8947913317588176 12.7409446329656 67.21505717727739 130.1387546304588 0.5674995415394076
1.9098111149522843 12.709514701079911 62.26869192074097 135.725779891584 0.5785619124362388
1.9242452536157366 12.676619889234999 57.73722000109546 141.5921247154827 0.590041908695031
1.9380879194713974 12.642226639252012 53.58425030929108 147.75537141131912 0.6019576775495956
1.9513242398568205 12.606331392072168 49.77429308175116 154.23445256441494 0.6143446209624064
1.9639477245951722 12.56909066113243 46.28467882405868 161.0498334072859 0.6272347548660292
1.9759051579885087 12.53032455072923 43.08382747540226 168.20878980112516 0.6405938566003007
1.9872238275799368 12.490106719723363 40.13832941307452 175.7472968417733 0.6545089063927656
1.9978718378985245 12.448394935242655 37.43427407161238 183.69199006962677 0.6690226012111453
2.0077827258117433 12.40501581784629 34.94788810685936 192.06620640900402 0.6841438988659958
2.0170039880719752 12.360307572578337 32.663548076175005 200.88705770157407 0.6998820719822472
2.0255157381079822 12.31410193445838 30.55735786739049 210.20264134079284 0.7163384582663046
2.033241110932061 12.266237030400983 28.622930951920612 220.0388675061492 0.7335135029512027
2.04024034966435 12.216956338002175 26.83867032966373 230.42582893865708 0.7514469357113008
2.046472816239944 12.166202166541138 25.193750807145666 241.4202807885976 0.7702472071111066
2.051909421835726 12.113850385493926 23.67647528537211 253.037570719777 0.789859139991052
2.0565539581540127 12.060122303965848 22.280126464890994 265.3543298613507 0.8104588078743251
2.060384690950712 12.00480936768243 20.989760547025885 278.3914871731494 0.8320031109523852
2.063416264300355 11.948166976000376 19.801287367332282 292.23050994871346 0.8546402363578424
2.0655949394118496 11.889899541701107 18.70147713945889 306.9092241175536 0.878383077908746
2.066962014739718 11.830297818036811 17.687763687723777 322.5060399136536 0.9033341024376798
2.0674723644160977 11.769330685035301 16.75216609596686 339.0945667137214 0.9296012331937906
