M[M_sun], R[km], Lambda[1], P_c[MeV/fm^3], rho_c[fm^-3]
0.23841724892012095 16.20908015294055 2780876.1263280716 3.453507347168396 0.169602847481901
0.24841255679471505 15.866322932253043 2282378.529468852 3.635529404131823 0.17197822238891475
0.2586929512224616 15.562973799943695 1881783.3359673838 3.8247268137476014 0.17437442938317357
0.26925600241424913 15.293680885944948 1558332.5357332947 4.020202079448665 0.1767656983735183
0.28010663078154197 15.05403067126603 1295712.5342590637 4.222289266820787 0.17914413048121428
0.2912339567907748 14.839973579895387 1081356.63387723 4.432353608288125 0.18154637241874366
0.30265254062742447 14.648689109820982 905763.89279597 4.650742590924584 0.18397629019157666
0.314353185472037 14.477230631462513 761209.3722924029 4.8778233571601985 0.18643553716137012
0.32633550381197163 14.323448508046052 641752.7341064791 5.110899690915608 0.1888642181180965
0.3386041471816125 14.185116848678538 542625.8886682237 5.35318444629841 0.19131489559000875
0.35115226776344327 14.06085605110639 460138.045684125 5.60516477515467 0.19379553484875867
0.36398463015571325 13.949057753540751 391259.1035107037 5.867253002996298 0.196311758475556
0.3771054913026736 13.848389450538823 333512.9724575976 6.136334636310886 0.19880350116905549
0.3905062629168736 13.75775691675683 284977.173737018 6.415848741234119 0.20132551497947923
0.4041617650708295 13.67687161202665 244294.92093975368 6.706598748816499 0.20388217231888403
0.418159400108238 13.602745894847239 209510.28347719487 7.008671399879353 0.20646474839933598
0.43241589233430633 13.536809699099651 180219.89502480256 7.318709461131126 0.20902406397833032
0.44695192505167297 13.477366010682665 155322.99578624952 7.641287864157725 0.21162784543169907
0.4617716748100541 13.424169686148378 132637.98706949287 7.976940373883777 0.21427613958043726
0.4768745045320998 13.376380268192653 116045.6421653579 8.323726503558715 0.21693122242738513
0.4922609163033045 13.333774046400917 100577.27587666555 8.681615889662464 0.21958385362810448
0.5079242854364104 13.295612924044248 87320.67002413474 9.054103390653523 0.22228458364835707
0.5238720807295366 13.261711281667829 75933.14472651096 9.441793665500562 0.22503628854096513
0.5401052995236236 13.231850043058422 66142.24729093729 9.839266395482397 0.22776188824785107
0.5566031746443626 13.20520246712373 57694.71152877062 10.252699688817705 0.2305342587954992
0.5733810883897397 13.181790181969017 50403.835618171935 10.683054496376776 0.23335726463754763
0.5904413541011697 13.16145739108144 44094.590767918045 11.127333477717773 0.23618395845517226
0.6077663223828205 13.143765096673292 38632.91196733636 11.586387026737993 0.2390285484553135
0.6253662057407364 13.128485955761516 33890.307543914125 12.064281256165145 0.24193248005066353
0.6432349121974573 13.115460129640518 29768.170274228058 12.56067001840685 0.2448840311924903
0.661361436046216 13.104512206329547 26182.539854684037 13.070575597909418 0.24781513212344897
0.6797576180112457 13.09529138128694 23053.44886680165 13.602837879230728 0.250811325167172
0.6976840109034448 13.087652925711268 20417.30497625298 14.18045543429166 0.31921404883754234
0.7108541076621132 13.077352995068098 18638.192559827512 14.819051349989563 0.4653562735761193
0.7193181309629083 13.060331602398563 17470.58319324825 15.557258819038283 0.6030859334484386
0.7248153275465204 13.035782705892885 16613.295799657404 16.40338930620161 0.7344301125563834
0.7280552024519668 13.004416745863852 15957.11002972623 17.366797758941793 0.8659225786541864
0.7295866530541477 12.966231669529469 15427.619088299572 18.42839600715352 0.9741588546839843
0.7300948188632466 12.921244900459214 14948.130728771368 19.58659958674479 1.0747892075617729
0.7298994245542612 12.870211387233145 14495.015656981137 20.841529442519565 1.1747692358111037
0.7291696097913172 12.813406378712092 14051.254419242634 22.18791785160064 1.2647083259560405
0.7281399445834651 12.751172443747022 13602.034902517185 23.630639636599327 1.3507599091090687
0.7269658201197405 12.683329589117115 13133.087458913218 25.174467715842248 1.4334957107319912
0.7257590843897002 12.610446109110635 12644.186927975768 26.801416321758992 1.5129139976678858
0.7246848341781283 12.533160181905636 12130.735910602238 28.525831305499757 1.5908938363202942
0.7237761644590778 12.451410132621453 11592.942183463145 30.355363343017704 1.668170417836905
0.7231614988197071 12.365618631364828 11030.962732813125 32.28824714949584 1.7440330456830757
0.7228499210966817 12.276334223262992 10451.871562735476 34.30717427534632 1.8227794942145088
0.7228498682025826 12.183784428312247 9863.451668202932 36.44471142647888 1.911233787544815
0.7232155409816325 12.089136638150983 9273.112715054753 38.709351214738724 2.013945379978849
0.72385820124546 11.993257648555158 8693.7937601966 41.10090454716531 2.1432442872408286
0.7248111302994414 11.89501089295244 8122.039418634049 43.60102707461055 2.194474832322137
0.7262999638872938 11.791951027559103 7537.360165202468 46.21625454117685 2.224331255608756
0.7285438766519202 11.685418945890868 6944.800005540331 48.93938629093809 2.247247720036987
0.7316496386181295 11.576338082092386 6352.10097349042 51.734456144917424 2.2672290635210577
0.735689027085857 11.466158726358644 5770.3412776087525 54.62162837097815 2.2877818273435384
0.740651554495168 11.355774592414189 5210.250672580856 57.623131505747146 2.3090879067748875
0.7465758338812863 11.245901725332596 4676.811110427501 60.74157723058587 2.3311688295443775
0.7533986517632992 11.137355702467515 4177.685890930199 63.95480299684091 2.3538506212216888
0.7611239790075146 11.0308071287884 3715.7568504425326 67.27251573815678 2.3771975972221346
0.7697078002953097 10.926814008549242 3292.9914388939537 70.72129702277057 2.4014023138701956
0.7790991388391345 10.825677178211595 2909.4901230483365 74.30511379270204 2.4264854631283512
0.7892505752721173 10.72774473295172 2564.6314742695627 78.0284071252 2.452470607325334
0.8001051472783434 10.633201108975609 2256.8897822551567 81.85723458044957 2.47908759665873
0.81162061753314 10.54207096271084 1983.3590065501855 85.83804614313775 2.506677819910159
0.8237403400844446 10.454671715539726 1741.75081158674 89.97713674843052 2.5352765783119957
0.8363980579445404 10.370862342803768 1529.1673388573552 94.28051420295958 2.5649160262545183
0.84954725204515 10.290519723127387 1342.245656260225 98.75470814639668 2.5956312669404573
0.8631291787013741 10.21357495865451 1178.6813553040547 103.38842800588388 2.627319515625042
0.8771011598071263 10.140042271006225 1035.9217393086299 108.19728487787904 2.6600824925651883
0.8914020176079843 10.069741324576285 911.1411783331482 113.20240402205422 2.6940635470973975
0.9059978531563424 10.002328488440886 802.1066802138762 118.41245025915771 2.729309184589743
0.9208149100427507 9.93791904803707 707.068474194635 123.83674686758464 2.7658672920060146
0.935820895760334 9.876208812249105 624.2800383730586 129.48536614209027 2.803785846688951
0.9509798155677985 9.816851445142847 551.8304544041715 135.36926708123045 2.843117304449898
0.9662336981021924 9.759989046760515 488.6659009903117 141.4999527568374 2.883935216202843
0.9815461371777948 9.70512855188921 433.3226126603243 147.87969837621137 2.9262268805399616
0.9968671576793073 9.652342798285233 385.07994587618606 154.52982896297786 2.9701249032576844
1.0121760438665122 9.601276974214269 342.7170577900763 161.4693328115996 3.0157124576062873
1.0274230654384864 9.551791711948336 305.55423266975305 168.71389056208716 3.063092123970313
1.0425688339876906 9.50380851063364 272.92177859202934 176.2801040946988 3.1123581521315193
1.0575908505714744 9.457050205889269 244.22210836403087 184.18569914016373 3.1635833826749025
1.0724578557379296 9.411440724132378 218.9313860689197 192.44995510992243 3.216866492109848
1.0871177941642067 9.366820073229643 196.61535160632104 201.0936109698827 3.272331392496361
1.101546230695462 9.32300857372983 176.90381551406506 210.13873123420632 3.330063371754387
1.1157130497674361 9.280015049105035 159.46059856631197 219.6094606340313 3.390199090253535
1.129612718278845 9.237571215411537 144.0159827774886 229.53149694963264 3.4528712710522957
1.1431990005536132 9.1955636743591 130.27590123878625 239.93257501298294 3.5181974139204555
1.156418240950507 9.154004919232957 118.08231314672584 250.8394223074528 3.5863347328680812
1.1692961279471425 9.112586671481681 107.1992344964717 262.2728706188011 3.657295384540891
1.1817508374933048 9.07150205919069 97.52225255504021 274.2795747405898 3.731400812056113
1.1938172551709632 9.0304358903537 88.8520531869588 286.8974484915784 3.808792167498313
1.2054364728710183 8.989312451062855 81.11170070300854 300.16680061622475 3.889689078937722
1.2165958168685536 8.948112419959385 74.16655460562411 314.1318686348227 3.974299944139275
1.2272730210686325 8.906788539165055 67.94147202257962 328.83999792200717 4.062839816066059
1.2374688483452938 8.865162986308475 62.336871716007785 344.30864637909605 4.15527994688335
1.2471187228205889 8.823350167642115 57.302660974320716 360.6220334671318 4.252111551489395
1.2562425272017925 8.781154192652764 52.77145762613975 377.84278887210957 4.353650751753999
1.2648120270530274 8.738536619471928 48.6767040178602 396.0261583799249 4.46008939180623
1.2728012135106246 8.69549193900123 44.9817661223518 415.2143378926277 4.5715250707186295
1.2802182266371978 8.651997240027166 41.64106767381696 435.5196888329201 4.688606496434757
1.2870416038878176 8.607963561363679 38.61709928573787 457.00539162584124 4.811530470086694
1.2932398313675761 8.563348827429667 35.86887962803797 479.74494053742256 4.940559867696387
1.298830063995695 8.518152218247009 33.377921111703095 503.87156352584236 5.0764238126743235
1.303779701503253 8.472354806578238 31.072530175501594 529.4286767103902 5.219027262641726
1.3080904731185428 8.425891316634797 29.059874630884135 556.5951108134963 5.369439098413741
1.3117448620096785 8.378783282645598 27.18294626950585 585.4294954143799 5.527539143371261
1.3147478150665601 8.331013563795562 25.47883402541382 616.1238583676624 5.694467281159901
1.317080422926098 8.282594438839748 23.922582661151097 648.7781374072382 5.870317465054547
1.3187522574424246 8.233496236360647 22.50543244717155 683.5811090441813 6.0559914042543435
1.3197479691099971 8.18372630030212 21.209811503382575 720.7142737033889 6.252268180466037
1.3200580160340616 8.13329500878029 20.02791969107226 760.3315884180307 6.45946045461022
