M[M_sun], R[km], Lambda[1], P_c[MeV/fm^3], rho_c[fm^-3]
0.23841724892012095 16.20908015294055 2780876.1263280716 3.453507347168396 0.169602847481901
0.24841243849392755 15.86639284664924 2282275.647759024 3.6355379088145767 0.17197833057169587
0.25869345630727675 15.562984197166523 1881794.2940278328 3.824744307675995 0.1743746433881953
0.26925652172455755 15.29372642791618 1558235.0899736101 4.020230263276638 0.1767660431491789
0.2801086065574585 15.053997681797343 1295621.5524479258 4.222327861155951 0.17914458178208628
0.29123639342649726 14.839959206599355 1081357.3502878025 4.432403144970822 0.18154692980647935
0.3026570376900235 14.648611264193576 905690.0414584413 4.6508036298233115 0.1839769512748108
0.31435813053479783 14.477109446953406 761123.368542716 4.87789648095568 0.18643629911933776
0.3263408644193499 14.32336277704534 641682.088885596 5.110989164717292 0.1888651504449217
0.3386079412319573 14.185110650182738 542607.1376139367 5.35328769424928 0.1913159258096278
0.35115719436660586 14.06083064161512 460130.230898522 5.605282443854637 0.19379666576784532
0.36398972614004443 13.949073301378185 391235.13985429995 5.867385786263295 0.1963129880716874
0.37711243035750097 13.848414609261061 333479.1559350259 6.136489439562035 0.19880493467406746
0.3905151980780805 13.75769787075149 281138.7227907745 6.416020654305324 0.20132704722741396
0.4042010604586286 13.676094691286044 244050.53217278217 6.706788541566997 0.20388379495574294
0.4181692859188887 13.602686207055472 209483.22827355418 7.008888545054722 0.2064666048862901
0.4324274747754292 13.536740598139971 180195.20984834185 7.318946734886871 0.20902601990094158
0.4469620505132963 13.47733844523547 155306.92437694754 7.64154619507262 0.21162989929429538
0.46178521891226654 13.424115957738714 134115.53878510767 7.9772207267941075 0.21427828603365326
0.4768884378142617 13.376333359755561 116032.52663942367 8.324042034246645 0.21693363821061726
0.4922751899208626 13.333725444753403 100566.39271448596 8.681956106000891 0.21958635666554852
0.5079404629701716 13.295591458548344 87306.43976154189 9.054469395951353 0.2222871828900865
0.5238911833479457 13.261713640696067 75922.56836268013 9.44218666478722 0.22503898346481707
0.5401194056647192 13.23169323305438 66129.5349939996 9.839703896564663 0.22776488833498068
0.5566224025943787 13.205206520261306 57688.17361284109 10.253167419596915 0.23053734965753203
0.5733981512763441 13.181884386442384 50398.3839756573 10.683553801802416 0.23336044143325266
0.5904639580951216 13.161453267814347 44089.21490120891 11.127886152061787 0.23618747480687244
0.6077921366863982 13.143752438939364 38295.85839522951 11.58697500025364 0.2390321642062406
0.6253878009323446 13.128492171842025 33884.9332602008 12.064906205786173 0.24193619603077396
0.643258723152453 13.115469881921957 29762.67715506731 12.561358623718238 0.2448881256723571
0.6613845108215805 13.104379349548406 26175.797789431825 13.071305530269294 0.24781931879702948
0.6797850505994114 13.095284834586934 23050.133381909043 13.60220802039142 0.25080914860648745
0.6984271492809793 13.087784926433278 20321.450665466098 14.154971805723955 0.2538593425746907
0.7173450311575785 13.08196000514742 17935.731996450995 14.723564901381051 0.2569055330350606
0.7365080170770664 13.077552823074575 15735.409109352051 15.313630158165516 0.2600003128685879
0.7559079664547459 13.074183754457136 14019.281278231954 15.92794811075209 0.26316104440447136
0.7755503737061556 13.072056133309687 12415.746993005412 16.563563755645923 0.26634645343568664
0.7954349424281354 13.07094471089966 11005.977468014285 17.219682639853744 0.2695458541600755
0.8155493283127491 13.070722211310052 9766.48742089517 17.90284641579424 0.2728171469046599
0.8358932772688973 13.071302743560251 8675.231386301135 18.613707588458844 0.2761586691340513
0.8564487196192283 13.072628284110522 7713.875476294741 19.343810546794423 0.279490197925452
0.8772213387795131 13.074487117879006 6865.473611891071 20.103942931844355 0.2828925887783418
0.8981931159511645 13.076805303117693 6115.788226914065 20.89535566707829 0.28636755710419803
0.9193777771465779 13.07971984428778 5453.536136661521 21.712653502905656 0.28986464850154536
0.9407560542223367 13.082950849202842 4867.246509504553 22.55911182256138 0.2934090691283559
0.962288835467805 13.086248471593665 4347.655650906687 23.44037681759686 0.29703688302759285
0.9840229934777713 13.090003576279566 3887.230882863633 24.356896099761933 0.3007422037487208
1.00591124791113 13.09376422497183 3478.647687170015 25.30024533835016 0.3044425226377339
1.0279469216050436 13.097601807219558 3115.559203878502 26.282430948878332 0.3082292998940533
1.050147555273436 13.101516616896308 2792.7483675707585 27.30495180568979 0.31210442812851025
1.0724724533014207 13.105336022973177 2505.5378186620765 28.36411417190326 0.3160350110378706
1.0949180713012356 13.109003196741282 2249.777237285822 29.45997974963478 0.3200144641134368
1.1174861181656541 13.112565030811634 2021.6378872041394 30.60084887893701 0.32408304753231604
1.1401571213918025 13.115849707765912 1818.1274034236708 31.788572933076747 0.328241474406738
1.1629158595162306 13.118918431722996 1636.4440026501604 33.01751527971751 0.33245084706579187
1.185747337080174 13.121543303350766 1474.0334980290957 34.29220153453756 0.33673405717726324
1.2086426165130533 13.123849619646998 1328.8529945614953 35.61936235309335 0.3411229321326053
1.231598663009641 13.125770928006977 1198.8922148383224 37.00101750975737 0.34561645675540625
1.2545955484377018 13.127235604642824 1082.477899177686 38.43343010594778 0.3501709742892468
1.2776080515023789 13.128171064106768 978.1475957352278 39.91883835531445 0.35480439496517013
1.3006156546442513 13.12849015934648 884.6052006472753 41.46567658754225 0.3595549612046766
1.3236583516862743 13.128390916914702 800.5341876139311 43.076403127542704 0.36442483781751783
1.3466473346416223 13.127454528835715 725.0659625518614 44.75360703572096 0.36941595843777314
1.3696144671778387 13.125982988095558 657.1991074664704 46.48948359101645 0.3744607128668562
1.3925134882208583 13.123669400991758 596.1704658965434 48.297086971732476 0.3796340436562551
1.415345726660572 13.120674633903535 541.1798913742936 50.18011495851529 0.384942704989224
1.4381029652435948 13.11689111728521 491.6207783765357 52.14175985597408 0.3903895206495463
1.4607444901463105 13.112241331278133 446.9998241042922 54.185406062260185 0.3959760835085072
1.4832881530879158 13.106827994995765 406.6981504415505 56.309426982082044 0.40167123003891864
1.5056671548425098 13.100420461142598 370.3429154261157 58.518798620977435 0.4075005515999741
1.5279102539582374 13.093148396973188 337.45212135791667 60.82202297617332 0.41349056654216004
1.5499631834407885 13.08490628804285 307.77292620182726 63.223352575852196 0.41964438481212957
1.571823944063574 13.075661387484535 280.8822345080282 65.72730447793211 0.42596283789523054
1.5934808275450019 13.065420252606689 256.54721995339787 68.33874361669346 0.4324514230764164
1.6149143541275714 13.054249153164807 234.52289400120313 71.06272619423314 0.4391251026392841
1.6360888314298965 13.041836525728515 214.53307295646704 73.90469264234738 0.4459910278657708
1.6569712739277913 13.028320990947908 196.4232611657015 76.86737318778727 0.45303906462864296
1.6775835740058591 13.013654550974161 179.95882020749235 79.95853926409406 0.4602791349199994
1.697868868771713 12.997795895151956 165.0135499122436 83.18702579191921 0.4677405266555922
1.7178502203487924 12.980957898502401 151.4478912982773 86.5599015242338 0.47543375771087226
1.737471924588958 12.962831191405431 139.09847249536188 90.08469107169351 0.48336363597879295
1.7567005274385135 12.943282946221053 127.86026901469819 93.76945131471739 0.49153780671327796
1.7755715731081145 12.922747229166614 117.63191379886996 97.62284348316152 0.4999753685302425
1.7940027662742293 12.900659979826953 108.2996408862761 101.65411022949812 0.5086923130351938
1.8120195521658558 12.877412982000056 99.79766598424516 105.8731369293022 0.5176958873113454
1.8295668109947631 12.852729680309146 92.03476257422551 110.29054034550381 0.5269987984556946
1.8466643863715275 12.826851106662618 84.96395235193248 114.91773470494793 0.5366247002043981
1.86325184482435 12.799550950577927 78.49976574476894 119.76696919368233 0.546593317835178
1.8793341001898685 12.770851271434246 72.58872694261325 124.84945972241968 0.55690586883505
1.8948912565085583 12.74074963563171 67.18339524814975 130.17565690658262 0.5675727807556036
1.909913178612737 12.70929485721155 62.23609359041046 135.76501842589175 0.5786390047969072
1.9243381074583932 12.676285893859323 57.70313078567821 141.63386931820446 0.5901230249563105
1.9381796639423332 12.641876093275984 53.55190233113163 147.79980566559175 0.602043150354886
1.9514249768451766 12.606165145487456 49.752426606929504 154.28177576986363 0.6144347981116204
1.9640241971523977 12.568767472938209 46.26026920811356 161.10026177301668 0.6273299683592478
1.975993843500349 12.529941391031295 43.05412342252797 168.26194797028674 0.6406923035124753
1.9873091602417665 12.489867066820679 40.11928289024985 175.80402037816512 0.6546130543621387
1.9979226920067623 12.447984177719041 37.4140366750939 183.7525534546688 0.6691328636120617
2.0078518653893638 12.404726398447893 34.93149693909214 192.13025807477308 0.6842584555912731
2.0170646277282667 12.359925604539438 32.64501161318197 200.9555391977149 0.7000035798450491
2.025575403422572 12.313739471666535 30.54229213045053 210.27590391182426 0.7164674364434614
2.033304863488663 12.265860183811286 28.606747768892998 220.11659194077495 0.7336480939145322
2.040294195724446 12.216556232257645 26.823732225783097 230.50909648398328 0.7515900594918169
2.0465107095343775 12.165776831656544 25.181155928472265 241.50881805108645 0.7703970178839116
2.0519518488131894 12.11347318270058 23.666073669447222 253.13255775321747 0.7900187315732783
2.0565876725065566 12.059666147726674 22.268705968802937 265.45630539929664 0.8106289512593505
2.0604160022366798 12.004355382698794 20.979819038046326 278.50023793794065 0.8321818941461674
2.063430135147109 11.94763922757505 19.791050377712786 292.34664044792476 0.8548286330452306
2.065603705014796 11.889422956931904 18.693704233096913 307.0341861160422 0.8785844285835179
2.0669668870443147 11.829816690718639 17.679166277516284 322.63976225467 0.9035466559473122
2.067467020366842 11.768760167996044 16.744808196562893 339.23784452178694 0.9298260603598164
