M[M_sun], R[km], Lambda[1], P_c[MeV/fm^3], rho_c[fm^-3]
0.23841724892012095 16.20908015294055 2780876.1263280716 3.453507347168396 0.169602847481901
0.24840931177884568 15.866483223772057 2282533.332455699 3.6354728253312376 0.17197750268517303
0.2586855712184654 15.563247331382914 1881897.6648039313 3.824610433952991 0.17437300569720002
0.2692446274143384 15.293958152109358 1558655.5970390523 4.0200145866856305 0.17676340475530247
0.2800931196372842 15.054290796736206 1295903.771440265 4.222032521290975 0.17914112824057477
0.2912162311839051 14.840296636021069 1081666.4438928384 4.43202407355145 0.18154266448735418
0.3026326582220184 14.648977448187187 906009.3691533925 4.65033654414599 0.18397189249235185
0.31432551233340494 14.477607061780425 761513.6143955503 4.8773323453830555 0.18643037587840375
0.3263065632579064 14.323758520816245 641990.3952461954 5.110304502235889 0.18885801618678583
0.33856782498136156 14.18554474992549 542850.868329134 5.352497637910162 0.19130804253897823
0.3511115617877278 14.061352425725447 460396.045296156 5.604382047627731 0.19378801201983217
0.3639415032532671 13.949493095009712 391475.0175671205 5.866369742888241 0.1963035793334362
0.37705494237048653 13.848808841278633 333708.1420113407 6.135304915791986 0.19879396577807504
0.39045229215430577 13.758080657395729 285152.47072978324 6.414705220824787 0.20131532287033235
0.404130890082004 13.676491033585867 244239.64715370492 6.7053363095972145 0.20387137906991137
0.4180947200091334 13.603061566695875 209657.18134058526 7.007227041645611 0.2064523998301658
0.43234236649227165 13.536999505976565 180340.13864751594 7.317131230785777 0.20901105412644597
0.4468736521653949 13.477634123879666 155446.01339403246 7.639569587466185 0.2116141842551873
0.461688340240534 13.42431593786532 134232.5216738856 7.975075635548811 0.21426186266927055
0.47678578287983836 13.37664701445022 116142.88930845408 8.32162781409492 0.2169151543268483
0.4921648420501779 13.333965780084972 100666.36958728867 8.679353028269773 0.21956720531890586
0.5078223652286321 13.295837371543428 87399.57783774353 9.05166902147149 0.22226729560908468
0.5237642629056543 13.261987397643653 76010.49133143696 9.43917977628921 0.2250183642530055
0.5399852788585622 13.231905213227305 66202.6812389425 9.83635656183387 0.22774193457268982
0.556478310293013 13.205381910091178 57756.37374430398 10.249588822155541 0.2305137015431594
0.5732534437847343 13.182037479665011 50455.90005734231 10.679733654385617 0.23333613601359746
0.5903070125990816 13.161723897831358 44145.71722176149 11.123657738434627 0.23616057182212583
0.6076249500499091 13.143991013443813 38675.45549000685 11.582476550022903 0.2390045009269269
0.6252123427638671 13.128632991399165 33927.33549059958 12.06012489255894 0.2419077661153755
0.6430746117500896 13.115623915099649 29802.415447058018 12.556090369223982 0.24485680038107183
0.6611911731602869 13.104506919814357 26210.987984717798 13.065721136006207 0.24778728838269298
0.679580726462569 13.095395141360882 22904.146744647045 13.596293098287271 0.25077641367646125
0.698214021968913 13.0878963378671 20350.292376981284 14.148710683972535 0.25382579913299913
0.7171247331027524 13.082128601133592 17962.658261963265 14.716702330366047 0.25686876737870773
0.7362743531101955 13.077587911494467 15872.996824285468 15.306380143641093 0.2599626961157821
0.7556641770233246 13.074261035099836 14041.832644685039 15.920292051959517 0.2631226758101529
0.7752973046700671 13.072093192399477 12434.72020933453 16.55519616779759 0.2663045189897432
0.7951678665686297 13.070960365793212 11023.787502111902 17.21086159431659 0.26950309771980097
0.8152805601274976 13.07076933163875 9782.305249319657 17.893549487291704 0.27277344513214663
0.835608283454641 13.071314892668955 8689.78506881223 18.603570861529356 0.27611101974810837
0.8561534874232755 13.07258357272227 7726.749623372164 19.33314065793982 0.27944153322997667
0.8769220568407085 13.0744521668625 6876.492328399444 20.092713350819643 0.2828430370707648
0.8978841845277864 13.076804682040688 6126.5126544633185 20.88353862794697 0.28631699381615694
0.9190533620748315 13.079686893616842 5463.3003690715805 21.699807818648928 0.28980968379964844
0.9404029159712739 13.082737002202757 4875.552066187917 22.545607545355956 0.293352917853302
0.9619405439364501 13.086206241433167 4355.594585074252 23.42617897534971 0.296979483734313
0.9836505608969685 13.08983537270117 3894.318604435487 24.341486509190016 0.30067990557740976
1.005545345413426 13.093726630622385 3484.9500830340316 25.284057982889983 0.30437908592077884
1.0275677950964626 13.097507050710792 3121.4177161804414 26.265425455881267 0.30816450144088814
1.0497551919037398 13.101411715836736 2798.017227133131 27.287083852690557 0.3120381196257496
1.0720622256923205 13.105177290821715 2510.2852729645824 28.34476143423271 0.315963192455221
1.0945105498401684 13.10889739219999 2254.0002438064357 29.439656287669077 0.3199409694343276
1.1170548745801658 13.112412754902206 2025.6279918603911 30.57950237006043 0.3240080578173465
1.1397270373347717 13.115751861177607 1821.6348151310447 31.766147893806483 0.3281646641743943
1.162469260709207 13.11876202496118 1639.6606254834571 32.993266488205904 0.3323677901182605
1.1852997831542094 13.12150113762251 1477.0043416444614 34.26673651047004 0.3366489147155266
1.2081910120083201 13.123838406008648 1331.6093052660683 35.592611512408425 0.3410355741631085
1.2311333477060993 13.125782927001454 1201.4578326005856 36.972908907318626 0.3455270822811804
1.2541132546748384 13.127212323637739 1084.8184757471424 38.40307349740181 0.3500744520258583
1.2771449899460985 13.128319510653796 980.2726452232234 39.886949064222065 0.3547052634327318
1.3001262912910498 13.128489066663619 886.4712220106978 41.43216472501407 0.35945303601956097
1.3231362918424117 13.12827446971317 802.2842146075644 43.0411729253088 0.36431995970738745
1.3461425704592618 13.127508435691647 726.6623120719024 44.716260225637875 0.36930658990597626
1.3690904738866108 13.12592216425649 658.6319769510878 46.44952514793496 0.3743445867908978
1.3919949500572233 13.123764041899346 597.467492247642 48.25506906920845 0.3795143674830455
1.4148278565544665 13.120768832437683 542.3631250969337 50.1359128127767 0.3848192525130251
1.437570309754009 13.116976980656695 492.72802881075455 52.095240704295 0.3902621097880439
1.46021485969792 13.112410428487852 448.0096443510749 54.136430480927515 0.3958447650692684
1.4827398790608883 13.106949278767788 407.622134424334 56.25664603895975 0.4015297082665625
1.5051228729459543 13.100579766505653 371.1704544554141 58.46322461289306 0.4073542011970454
1.5273627817477906 13.093412655004178 338.25800554182973 60.76348135032583 0.4133390792607483
1.5493963161903224 13.085064460678803 308.4802436529722 63.1616574229475 0.41948753882305356
1.5712734801145016 13.075934321741505 281.53644845965204 65.66225919063605 0.4258005379466169
1.592925843129899 13.065697894712127 257.15634926106173 68.27013697807935 0.4322829650972881
1.6143439154644732 13.054436952729917 235.0695973994856 70.99032975195131 0.43895009488433656
1.6355147007689392 13.04209461796589 215.03632425377043 73.8282626806834 0.4458092056371063
1.6564168294048704 13.028638480278346 196.87272185648396 76.78506368611907 0.4528432553320302
1.6769978076700027 13.01395811679584 180.39256846238743 79.87161478146021 0.46007571671072534
1.6973099999859351 12.998249115208786 165.41198563147486 83.09518459507913 0.46752865865682736
1.7172593291016292 12.981352130899813 151.81979310920755 86.4628175188052 0.4752128939017568
1.7369029767257995 12.96318411410173 139.42844941986738 89.98201547734001 0.48313341440141794
1.7561530110664694 12.94382152091919 128.16451058596317 93.66081124077452 0.49129770783172494
1.7749954619511752 12.92314613745684 117.91029988283806 97.50783657175333 0.49972442985272786
1.7934638239649427 12.901253101234927 108.55697286796152 101.53230172779601 0.508429823987667
1.8114742181382084 12.87800206486552 100.03614798809363 105.74406059229428 0.5174213750706872
1.8290461767415067 12.853478950105371 92.26463950882037 110.15369557481922 0.526711456314027
1.8461367351811457 12.827676906288733 85.1782269265982 114.77258022639447 0.5363233877921835
1.8627466888025803 12.800360060251089 78.6878176335306 119.61291965964791 0.5462770991377386
1.8788666650521393 12.77189407653949 72.76996184769439 124.6877896367204 0.5565810135080616
1.8944112267434057 12.741710697218053 67.34483953868668 130.0042715421725 0.5672326356188985
1.9094323600255352 12.710231593021359 62.38682040080696 135.5832184872247 0.5782797089131563
1.9235364445780796 12.677745100572674 57.93025665338157 141.55877452582894 0.7190763592352987
1.932799035990942 12.645260598599178 54.69389672194341 148.35141193280694 1.0661040326949962
1.9367588868079055 12.609240760586806 52.436704876424535 156.21340467515404 1.3909769399173153
