M[M_sun], R[km], Lambda[1], P_c[MeV/fm^3], rho_c[fm^-3]
0.23841724892012095 16.20908015294055 2780876.1263280716 3.453507347168396 0.169602847481901
0.2484078722220572 15.866487074979307 2282414.7215023306 3.6354280950118234 0.17197693369859296
0.2586807975021974 15.563344730501 1882053.6761894869 3.824518427671294 0.17437188017491181
0.2692374021483228 15.294021238813029 1558789.0862216037 4.0198663637159004 0.17676159152849907
0.280082606654833 15.054516497311283 1296139.5982536937 4.221829554122492 0.17913875485443578
0.29120347878434466 14.840509793582257 1061186.8578901167 4.431763568440262 0.18153973327867903
0.3026156711141383 14.649244705488973 906253.7282937515 4.6500155600695 0.18396841606673103
0.3143077589394895 14.477836584754948 761691.3230736469 4.876931021971525 0.1864260293357175
0.32628209934691715 14.32409078646532 642239.6521129311 5.109834017466346 0.18885311368389415
0.33854186729876345 14.185843635810219 543091.2435101026 5.35195473858438 0.19130262542869295
0.351080570322197 14.061525937453 460550.3240606334 5.603763337367563 0.1937820655681205
0.36390485123982713 13.949751643797926 391647.8713228666 5.865671577201601 0.19629711419782991
0.3770168597031204 13.848992818572361 333867.0975791722 6.134490999114686 0.1987864287681766
0.390412280683409 13.758485912211613 285303.3583089892 6.4138013677144565 0.20130726689732298
0.4040828393812195 13.676745449016451 244368.1244140435 6.704338476431447 0.20386284807560545
0.41804292940858945 13.60332502737167 209771.64255082086 7.006085444563063 0.20644263972342153
0.43228580074959716 13.537181375557216 180447.00262244832 7.315883841496551 0.20900077150202248
0.44681195748765323 13.47788454673271 155556.70711801163 7.6382115287609915 0.2116033869954815
0.4616216474906122 13.42455934573579 134321.55798307149 7.973601839818173 0.21425057891415616
0.47671482267469223 13.376834940263702 116221.8239556481 8.319969152285859 0.21690245518999915
0.49209271899932516 13.334325369400373 100740.055500471 8.677564640403586 0.21955404780326682
0.5077438728754843 13.296124777915535 87464.73720054777 9.049745112953227 0.22225363268307255
0.5236796175859104 13.262211822134383 76064.68781054656 9.437114018198498 0.2250041986783086
0.5398925974264576 13.232137982225739 66258.47332060685 9.834056971309632 0.22772616553298963
0.5563821114338807 13.205493829146864 57799.80328565279 10.247130390334082 0.23049745571561278
0.573147930497105 13.182152771779219 50497.20573043944 10.677109317984879 0.23331943885755163
0.5901957325588792 13.161775851114005 44181.07070545654 11.120753008063087 0.23614209067913247
0.6075090201104208 13.14403817895275 38707.37963832796 11.579386358108435 0.2389854977507933
0.6250911760804727 13.128691461284884 33958.061905755036 12.05684043265185 0.24188823656086814
0.6429445935828099 13.115650828706398 29829.771330061576 12.55247150539436 0.24483528244496827
0.6610626164238724 13.104718077817344 26237.807819159974 13.061885159895603 0.24776528637165665
0.6794434383556068 13.095482817014199 23103.796655090537 13.59223013170547 0.25075392801656377
0.6980675990389794 13.087945693605066 20369.879756443544 14.144409967394976 0.2538027583998081
0.7169701466390387 13.08213505845953 17980.71000299841 14.711988607910392 0.25684351400069994
0.7361084835999363 13.077479908194904 15888.567734602477 15.301400359295599 0.25993685846868225
0.7554958962954753 13.074286270398435 14056.275627000323 15.915033435923728 0.2630963220802744
0.7751250793924014 13.072086963584528 12448.007275463719 16.549448989229983 0.2662757168124206
0.794995652881845 13.070965362604401 11034.938711268203 17.20480303908523 0.2694737313307705
0.8150940885239893 13.070737485115103 9792.838496808916 17.88716416071688 0.272743429833081
0.8354139222756674 13.071304779605626 8644.033402198122 18.596608937247534 0.276078294054764
0.8559495969028179 13.072534330367052 7735.204100840509 19.32581264767949 0.27940811063367615
0.8767106329561597 13.074387760793261 6842.719512552793 20.08500104291478 0.2828090057008318
0.8976726091467626 13.076783056435557 6096.968607983254 20.875422962724784 0.28628226813625407
0.9188284099303957 13.079650449180008 5469.747083273665 21.690985955349703 0.2897719364070825
0.9401760898297404 13.082783378713243 4881.854516476851 22.53633350343742 0.29331435605020006
0.9617038984028151 13.086152232274925 4361.049055546838 23.416428749981584 0.2969400653469476
0.9834201766371011 13.089988665738913 3899.707957560937 24.33090443702167 0.30063712418476385
1.0052905675164512 13.093688458323268 3489.3665934767905 25.272941943045062 0.30433552321067225
1.027318453862616 13.097543234822094 3125.3782465046115 26.253747738359127 0.3081200041697967
1.0494894220064777 13.101328288453141 2801.625000386467 27.27481403704674 0.31199258597651036
1.0717987967821125 13.10517138978877 2513.479818246954 28.33147242487369 0.31591387654792
1.094230195478258 13.108831009568904 2256.974274146962 29.42570088714858 0.3198905032448159
1.1167710498091392 13.11235146915093 2028.2859769460765 30.564844669642802 0.32395656570766335
1.1394397058523733 13.115742473487781 1824.1808193996987 31.75074981614161 0.3281119226871295
1.1621655147757137 13.11870502659483 1641.9938450808602 32.97661665209513 0.3323107611086458
1.1849900166437315 13.121441828405695 1479.1300458899884 34.249251811720264 0.33659045451967795
1.2078690611253355 13.123796652890661 1333.520016167617 35.57424420049343 0.3409755935780904
1.2308209857133583 13.12571955035002 1203.1139976633015 36.953609612456376 0.3454657179947488
1.2537895198529079 13.127180414291354 1086.3404643359254 38.38223139292507 0.35000818220211205
1.2767960730887156 13.128139061643903 981.6750684361512 39.86505496530694 0.35463720310581753
1.2997951794573017 13.12850113061363 887.7684987905785 41.40915695380661 0.359383058669378
1.3227979821291724 13.128331597972995 803.4740212073164 43.016985771365015 0.36424795606181604
1.345793020706318 13.12754610709864 727.7539759829097 44.69016311509061 0.36922890043897033
1.3687433855191595 13.126023332889835 659.6161787419528 46.42209315858685 0.37426486473385395
1.39163737724101 13.123787129212142 598.3775209076097 48.2262236756584 0.3794322094954396
1.4144689205371517 13.120842820287383 543.1754767633864 50.105568405707764 0.38473450341026433
1.4371974173976356 13.116998575285663 493.51304437008497 52.06330620275049 0.39017464468589613
1.4598545502788745 13.112526591764958 448.71938378786916 54.10281023664422 0.39575461896204567
1.482357770713827 13.107008842353105 408.2668721722147 56.2204147882064 0.4014325612563354
1.504753000034325 13.100737126856185 371.7658733783622 58.425076718683826 0.40725374128996217
1.5269789035968562 13.093492894930554 338.7817979942378 60.723297076995664 0.4132350950233076
1.549038622180061 13.085360200489148 308.9733787198991 63.1193092484795 0.4193798781560923
1.5709015508519533 13.076194728192041 281.98724392116026 65.61761225866994 0.4256891356442353
1.5925244471237554 13.065855140497305 257.5684630544217 68.22304641565675 0.43216733808010765
1.6139554118638317 13.054621731922532 235.43827683100278 70.94063886946051 0.43882997448184186
1.6351282037146704 13.042326096728399 215.39179693595955 73.77536270722692 0.4456825025772497
1.6560217749828425 13.028944293300293 197.20815706650544 76.72857197037094 0.4527088649773213
1.6766150826360129 13.014261724319134 180.6952757020582 79.81195686023084 0.4599361069352308
1.6969282973253106 12.99858663850324 165.6875193982939 83.0321535470777 0.4673832526466752
1.7169093757116451 12.981721349341912 152.05524168119905 86.39618972430029 0.4750613172499453
1.7365299473524496 12.963579277889757 139.6503746928147 89.9115517679225 0.4829754190527478
1.755767657327541 12.944183711531537 128.37640148414687 93.5862559237741 0.4911329376177886
1.7746533771028379 12.92377048138077 118.10866974417007 97.42891375873268 0.49955222466885985
1.793098717386534 12.901805257492008 108.74728437906431 101.44871332896165 0.5082496966657828
1.8111119216502636 12.878472047822905 100.20446317492515 105.65548693702895 0.5172330016388577
1.828709801657588 12.854173953934122 92.42518149108129 110.0597934518153 0.5265142837293817
1.845792562832662 12.828223853758281 85.31609136057094 114.67297855149427 0.5361166341237892
1.862388419858321 12.800924001177075 78.82667628850557 119.50721714920904 0.5460601227581827
1.8785153786044666 12.772447245410566 72.8867050507984 124.57555467203954 0.5563533791933702
1.8940946913948942 12.742498836660086 67.4627138403731 129.88667842298412 0.5669992508853795
1.9091027889469347 12.71095436413393 62.48977842404383 135.45775245680613 0.5780353161187288
1.9235633099223945 12.678104723225163 57.939055054521305 141.3069872602368 0.5894878422334471
1.9374375354573168 12.643892256107542 53.774519082779214 147.4518712098895 0.6013738708885626
1.950700787476418 12.608122023932966 49.95320176365025 153.91122970683682 0.6137287008111647
1.963352227346023 12.571082494554798 46.45096017828787 160.70541267013965 0.6265844561493173
1.9753496732035303 12.532397569570357 43.235655658107575 167.84573124759865 0.6399214859356036
1.9866752799055665 12.49211343871035 40.27827411712606 175.35990033166505 0.6537976221104999
1.9973334754324552 12.450392347549517 37.561545137005346 183.27838302142015 0.6682695834242506
2.007307154403728 12.407374269708399 35.07179652498391 191.62878606804932 0.6833615703936946
2.0165567233340314 12.36275069749186 32.77743127306448 200.41940183943782 0.6990523023723932
2.0250680040014997 12.316456712293279 30.66401135465444 209.70235401014125 0.715457706375486
2.032859305990911 12.26882486033631 28.721469785834117 219.50812468481686 0.7325944459268918
2.039889017805933 12.219622547138618 26.9290669024484 229.8572566573233 0.7504696496140303
2.0461512363292047 12.168866845464473 25.277239747881453 240.81100262067818 0.7692080298655283
2.0516398852165416 12.116765675578156 23.755806788412205 252.39641306853397 0.7887946031607109
2.055309754762224 12.065676543690701 22.478061432460496 265.1497234247691 1.1501730238070682
2.0555192814080883 12.015654511578473 21.53399931810267 279.7290017671267 1.5222223107126742
