M[M_sun], R[km], Lambda[1], P_c[MeV/fm^3], rho_c[fm^-3]
0.23841724892012095 16.20908015294055 2780876.1263280716 3.453507347168396 0.169602847481901
0.24842630957972242 15.865952959697024 2281850.9761279747 3.635782728830089 0.17198144477488475
0.2587236450956456 15.562095450866586 1880710.474387247 3.825247920841885 0.1743808041397482
0.26930076347963755 15.292689645992676 1557136.6732159522 4.021041657564145 0.17677596901878548
0.28016749025935134 15.052771470137943 1294326.4117759264 4.223439019068606 0.17915757504995244
0.2913137132465857 14.838672181868137 1059374.2283084712 4.433829405228994 0.18156297811517735
0.3027489514755084 14.647162928704805 904404.5913340914 4.652561139112716 0.1839959860206752
0.3144679834436057 14.475613992563813 759899.706653929 4.880002043831078 0.18645823931539401
0.3264693431258694 14.321822491415745 640548.1674539681 5.113565652737698 0.18889199773263027
0.3387574896620004 14.183537145774354 541503.2036184503 5.356260945934188 0.1913455932479874
0.35132708986719263 14.05926245923081 459105.0814830213 5.608671109334586 0.19382923438184887
0.36418036803162696 13.947518587643529 390319.3875899918 5.871209876822679 0.19634839981493146
0.37732517441149244 13.846784097730595 332626.84135524236 6.14094793336838 0.1988462211016438
0.3907500322712659 13.756235476544804 284176.3619561389 6.420972118111107 0.20137117924214107
0.40445810362085044 13.674726915627533 243355.45620125814 6.712255182376494 0.20393053210902495
0.4184518786908852 13.601296542707667 208849.26930730545 7.015143366829368 0.20652008060825916
0.4327340728481453 13.535319707835866 179612.6282947206 7.325781604588339 0.20908236189355814
0.4472937354334603 13.475996978027661 154787.10767920534 7.648987898690592 0.2116890646354619
0.46214398318033917 13.422858035212242 133646.67517738848 7.985297096520809 0.2143401207752765
0.47727802578968354 13.375311363565157 115616.91541778896 8.333132310395085 0.21700323567778923
0.4926919792803051 13.332646102983482 100181.07083929346 8.691757896231477 0.2196584703332198
0.5083863032921376 13.294638867452083 86967.25456972729 9.065014529549567 0.2223620707440424
0.5243605619488885 13.260839439396202 75613.94767895181 9.453509904839265 0.22511663060244147
0.5406164660096356 13.230831716655553 65854.71874591295 9.852310060466259 0.22785133289845227
0.5571537292043532 13.204417649509004 57435.59799873615 10.26664505561311 0.23062641267263928
0.573965216286476 13.181107426627971 50169.30602780902 10.697941713761823 0.2334519835126493
0.5910596013870754 13.160791626044727 43884.88169623034 11.143812867904636 0.2362888074179092
0.6084147851825439 13.143081391684031 38441.30404399977 11.603919476612761 0.23913636448818307
0.6260537059132818 13.127933307659175 33718.86822633075 12.082916827402864 0.24204328804179712
0.6439504381791364 13.114957654233395 29614.90181775462 12.581204948320694 0.24500613286046688
0.6620928260978938 13.104264546438317 26059.50779925581 13.092343578250343 0.24793998674451279
0.6805539720188463 13.095043251641584 22930.312087290946 13.624492075197239 0.25093247516293643
0.6992310660610749 13.087545740763016 20212.635889640427 14.178560994372548 0.253985719700931
0.7181861700870047 13.081782497565786 17838.059308398006 14.749422026441556 0.2570440604429618
0.7373714337141848 13.077275841982422 15760.975241719972 15.34094808817547 0.2601420521460595
0.7568201309440171 13.074096692612333 13940.33073513583 15.956797032564344 0.26330562173956346
0.776496740958153 13.071957321678816 12343.27174398171 16.595096219815222 0.26650447943291977
0.7964156028832841 13.07088439840342 10868.346220536769 17.252925084767263 0.2697069834280898
0.8165819530659887 13.070816270144736 9708.14078797118 17.93788347083137 0.2729818444613152
0.8369567928092864 13.07132979851133 8621.650175814611 18.65100876425777 0.2763303723423248
0.8575496300050446 13.072687661000904 7666.101992068311 19.384026400448374 0.27967361991775375
0.8783544867057105 13.074573955948999 6822.20342986062 20.146269797539766 0.2830793605258337
0.8993805235017748 13.077036856284007 6076.781119349138 20.939898349262975 0.28655814837197635
0.9205953975687307 13.079871993841444 5386.401453226928 21.7610774154438 0.29007184695545
0.9419968675911365 13.08306074353872 4807.576913003876 22.610020187837712 0.29362074796001
0.9635894425260956 13.086552456286793 4318.695009616085 23.493901662614117 0.29725327423855474
0.9853528494995684 13.090185387105052 3860.9158611512576 24.41403817365063 0.3009695604723624
1.0072840967645484 13.093977696822432 3454.627522249704 25.361277697822104 0.304681702689253
1.0293425836926342 13.09794464493931 3094.94205077615 26.346550266233134 0.30847362286565516
1.0516013019101331 13.101769562276091 2772.88026917656 27.37232544607139 0.31235445370331616
1.0739630713152177 13.105585235855242 2487.6396237517133 28.437092592679473 0.31630583611871305
1.0964600202320955 13.109259039654907 2233.1957263550685 29.536621517341747 0.32029161975421766
1.119056959350958 13.112778913623222 2006.6881391527527 30.681351607764928 0.32436585146639135
1.14176410042223 13.116055349108374 1804.5347013254373 31.87314618576029 0.3285311546659515
1.1645538730863336 13.119016943946932 1624.0529489251014 33.1089745790633 0.3327641134082975
1.1874217146058874 13.121728880290961 1462.7950509556852 34.388251730300595 0.337055201586782
1.2103619373315273 13.124095439568734 1318.6923355519561 35.720266325502855 0.3414524457448195
1.2333499585386944 13.125905230929865 1189.5470981297208 37.107047074158565 0.34595358972355733
1.2563832918502313 13.127448347493425 1074.102930568512 38.547949797855644 0.3505351025761326
1.27941062692198 13.128202643995056 970.4697569501311 40.0391448428804 0.35517838153138553
1.3024668038822405 13.128508848238448 877.5003307116554 41.59210955999841 0.35993950277145703
1.3255268818381793 13.128308227640298 794.082416571147 43.2093245169272 0.3648205364860069
1.3485429511805884 13.127367942956548 719.1995839446059 44.893393774329894 0.3698222026298346
1.3715397405946006 13.125770243082044 651.7923683709413 46.6402648377072 0.3748989089815197
1.394479606467134 13.12357577169414 591.2265066708466 48.45564634742646 0.38008565542575506
1.4173224072918664 13.120367348850762 536.6741590722885 50.346924205024266 0.3854085876786344
1.440104613158957 13.11653969605859 487.5368620994195 52.31732091691138 0.39087036316736795
1.462780959017339 13.111869934210949 443.2216791459987 54.37024610249169 0.39647169591231246
1.4853280581435526 13.106367329496736 403.2599548258698 56.50864849725045 0.4022054035540221
1.507731283651288 13.099830589079637 367.1537438637408 58.72857256223068 0.40805297712918437
1.5299454961645078 13.092386753399266 334.6591293630314 61.043009520323636 0.4140624100862583
1.5520362883231582 13.084037288200726 305.1012367524949 63.45625490899551 0.420236486380569
1.573921167110906 13.074731323348827 278.42892203433183 65.97286631041024 0.42657555980713896
1.5955799829915418 13.064367223058998 254.31613598898534 68.5977639910055 0.43308742638004843
1.616995874329559 13.05294736796422 232.46392978857432 71.33606943414405 0.4397858697327923
1.638185307332511 13.040520966056004 212.63178137271385 74.19328090071889 0.4466775617742161
1.659071450411129 13.026823340134131 194.6684954833905 77.17528085928485 0.45376583252810454
1.6796902505894444 13.012130504527105 178.3559970637051 80.286806771772 0.46104733723252833
1.6999780278112735 12.996104728808264 163.54272941946334 83.53388145645819 0.46854068625754164
1.7199353168299811 12.979056873229517 150.08389441655734 86.9265797119012 0.47626794188869054
1.7395208945353429 12.960610302546211 137.8434979306322 90.47251215077812 0.48423321731531516
1.7587602482801012 12.941061577403003 126.69798880483194 94.1798270657321 0.49244475343430943
1.77759633146778 12.920230940883977 116.55542168811816 98.05729740723291 0.5009233228037087
1.7960170973374787 12.898109369043292 107.3179528753971 102.1142886638083 0.5096839663042723
1.8139960395363972 12.874606904723843 98.8901827983872 106.36080565264247 0.518733033523008
1.831530904275112 12.849854454876306 91.20458290887743 110.80759544293367 0.5280844937169191
1.8485917366549613 12.823730298123897 84.18847789922725 115.4662265545629 0.5377632624033359
1.8651611913912787 12.79634977897908 77.78473523147149 120.34500415608785 0.5477730007863009
1.8811938095239833 12.767316717192097 71.92222407274184 125.45890472636482 0.5581280143340931
1.8967139749040833 12.737151120780092 66.57194332278424 130.82338500590438 0.5688583138794492
1.9116660623213027 12.705396656336896 61.6699380351708 136.45379960406933 0.579992260415307
1.9260434413439054 12.672195624597249 57.18286195178489 142.36669126157477 0.5915470120673132
1.9398352574509259 12.63763674411335 53.07285906008091 148.5798987165986 0.6035437210868263
1.9530268463810418 12.601579081671458 49.30391985086298 155.11264719252515 0.6160180724386359
1.9655744152389665 12.564048703669696 45.841738704441276 161.97577320019388 0.6289667681455804
1.9774632123059106 12.524979339244775 42.67036443921577 169.19537407426785 0.6424209732377392
1.988702233709802 12.48451074880445 39.758784610099774 176.80012953067344 0.6564419732220484
1.999259002401357 12.442489247124762 37.08147600712541 184.81617796217736 0.6710693107209876
2.0090956405736744 12.398922574895494 34.62017122917002 193.25520099853875 0.6862704216490353
2.0182409509128276 12.353862412720892 32.35548487525652 202.15838436767783 0.7021378081274353
2.0266446918067493 12.307398573634012 30.274198904612806 211.56283709004407 0.7187330721304536
2.034286594421776 12.25925144050049 28.357465266711436 221.48198265080416 0.7360124630073274
2.0411922995000302 12.209709018078138 26.591877288845627 231.97199595758067 0.7541045530121433
2.0473223604061435 12.158636640495697 24.962995021662188 243.0644005664629 0.7730291640813375
2.0526456926679235 12.106114001235296 23.465837690974386 254.80162074045506 0.7928229922530869
2.0571837366852974 12.051952340156069 22.07909424446724 267.2354057319359 0.8135771251137852
2.060890383522074 11.996412824378783 20.805115280344 280.41147849182437 0.8353239197766557
2.063792252525519 11.939411168167089 19.62949135210579 294.38773504179113 0.858139868790724
2.065856346893767 11.88086649169929 18.541023980539237 309.2307343283194 0.882123716287464
2.067083767448745 11.821003032251832 17.53972217329938 324.990496042762 0.9072831798001905
2.0674733892959116 11.759709209143852 16.613201601602526 341.7567786529886 0.9337786949636666
