M[M_sun], R[km], Lambda[1], P_c[MeV/fm^3], rho_c[fm^-3]
0.23841724892012095 16.20908015294055 2780876.1263280716 3.453507347168396 0.169602847481901
0.2484146152652196 15.866232505744597 2282294.7790280376 3.6355400835624754 0.17197835823531163
0.2586938151496961 15.562956338034331 1881763.2346887668 3.8247487810893315 0.17437469811191983
0.26925871947333424 15.293637444259213 1558186.0719439688 4.0202374702447665 0.17676613131275978
0.2801087609259676 15.054004308275971 1295613.4867626305 4.222337730244369 0.17914469718576378
0.29123714843662435 14.839962373734668 1081250.5103127 4.4324158121881965 0.18154707233826037
0.30265751610520825 14.648576435236913 905661.5982278783 4.650819238345898 0.1839771203232833
0.31435735327425623 14.477167932488763 761118.6687185623 4.877915179793509 0.18643649396327844
0.3263404822361293 14.323390988359266 641700.2970094829 5.111012044544434 0.1888653888552295
0.3386091138468034 14.185147399684737 542594.0959873683 5.353314096384332 0.19131618925308877
0.35115858281074697 14.060826663468248 460087.66353400523 5.605312533654597 0.19379695496224533
0.3639928758119906 13.948990772909658 391238.7464365081 5.867419741160072 0.19631330249993326
0.3771138808542424 13.84841923202383 333481.4921103146 6.136529025425558 0.19880530124604406
0.39051703047312586 13.757712088188228 284950.9235804177 6.416064615516097 0.20132743905029246
0.4042034239971955 13.676091830585404 244040.4611116085 6.70683707500411 0.20388420989331954
0.4181728804975932 13.602681640547273 209483.38336279136 7.008944073129725 0.20646707962466113
0.43242895887011 13.536771402990537 180195.71572055257 7.319007410308558 0.2090265200676324
0.44696545464484466 13.477341415840037 155306.74147763033 7.641612255310278 0.21163042450689443
0.4617879682391357 13.424109789567618 134104.14131335221 7.977292418589471 0.21427883492428024
0.47689201017173083 13.376335469507158 116023.79202045908 8.324122721887539 0.21693425597572655
0.49227897903810036 13.333703945242393 100560.56210015871 8.682043106391411 0.2195869967442588
0.5079439540059464 13.2955505965498 87304.34380637831 9.054562991246378 0.22228784757116613
0.5238951564209793 13.261721439010078 75920.65783239409 9.442287163154898 0.22503967261479094
0.540123915503973 13.231670162541029 66125.42411662884 9.839815775268194 0.22776565552361663
0.556626882741349 13.205137894997494 57684.88963371683 10.253287028864529 0.2305381400603887
0.5734050215009746 13.18179762003046 50394.96002157135 10.683681485586296 0.23336125381236053
0.5904715884409886 13.161511031836412 44088.58122324983 11.128027483843985 0.2361883740204111
0.6077917991446421 13.143696044562727 38624.382202809225 11.587125359057616 0.23903308883969843
0.625393810664587 13.128487920580918 33884.50907708206 12.065066020465464 0.24193714629644278
0.6432649156951603 13.115431930697355 29761.783227993565 12.56153471713626 0.24488917273217908
0.661392050954418 13.104506272547498 26176.43252274134 13.071492192273487 0.24782038943442605
0.6797924934179117 13.095268084153522 23047.78714224771 13.602405732065055 0.2508102428014215
0.6984337858869203 13.087790173719494 20320.075914420322 14.155181091074178 0.2538604638036367
0.7173525855763061 13.08199589246401 17934.736705470652 14.723794294605655 0.2569067619902797
0.7365156509174087 13.077466307797074 15847.738933389806 15.313872504233801 0.2600015702829163
0.7559152687017535 13.074203154801877 14018.49345378643 15.92820403162253 0.2631623269604602
0.7755595226262298 13.072059834729194 12415.032507412974 16.563843465615957 0.26634785521154253
0.7954427160348632 13.070986710024622 11005.721268655028 17.21997751015926 0.26954728342427703
0.8155614296855638 13.070764931906686 9766.208154406884 17.9031571962969 0.2728186077805637
0.8359017839873228 13.07132599678889 8674.663949581402 18.61404644776447 0.2761602619990803
0.856459136918344 13.07262663988535 7713.420917502693 19.344167231803528 0.27949182474346157
0.8772345718130665 13.074466724539386 6864.803650531776 20.104318329712076 0.2828942452609234
0.8982053884261355 13.076796270976299 6115.768669217485 20.89575070628747 0.28636924741605185
0.9193878397153833 13.079727002581224 5453.177317910134 21.713082936828748 0.2898664859830758
0.9407562278126934 13.08286693026658 4866.931622586838 22.559563276804596 0.29341094629149467
0.9622980842556756 13.086279175460218 4347.591785950493 23.44085146165727 0.2970388019271801
0.9840326656912345 13.090028018873296 3887.1016455338136 24.357411262657433 0.3007442864585869
1.0059226232967204 13.093823489791692 3478.5695799688187 25.30078650709253 0.30444464342691524
1.0279657105963182 13.097657389660286 3098.9733079640405 26.282999473616712 0.3082314662248759
1.0501587313832896 13.101468466812072 2792.496715550355 27.30554916867983 0.3121066449602579
1.0724947690266269 13.105395175324698 2505.318883809568 28.364761186243435 0.316037412127249
1.0949345120687812 13.108984804846383 2249.487849275566 29.460659223261192 0.32001692125859355
1.1174989600891494 13.112548233874936 2021.4332512937399 30.60156256172704 0.3240855546808766
1.140171771447855 13.11584762892779 1817.9411138805704 31.789322680639923 0.3282440424416847
1.162927233219166 13.118919379095765 1636.3451197961183 33.018326017057916 0.3324536240028904
1.1857623627454272 13.121550694810809 1473.942186413874 34.29305294252512 0.3367369038650107
1.208656880513997 13.12388336842864 1328.8238619834187 35.62025675903584 0.34112585291883263
1.231618082200877 13.125806848212386 1198.8516431858438 37.00195731996049 0.3456194449880286
1.2546097138470345 13.127256405339592 1082.4347730160175 38.43444509801608 0.3501742015710957
1.2776239189942848 13.12817101141092 978.1287913709134 39.919904602760056 0.35480770951810064
1.300633367012168 13.12848610790721 884.5464569148043 41.46679709697962 0.3595583691958538
1.3236676619035048 13.128324560532688 800.5011344059508 43.07758110228785 0.36442834457470963
1.3466643293988831 13.127462989528855 725.0145770574783 44.754845811686025 0.3694195585327899
1.369627683005508 13.125934641266385 657.1446487287557 46.49081970095716 0.3744645958310685
1.3925315566292362 13.12368215021432 596.0913216189573 48.29849195799162 0.37963804536430823
1.4153626671009434 13.120663076649189 541.149342789936 50.18159299523051 0.38494683300810995
1.4381103099274883 13.116850387035056 491.60089744796613 52.14331538425869 0.39039378107115075
1.460763421561574 13.1122443892795 446.97255608654325 54.18704374611975 0.39598047463736274
1.483303418524604 13.106833574741279 406.66941150894064 56.31119195015744 0.40167596245549564
1.5056883688716043 13.10040362451737 370.28166846757557 58.52065700694862 0.40750544553411805
1.5279266965050513 13.09317099972299 337.43416425633364 60.82398061954505 0.41349563230635883
1.5499784392347153 13.084886415003497 307.7298426404103 63.22541569616123 0.4196496298294481
1.5718456376558878 13.07564280328793 280.85370440472934 65.72947965272935 0.4259682653561965
1.5934972277332158 13.065417228423216 256.54278221313086 68.3410379124282 0.4324570565315864
1.614914935389491 13.05413302509883 234.5056208329426 71.06514725413231 0.43913095519562795
1.6361135331513978 13.041859493554753 214.51457205144987 73.907248620454 0.44599710838217616
1.6569956802362122 13.028287750210996 196.3952099193653 76.870125853074 0.4530456130518831
1.6776021138756854 13.013623798281667 179.94228679742133 79.96144630359422 0.46028593789140043
1.697885169306687 12.997767877709279 165.00350761804503 83.19009730147542 0.46774761230566264
1.717856869377158 12.980812964245553 151.42102677503127 86.56314841503442 0.47544114431041395
1.7374662670561756 12.962620378847634 139.08065574971494 90.08812501425079 0.4833713356437146
1.756720054772822 12.943228772597124 127.84431043683048 93.77308478656163 0.49154583683047404
1.7755644529116437 12.922582497354089 117.61857609930192 97.60484119435979 0.49990003454608767
1.7940157767682612 12.900568519291411 108.28853760399028 101.65348917742223 0.5086814363821752
1.8077689035781326 12.878235907601722 101.37192139023165 106.34679504009567 0.9922732112215085
1.8109202256615795 12.851141528874754 98.18608557896616 112.24289210317298 1.5304114002582863
