M[M_sun], R[km], Lambda[1], P_c[MeV/fm^3], rho_c[fm^-3]
0.23841724892012095 16.20908015294055 2780876.1263280716 3.453507347168396 0.169602847481901
0.24841165779257973 15.86642296627367 2282206.5972058685 3.6355214540435385 0.17197812126078502
0.25868981464732094 15.563111377893687 1881827.212201591 3.824710460657908 0.17437422933414876
0.26925262860259047 15.293814215530828 1558395.530086194 4.020175733671755 0.17676537608292506
0.2801035364126051 15.054140066051604 1295768.1987145366 4.222253189582974 0.17914370861389062
0.2912315347444238 14.840014743233292 1081418.6328350254 4.432307302491581 0.18154585138500304
0.3026485638318915 14.64874644538211 905777.1695429287 4.650685533273415 0.18397567222733818
0.31434760705754555 14.47733131527105 761222.3851265891 4.877755003036393 0.18643482490390442
0.32633106421377295 14.323497585450738 641794.9264567029 5.11081605353774 0.1888633466074475
0.3385985791447304 14.185207163832096 542642.6596583261 5.353087933526169 0.19131393257475648
0.3511458085262196 14.06100204406327 460185.5104080472 5.605054782630744 0.19379447770573993
0.3639785062614724 13.949121806481894 391291.8932906982 5.8671288822285375 0.19631060909567313
0.37709897930366426 13.848426775086644 333541.0232589303 6.136189932599645 0.1988021611875385
0.3904985128564539 13.757812356793776 285009.7516378994 6.415688044366241 0.20132408270069907
0.4041824560453919 13.676192331230107 244095.2842638097 6.706421339231413 0.20388065555214174
0.4181514185334234 13.602781271984876 209524.62818269667 7.008468423221524 0.20646301304640166
0.4324076757824293 13.536841189794098 180235.69780684056 7.318487669786991 0.20902223568213454
0.4469417334532412 13.47744581732619 155341.71146406166 7.641046390218458 0.21162592559066093
0.46175887305217017 13.424192832822566 134153.4105925866 7.9766783155525856 0.2142741331951741
0.4768615206477116 13.376420190535168 116054.29359300705 8.32343156406824 0.21692896429560002
0.49224787288846306 13.333730341804234 100589.57674533964 8.681297876182745 0.2195815139413889
0.5079107066311673 13.295635858123848 86445.29126498508 9.053761271968122 0.22228215404100224
0.5238592574511591 13.261870360783705 75947.17336061987 9.441426315317486 0.22503376950135362
0.5400861782164695 13.231731106295374 66146.4649877607 9.838857449434009 0.2277590839718705
0.5565861534463298 13.205223211624324 57702.88442302879 10.252262487031002 0.23053136967538293
0.5733624106341575 13.181850336241975 50411.0839873434 10.682587781791229 0.23335429519877388
0.5904215139469637 13.161489099802383 44103.23121336391 11.126816879693228 0.23618067163652112
0.6077479096186116 13.14382175480013 38638.07011741688 11.58583743483303 0.23902516873260996
0.6253442969989897 13.12851262126734 33893.78644789064 12.063697103034814 0.24192900664842323
0.643213246248381 13.115498566955958 29773.387154532116 12.560026367511135 0.24488020401371294
0.661335147964317 13.104421392161134 26184.823725807688 13.06989331926658 0.24781121877732878
0.679734445635951 13.095292581266254 23055.96724832666 13.600712215226881 0.2508008703778765
0.6983736831676504 13.087856238988849 20328.9924063475 14.153388442316418 0.25385085983625405
0.7172847782134371 13.081979470026353 17942.791240183153 14.72182941820954 0.25689623532757594
0.736444019195278 13.077485416978755 15855.203064085003 15.311796683700052 0.2599907998730607
0.7558435016912521 13.074224379247545 14024.509264443237 15.926011939953334 0.2631513412198536
0.7754864843381739 13.072076111927597 12420.21655326872 16.561447618027255 0.2663358483413408
0.7953659626754532 13.070990094941958 11011.043267017292 17.21745181186914 0.26953504112628207
0.8154819182655318 13.070758871756537 9770.516454056375 17.90049522487796 0.2728060947372123
0.8358219828956588 13.071301402933619 8678.6537480469 18.611143981167253 0.27614661846778665
0.8563673885320229 13.072564508853215 7717.269189614499 19.34111208653499 0.27947789041704524
0.8771465826255173 13.074466713118225 6868.212199083754 20.101102907515674 0.28288005687223267
0.8981171324216347 13.076802866480815 6118.731809525005 20.892367054960005 0.28635476929384207
0.9192924839702546 13.079723769521081 5456.252777992792 21.709404698244736 0.28985074736742594
0.9406600796516448 13.082830964589391 4869.146599678429 22.55569643431938 0.2933948678200093
0.9621998947095101 13.086263853586667 4349.871016015625 23.436785998935868 0.29702236600100185
0.9839319724409892 13.089969628106022 3889.0739599795115 24.352998763795522 0.30072644752842675
1.00581820582023 13.093770007645205 3480.258631592631 25.296151270341028 0.3044264783719408
1.027858595329542 13.09759508503873 3117.1470870824573 26.27812993552953 0.3082129111300173
1.0500613855124727 13.101606184772356 2794.051529058917 27.300432634409503 0.31208765735004856
1.0723769339727582 13.105401017266535 2506.8211396008664 28.359219403099107 0.31601684640587396
1.0948157829120184 13.108992850483375 2250.7330107555986 29.454839432257593 0.3199958754508953
1.1173769815527976 13.112467883701752 2022.5867815837473 30.59544977611791 0.3240640806284613
1.1400493813905181 13.11582390177243 1818.9992553961856 31.782901008183355 0.32822204693267
1.1628002000637971 13.118843295765544 1637.2831883503118 33.01138199246379 0.3324298393336175
1.1856319954859262 13.12149552551499 1474.7823868151042 34.28576058546384 0.3367125218251425
1.2085275151807304 13.123855537328458 1329.5571001506803 35.61259613767468 0.3411008362722503
1.231487433400892 13.125797622928333 1199.50175794811 36.99390782596531 0.3455938507132804
1.2544745801547057 13.127218050138122 1083.0333022182913 38.42575171139227 0.3501465599670551
1.2774979065182717 13.12826853386904 978.7002204034571 39.9107722341114 0.35477932049884303
1.3004936382536176 13.128465841409817 885.0527558221875 41.45719999706947 0.35952917994431366
1.3235260433715716 13.12836057873247 800.9903618855751 43.06749183738793 0.3643983094636909
1.3465087926378116 13.127444384717114 725.4879218474256 44.744235812587256 0.3693887240591156
1.3694865380230763 13.126028877258399 657.5788869366575 46.47937610252276 0.37443133877502355
1.3923774083719667 13.123683056228574 596.4822175419132 48.28645847093707 0.3796037713621675
1.4152119543442219 13.120695310676076 541.4978151608535 50.16893387216495 0.3849114772564188
1.437952379694569 13.116864236367785 491.95062624337294 52.129992591557155 0.3903572914011019
1.4606100900823689 13.112279830401192 447.25824056953803 54.17301734146277 0.3959428655775503
1.4831523440965568 13.106864941156676 406.91970327840494 56.296075462683504 0.401635430551885
1.5055313537758266 13.10045230432916 370.5345156346858 58.50474046003596 0.4074635303810781
1.527773458128567 13.093268965990895 337.6617022024688 60.807214004710275 0.4134522455902739
1.5498313825118568 13.084964332249182 307.93324309370337 63.20774575062675 0.4196047079846387
1.5716853445879102 13.075728402938894 281.04612046244455 65.710850048002 0.4259217810678547
1.5933382001348828 13.065497451100693 256.7099183859167 68.32138813348489 0.43240880810959725
1.6147509079882116 13.054137891451303 234.64577392042278 71.04441184691126 0.4390808303973464
1.6359386281320392 13.04183097899125 214.65413747320832 73.88535775676098 0.4459450313493294
1.6568335275459645 13.028418562145374 196.53541728622884 76.84655057960045 0.45298952891065086
1.6774212877957684 13.013666887728654 180.0723741897426 79.93654896370275 0.4602276738426198
1.697737856705453 12.998019597917967 165.1260013550386 83.16379143958034 0.46768692744410534
1.7176959066003343 12.98098013226919 151.53464587720978 86.53534059384137 0.47537788217691646
1.7373161947841789 12.962846865392631 139.17700310261384 90.05871529456155 0.483305392494326
1.7565652551078383 12.943407582148993 127.93589429667841 93.74196631891468 0.4914770637801022
1.775415225043155 12.922759898641797 117.69726162550855 97.59374743749764 0.49991188257856883
1.7938586937756589 12.900729201190419 108.3627026674577 101.62329310224185 0.508625904219159
1.811884708941338 12.87755370889534 99.8589145739755 105.84048071641084 0.5176264359279236
1.8294351747012254 12.852903739596664 92.09653130317224 110.25591834617603 0.5269261003219925
1.846547658145014 12.82719732132188 85.0234390123762 114.88100992100229 0.5365484667092348
1.8631263740364195 12.799741873052861 78.54414853530903 119.72799346917743 0.5465133120570888
1.8792124819159108 12.771009105119937 72.63144606048216 124.808657371419 0.5568240461778733
1.8947646099114996 12.740946041059269 67.22416034838108 130.13229434295934 0.5674867199348195
1.9097907402329448 12.709475571558867 62.27049582499288 135.71891063665328 0.578548416338895
1.92422008220229 12.676583815030682 57.74134616413552 141.58481676981737 0.590027708219009
1.938064192625164 12.642182536491998 53.58777359794731 147.74759264103864 0.6019427144692319
1.9513063976897547 12.60641205253817 49.77970655390269 154.22616808490358 0.6143288343998105
1.9639305166888914 12.569139386676428 46.28773602077132 161.04100537441974 0.6272180867104138
1.975891602439233 12.530311760850909 43.084782243925765 168.19948391140886 0.6405766224456626
1.9872107273131852 12.490098445594764 40.14110390657282 175.73736684636447 0.6544906742985857
1.9978380006582932 12.448282213652151 37.431630582559485 183.68138792564588 0.6690032988249035
2.007770960122597 12.405089082806898 34.95002056224179 192.05499364713143 0.6841238447851843
2.01699007086451 12.360343250566286 32.664969392216996 200.87506952585852 0.6998608011617748
2.025506328179543 12.314170063173242 30.561411007154888 210.18981627367424 0.7163158798370249
2.0332313113796117 12.266294625681725 28.625262280769892 220.0252614128713 0.7334899420567395
2.0402336075194234 12.21701784977555 26.839332796703754 230.41125257686295 0.7514218812438253
2.0464682990573784 12.16629307005625 25.195492580060854 241.40478200279728 0.7702209821634064
2.0519082828465844 12.113948447657648 23.678788119700883 253.02094297755076 0.7898312030443485
2.0565509208927377 12.060204807049011 22.281500095689914 265.3364788728647 0.8104290239901873
2.06038489244577 12.004910350483037 20.991729996793204 278.3724502591974 0.8319718148021225
2.063405123757789 11.94819008742539 19.801560003058484 292.21018130629443 0.8546072575200965
2.0655936333167753 11.889984094111723 18.70336054384668 306.8873496679934 0.8783478317120423
2.066956932161013 11.83035853447076 17.68952795164399 322.4826321019283 0.9032968953973511
2.067465873471909 11.76939174531316 16.753908551506854 339.0694863783781 0.9295618778965933
