M[M_sun], R[km], Lambda[1], P_c[MeV/fm^3], rho_c[fm^-3]
0.23841724892012095 16.20908015294055 2780876.1263280716 3.453507347168396 0.169602847481901
0.24842037316581775 15.866074451118413 2282014.2826800114 3.6356566622123143 0.17197984115982792
0.25870760201259707 15.56259810473622 1881215.0235204513 3.8249885864793867 0.17437763167587178
0.2692782061313127 15.293147253269874 1557745.5467633859 4.020623822041532 0.17677085759394762
0.2801357825167517 15.053456813264672 1294946.8772074378 4.2228668047911055 0.17915088389174735
0.29127206819553525 14.839508377296147 1080802.36389171 4.433094906761089 0.18155471352385638
0.30270200568694783 14.647825474411707 905049.0119418411 4.6516560346947875 0.18398618326590183
0.3144103999600253 14.476414788207865 760553.1673632704 4.8789176726565495 0.18644694004884402
0.3264034767029071 14.322580180559736 641129.3770121381 5.112238721131868 0.18887817095978707
0.3386802767013424 14.184348534223178 542044.4092081065 5.354729645101464 0.19133031375675044
0.3512409096637804 14.060143814192104 459654.5906249934 5.606925826770066 0.19381246039382694
0.3640818246090675 13.948299695147455 390806.54584083677 5.86924029865229 0.1963301611787418
0.377214957459955 13.847651774603587 333057.19309507066 6.138651551404582 0.1988249562055255
0.3906303094445129 13.75703055244391 284586.9298454146 6.418421782374501 0.20134844829656584
0.40432473865868707 13.675397374793842 243714.6530375612 6.709439446705024 0.2039064589214377
0.41830662390473866 13.602001763483928 206583.00581838767 7.011921575175956 0.20649253583705585
0.43257385568161993 13.53599597050396 179914.90741023928 7.3222609765241975 0.2090533402429548
0.4471223585109183 13.476666972466397 155051.48426589786 7.645154627751908 0.2116585881754315
0.4619610042938383 13.42351533120761 133892.48525013356 7.981136836918436 0.2143082687692016
0.47707400020587454 13.375835926171249 115828.87216551941 8.328449649328556 0.21696738403318203
0.4924784161076841 13.333268144430193 100379.49106917271 8.686708633493303 0.21962132193006897
0.5081554955360581 13.295076538237376 87139.22259773611 9.059582258457098 0.22232349265297957
0.5241230133046174 13.261340009913388 75773.31847523234 9.447676706632157 0.22507663046627055
0.5403602935511744 13.231250406511148 65993.94213924378 9.84581578632034 0.22780679954968805
0.5568759646339757 13.204715085736835 57566.37459301513 10.2597017236431 0.2305805296943932
0.5736788590854762 13.18149982934021 50286.9142697129 10.6905293213581 0.2334048226865437
0.5907521050925485 13.16113576484335 43990.022902283185 11.135607486363128 0.23623660125410506
0.6080966100265823 13.143544464223346 38537.454954915534 11.595189622094242 0.2390826801321211
0.6257092842852371 13.128219111324272 33803.56404460782 12.073637557882634 0.24198811306478096
0.6435931995402218 13.115187682043844 29689.72976326185 12.570979617456434 0.2449453325577935
0.6617489081747109 13.104222837574317 26110.41381334261 13.081504088039857 0.24787781467243447
0.6801553555005165 13.095128745704713 22990.873536650608 13.613010441368331 0.2508689324022106
0.6988148804770182 13.08771499648854 20117.57202710096 14.16640673563147 0.25392060426545926
0.717748435814265 13.081836002669165 17888.190442083534 14.73609883812964 0.25697268256404016
0.7369321295063923 13.077399635840314 15805.715560194023 15.32687201018957 0.26006901831360485
0.7563536849747731 13.074202866936693 13981.360674306909 15.941931880164084 0.26323112453187736
0.7760152061275127 13.072074635861398 12380.420806685695 16.57884782578628 0.2664230500636173
0.795907573440959 13.070923053748606 10974.893038226252 17.235795322577733 0.26962395385400045
0.8160480049426587 13.070737948687045 9738.025933773328 17.91982870767591 0.2728969750173924
0.8364103900835625 13.071313085610342 8649.112893824251 18.63198173144471 0.2762435912361424
0.8569822020417722 13.07266354597389 7690.680860867457 19.36330207683527 0.2795790975744279
0.8777798389250144 13.074597175307556 6843.96951390535 20.12445732043319 0.2829831106760187
0.898768321173909 13.076896381068629 6097.047497925069 20.916943680092036 0.28645992888262045
0.9199693304066745 13.07979950427695 5436.2073923965145 21.73612182055107 0.2899650658135096
0.9413501040758345 13.082986305585562 4851.651164658247 22.583783862253807 0.29351165636540955
0.9629292139892797 13.086422697913976 4333.512673711896 23.466316527033666 0.2971417525537955
0.9846699802391674 13.090124343756603 3874.4853747068523 24.38503427369249 0.30085589692819886
1.0065822499574542 13.093883125185673 3466.8388883895295 25.329821990228357 0.3045584307425687
1.0286277829222372 13.097647551764915 3104.9381869917884 26.31350311046078 0.3083476985789599
1.050851368135651 13.101609867748033 2783.081475757325 27.337600533215493 0.3122255885232887
1.0731918838330823 13.105401596145484 2496.756837921602 28.399477709862257 0.31616624617456923
1.0956555534297354 13.109063694496147 2241.7117835853983 29.497117905715466 0.3201487648968597
1.118249167671177 13.11256916497706 2014.2542696919143 30.63985735136599 0.32422008325304
1.1409351967911632 13.11596247056536 1811.523073773175 31.829553204316408 0.32838184000955767
1.1637152697629496 13.118995079944193 1630.4242829706423 33.06183063269036 0.3326026359887549
1.1865604831304333 13.121687549562072 1468.6724523734274 34.33874062824389 0.3368896609180898
1.2094764725973597 13.123976842780934 1323.9089020392178 35.66825247775164 0.3412825884988817
1.232442113642447 13.125772388085084 1194.3584351711772 37.05239027908158 0.34577980227419836
1.2554601560465182 13.127307456894219 1078.3903024891167 38.488914418610705 0.35034739292417677
1.2784746651180778 13.128148104835933 974.3950051735125 39.97712540281693 0.3549855869623044
1.3015314866618737 13.128628485208719 881.1669571432427 41.5269308323917 0.3597412638979438
1.3245513111033391 13.12829285991995 797.4177861081369 43.140799796362096 0.3646165426757424
1.3475660052201146 13.127424187063063 722.2122554213082 44.821328612698025 0.36961276893351797
1.3705276851513057 13.125834773031297 654.6091002954662 46.562528813755655 0.37467299478852445
1.3934720808575112 13.123622920803896 593.7545824318588 48.37389891697628 0.37985282087052236
1.4162989455705475 13.120490004533915 538.976058764428 50.26092198627045 0.38516839149163146
1.4390644058329711 13.11665828279532 489.6494699238348 52.22680493887696 0.39062244981717065
1.461751890396932 13.112220698704919 445.18653891163996 54.27494437420553 0.396216162973759
1.484271520916326 13.106551160123738 405.03585292055203 56.405927961515154 0.4019299785347884
1.5066534526484943 13.100086924299948 368.79893493044017 58.62040911863013 0.40776813599393535
1.5289203609766968 13.09292795970177 336.0892414142437 60.92906251325199 0.4137675511362993
1.550976580698907 13.08454598605646 306.47176507207934 63.33616147836471 0.41993117596278107
1.5728403877951491 13.07523155398992 279.69870442999104 65.84659245141114 0.4262611203726997
1.593064865685038 13.064916272274221 256.8629854072355 68.72709813784441 0.7764722568701505
1.595634883995275 13.047656942836632 251.13268652517763 72.30152408273491 1.839090068380911
1.584033178961191 13.01867508467392 256.91984384875184 78.48304597926831 2.8530521303062475
1.5658714990867444 12.981606484292165 268.0698234823782 86.73832161131082 3.999028312019081
1.5431524679262523 12.937089585357514 283.28086856676236 97.12248185786562 4.929066314606055
1.515768814846041 12.881407138011873 302.7196138289238 108.99378188640185 5.263724992047782
1.483335169063999 12.80792852006478 326.3077738684029 121.63584942776053 5.323621913397154
1.448474300964593 12.719258460170435 352.0039529628561 134.770637471529 5.377836376033044
1.4124617398192845 12.617015953308732 378.69778995410843 148.41271841806832 5.433967639095913
1.3761640317803256 12.502383763848206 405.4637048461852 162.58697011062125 5.492115963177819
1.3401142641301815 12.376273287801794 431.2550783399648 177.32040823921994 5.5523868760044195
1.3047952006474504 12.239532210682132 455.0497666533471 192.64156804416166 5.6148705969986095
1.270504755134568 12.092784012600525 475.88794749286444 208.58252033844767 5.6796811167114205
1.2376053729366636 11.936945401334707 492.6835230273649 225.1766838946542 5.746942264645493
1.2063168853140622 11.772700586127204 504.4015775625654 242.46039213611263 5.816769319946052
1.1768607671255766 11.601043796263308 510.43492053259587 260.4735013190294 5.889318510591938
1.1494004605618133 11.423079340881767 510.19169833552803 279.2573569596583 5.964706061143988
1.1240436527928905 11.239914649097585 503.5659525839504 298.7665609848606 6.0427349595842195
1.1008990940237773 11.052543906886223 490.58044898362783 319.1283823358371 6.123874028983762
1.0799932204499867 10.862446439042262 471.93568436258363 340.39815074236293 6.208344309183725
1.0613485623624497 10.670797013737962 448.26413053074094 362.6328744039111 6.296327854676045
1.0448508292070282 10.47856731601628 420.8202320001605 385.89241272439534 6.3880324789937575
1.0305048957348812 10.287197171652227 390.5565261674875 410.1820049393543 6.4834269829025235
1.0182045370615136 10.09784223518934 358.7905781140221 435.5398357690711 6.582606693404668
1.0078085875637413 9.911327717672027 326.5423898715086 462.1238047417495 6.68618751650348
0.9992087065105452 9.728504493173105 294.72685620746483 490.01487351872123 6.794436077818851
0.9922432870767165 9.55026384036018 264.1873779012083 519.1446478934502 6.906977172248136
0.9867797957289196 9.377001485262653 235.3924537572789 549.7301934148928 7.024657478277511
0.9826475399169704 9.209363160121303 208.77591216577434 581.873464284585 7.147812954855197
0.9797120339041675 9.04743605107904 184.51497597393507 615.5244849324098 7.276120649675514
0.9778039784506591 8.891546995822477 162.61258075043918 650.9717950464412 7.410700812099269
0.976806363770663 8.741680632872974 142.65343808358148 688.1661530168979 7.551211276553183
0.9765613125442495 8.597829697587532 125.7900246866464 727.3689971201541 7.698637997838646
0.9769544152787666 8.459888252880631 110.58326978898124 768.5829728326046 7.852808418939837
0.9778591532360085 8.32783217368061 97.29969007041053 812.0960787970969 8.014829999677726
0.9791806700356707 8.201226742089666 85.47521044597303 857.8863643792535 8.184363600599651
0.9807914360490321 8.08000531115492 75.42672309530992 906.2748185334673 8.362600082290573
0.9826291556486016 7.963929807291936 66.84378086618366 957.4045275433642 8.549926721025965
0.9845890719361745 7.852622133955538 59.24355898573063 1011.4027159152317 8.74659924428726
0.9865972319781513 7.745893706047467 52.65015534915338 1068.5732411443973 8.953658599652496
0.9885854416428744 7.643415792887113 46.92725400917021 1129.1413080299503 9.171738375119547
0.9904919248733012 7.54492185338611 41.9492311735819 1193.3566842791663 9.401548636297344
0.9922633965051317 7.450233750160922 37.633009494528395 1261.4727058011165 9.64376545999564
0.9938429193847319 7.358991661957171 33.87502641518648 1333.820765364403 9.899371607555016
0.9951892518980291 7.271029381545674 30.585375703279084 1410.7544573711168 10.169393015763996
0.9962555455142619 7.186137392841537 27.72331454714953 1492.647865772847 10.454877449205432
0.9970069595780297 7.10411497335072 25.224802682693067 1579.9145415000944 10.756972878305236
0.9974226666626459 7.024595079112309 23.014816850823852 1673.007831396657 11.076912117237583
0.9974611213446017 6.947677833940017 21.1010240816111 1772.3983453132619 11.415905614061268
