M[M_sun], R[km], Lambda[1], P_c[MeV/fm^3], rho_c[fm^-3]
0.23841724892012095 16.20908015294055 2780876.1263280716 3.453507347168396 0.169602847481901
0.24841303747489735 15.866332676903195 2282234.8988524303 3.6355373260265536 0.1719783231584118
0.25869214981288574 15.563025669597893 1881746.1092851826 3.8247431088932045 0.17437462872336237
0.26925729694737394 15.29371910352598 1558265.6296353643 4.020228331958459 0.17676601952316537
0.28010835568376713 15.053988169393943 1295599.1790491154 4.22232521644602 0.17914455085630682
0.29123733628543214 14.839917952621024 1060602.4827384804 4.43239975042233 0.18154689161095244
0.3026556775438145 14.648641073546642 905696.3069316117 4.650799447068742 0.18397690597338867
0.31435551122243965 14.477200787383701 761153.7240590517 4.877891470064192 0.18643624690529897
0.3263394658223172 14.323436216190041 641738.2068779235 5.110983033412923 0.1888650865560578
0.3386080924596043 14.185110528373581 542603.941401768 5.35328061904492 0.19131585521244618
0.3511566329595473 14.060841739536917 460109.6537306158 5.605274380438934 0.19379658826999988
0.36399071718983916 13.948961815473787 385528.9986638006 5.867376687089115 0.19631290381175298
0.37711198463855683 13.84839286512301 333483.7813927669 6.136478831417369 0.19880483644080404
0.3905141421275 13.757717622974951 284951.09173611895 6.416008873668306 0.2013269422275055
0.4041992915063046 13.676122838564057 244052.6787732729 6.706775535679228 0.20388368376164925
0.4181682150391013 13.602674208467372 209486.6301269897 7.008873664767565 0.20646647766698195
0.432426570036673 13.536765153708341 180198.07210234765 7.318930475231902 0.20902588586746323
0.44696075597002877 13.477372374114438 155310.87205475787 7.641528492414332 0.21162975854912855
0.4617841685237501 13.42410799859821 134117.63778553816 7.977201515012286 0.21427813894336328
0.4768871863707023 13.376336753272522 116029.24571850925 8.324020411794612 0.21693347266362276
0.49227475471601395 13.333694288008093 100563.77917101026 8.6819327918842 0.21958618513908001
0.5079381554808207 13.295583851865374 86426.5007302967 9.054444314560055 0.22228700477080987
0.5238886409667995 13.261717457227167 75924.71270106403 9.442159733540452 0.22503879878850405
0.5401182287336646 13.231673112114605 66127.92541920874 9.839673915668795 0.2277646827462325
0.5566207027101907 13.205169613817736 57684.69804093585 10.253135367100507 0.23053713784798557
0.5733979655062111 13.181870364608804 50399.18674553981 10.683519585535562 0.23336022373465778
0.5904616204165238 13.161470648060346 44088.68871841059 11.127848278474824 0.2361872338388352
0.6077891262406477 13.143707342899484 38624.82016304891 11.586934707651174 0.23903191642634772
0.6253837075823659 13.128515811390859 33885.99732127385 12.064863379247063 0.2419359413821396
0.6432567537828008 13.115469676719453 29763.429788924866 12.561311434894472 0.24488784508537112
0.6613826837448185 13.104391390822897 26177.396512450792 13.071255509333637 0.24781903189191157
0.679783636504619 13.095287362709454 23049.83051584415 13.602155038426803 0.25080885538861003
0.698424603753925 13.08777519329357 20321.00375386086 14.154915722310895 0.253859042112446
0.7173424762509504 13.08196482894752 17935.587094368 14.723503429584829 0.2569052037049989
0.7365062132161262 13.077546970892419 15849.76947066188 15.313565215343358 0.25999997591228535
0.7559066572413435 13.07417220775023 14019.3922121619 15.927879530236423 0.2631607007109268
0.775547607680779 13.072069888126716 12415.602673024616 16.563488800286212 0.26634607779439823
0.7954330586392633 13.070946537825186 11005.962698507643 17.219603621923508 0.26954547115270966
0.8155479013078254 13.070703560127559 9766.31755700093 17.902763134351606 0.2728167554262636
0.8358910002198952 13.071300452480907 8675.202579853623 18.613616782659 0.2761582422861513
0.8564442949656721 13.07260605396296 7714.168223207711 19.343714964182617 0.27948976197913994
0.877220834213329 13.074474448647283 6865.341005995813 20.103842334688274 0.28289214488280817
0.8981941840520502 13.076784954715146 6115.719981367897 20.895249806571073 0.28636710414341326
0.9193746793464399 13.07971514302811 5453.67070882104 21.712538425568244 0.2898641561033656
0.9407465059258651 13.082851494591939 4867.059131061261 22.558990844377423 0.2934085660966735
0.9622852774227256 13.086267022417132 4348.101745087662 23.440249625175092 0.297036368811771
0.9840179839786649 13.090006730968188 3887.3572977495514 24.356758049433974 0.3007416456363595
1.005907725147675 13.093788060687805 3478.7505553571887 25.30010031917361 0.30444195432127985
1.027945300008349 13.09760519126921 3115.437777357506 26.28227859905296 0.3082287193738046
1.0501431307009677 13.101480292274678 2792.7474147381513 27.304791728014894 0.31210383407551784
1.072478721183472 13.105401481229087 2505.485020662259 28.363940789094386 0.3160343676091319
1.0949163338627153 13.109009808441288 2249.670176588295 29.45979766865055 0.32001380566343796
1.1174835863015349 13.11253394659725 2021.57130630717 30.600657630862887 0.3240823756829448
1.1401499050573376 13.115826174365319 1818.118886056151 31.788372020665346 0.3282407862416555
1.1629041220380953 13.11882649062979 1636.430756325492 33.017298023836204 0.3324501029210651
1.185732969327938 13.121490036793496 1474.063754056149 34.28351347578227 0.3366835526372711
1.2086493341348938 13.12390818609029 1328.9080586288046 35.61709290234474 0.34111392403507085
1.2287778227015271 13.123903700389716 1212.672442325788 37.082503272112376 0.5380141179405145
1.2401871675427136 13.114114608380332 1144.0062109337207 38.847143032973435 0.8100697455030408
1.244894717796355 13.09345012635274 1103.857232550906 40.952870114890224 1.0601773338150604
1.245094467643201 13.063128185187857 1079.587539381957 43.37405258068092 1.2935002988264432
1.242110804135076 13.024154177774742 1064.5809572878923 46.11562619813532 1.509893119455985
1.2367809633106375 12.977261141335383 1055.0177429515622 49.178502667442636 1.7079143302295754
1.2297135369647287 12.92316201398361 1048.6308176114972 52.54710979748385 1.8848602332146083
1.221385902300493 12.862235432291355 1043.4372668120263 56.21032891087071 2.0580407716946345
1.2121049250003757 12.795182752808408 1038.5915401473962 60.17918471791031 2.2320930506603607
1.2021197136327657 12.72242529165053 1033.2561090696909 64.47043859124062 2.4187943005092167
1.1916196682667524 12.644980432609515 1027.3123867221445 69.10969890938738 2.63503384835161
1.1806825989504317 12.563146102195367 1020.5505763459659 74.11506974070828 2.8536059177267497
1.16923398649234 12.475058982035835 1012.3857372619085 79.43425433650336 2.957352313167005
1.157534255813018 12.378815228026031 999.9005941448602 85.01561584326322 3.0094256423590364
1.146017751238146 12.274769933033 981.7809622387366 90.83441700183803 3.045685126910956
1.1351182995264453 12.1644262890393 957.3141027483356 96.8884963936266 3.0831970963971362
1.1250265225347953 12.04872828478047 926.4490645279712 103.1874027813079 3.122087695499859
1.1159273600343846 11.92890961806654 889.7075058853586 109.74200418021043 3.1624106274250634
1.1079537472347236 11.805921809117928 848.086314078121 116.56374078670972 3.2042336555567146
1.1011339780614378 11.6805257035297 802.3345481038556 123.64285028304627 3.2474709414260357
1.095531246414279 11.55372075656663 753.6090343445957 131.0160073006833 3.2923434099090034
1.0910920909213486 11.426020957573229 703.1512302176106 138.70242508155457 3.338929307740923
1.0878473747842923 11.298151260088819 651.7851348146447 146.71826737561847 3.3873255332204546
1.0857258964292853 11.17075432913281 600.7980349382136 155.0806185511898 3.437623007062205
1.0847120997218636 11.044423485865641 550.9170522704445 163.8077694979088 3.4898948033696158
1.0847104675669943 10.919518950225998 502.8235622360434 172.91982478584106 3.5442379918475018
1.08567562058856 10.79652126777819 457.0560940588343 182.43847186906385 3.600773324057663
1.0875219189327756 10.675566054538082 414.0458686145627 192.38671488865177 3.6595887082517473
1.0901829472118616 10.557129875454818 374.05690772025196 202.78996025855704 3.720818352635391
1.0935616364593257 10.441328567496903 337.10809324859997 213.67512203916164 3.7845944333104704
1.0975861925672818 10.328286212218051 303.30398968836226 225.07130339252475 3.8510368848424843
1.1021703480472609 10.217955067822853 272.52541962481234 237.00716593990444 3.920305926909264
1.1072383940528043 10.110571894742106 244.65180645849125 249.4936460552058 3.992355871426013
1.112709106305537 10.006027776613339 219.5321497462747 262.5889351732909 4.067554771258634
1.1185026741248931 9.904283104786565 196.99275630140664 276.3330040342867 4.146049051307675
1.1245704882409882 9.805317236209756 176.79336048557485 290.768049973423 4.228056678365416
1.1308082846691843 9.70897769447691 158.77421742120092 305.94063900409543 4.3137869580558865
1.1371626900174514 9.615380746442087 142.72006701592642 321.9003687521411 4.403457606447455
1.143586090934098 9.524050450633391 128.41446081707446 338.65107919390584 4.4969743004448075
1.1499886648763558 9.435250088014465 115.68866096945136 356.291418795323 4.594872491523554
1.1563407780062036 9.34850302530338 104.13091496422216 374.88988891881456 4.697485514669047
1.1625756400938494 9.263877249015476 94.29883488936207 394.5012042445343 4.804999872631155
1.168650935681446 9.181143909750544 85.33860370299367 415.15342961727004 4.917430849725475
1.1745238648565466 9.100288763946246 77.38022224292139 436.9815982063563 5.035514307806351
1.180137964729411 9.021046990543347 70.29663412693564 460.04394150097716 5.1594184400894845
1.185456022430455 8.943368355133963 63.99306174129306 484.40679200949506 5.289354449879732
1.190444543979673 8.867187898071391 58.36968135099598 510.22571542268776 5.426132882646271
1.195071731638681 8.792204323474484 53.350994623104555 537.5175863440168 5.569537959269665
1.1993142935882402 8.718483125555052 48.86615670782957 566.4936214611191 5.720743665529134
1.203123904728211 8.645838176737177 44.8615656450524 597.1873954312438 5.879531202999762
1.2064798386452404 8.574126319243565 41.27447065960064 629.8177573949604 6.047108631101334
1.2093626452482371 8.503322064079718 38.062643361038354 664.4655711654733 6.223485815244912
1.2117504850387628 8.433409197160895 35.180192931391545 701.3360920832723 6.4096108669606995
1.2136179127464153 8.364160102041808 32.58538388749119 740.6142532921945 6.606244656300652
1.214955386717054 8.295658812005506 30.256099225227 782.439284252188 6.813631479398255
1.2157527101508412 8.227739818264645 28.16560435335249 827.0768244610201 7.032988638554923
1.2159811619878071 8.160389138768064 26.27463147120212 874.7576807120685 7.265119294618735
