M[M_sun], R[km], Lambda[1], P_c[MeV/fm^3], rho_c[fm^-3]
0.23841724892012095 16.20908015294055 2780876.1263280716 3.453507347168396 0.169602847481901
0.2484087203671079 15.866412031555399 2282476.1603207113 3.6354533821086727 0.17197725536002853
0.25868370269671337 15.563250891996688 1881993.6333835674 3.824570440784126 0.1743725164566601
0.26924061198739 15.294083660091655 1558612.3102829836 4.019950156991887 0.17676261658024536
0.28008865389003174 15.054387861378263 1295972.6885152003 4.221944294929031 0.17914009657015192
0.29120945025760253 14.840429882925875 1081775.1133414053 4.431910835917266 0.1815413903352496
0.3026237516196252 14.649159992502511 889628.2611862897 4.65019701660801 0.18397038133605667
0.31431913993675753 14.477664813812138 761553.2065375717 4.877157894483913 0.18642848648382074
0.32629468669293044 14.323932128686737 642081.2521846418 5.110099986780681 0.18885588511331552
0.3385568191892394 14.18562592316718 542959.788967226 5.35226164352939 0.19130568776061208
0.3510979050134252 14.061375771365016 460456.058630907 5.604113097704152 0.1937854271302055
0.3639285667429275 13.949632607874335 391539.22450610955 5.866066252940169 0.19630076896376752
0.37703910537240914 13.848857568509176 333765.57595539873 6.134951107440219 0.19879068945124234
0.39043289818891475 13.75821764936199 285224.04052427923 6.414312315741127 0.20131182093764768
0.40410944422615 13.676636557979622 244301.00595856807 6.704902549754032 0.20386767063158795
0.41807139232115564 13.603129411237271 207102.09862259237 7.006730784656103 0.2064481570712588
0.43231778863460846 13.537115417704056 180390.70171092922 7.316588983519482 0.2090065842107331
0.4468462873865731 13.477705184389025 155479.4919710457 7.638979229475739 0.21160949060791134
0.4616575799661068 13.424485643899718 134282.2045840448 7.974434963604844 0.21425695752185148
0.4767543841719044 13.37673569383327 116173.51948112418 8.32090677521106 0.2169096338696884
0.4921360753297279 13.334150887516701 100696.19892412132 8.678575593378193 0.2195614855799512
0.5077843811824264 13.295961982825512 87431.8503351096 9.050832671252738 0.2222613561420827
0.5237271832586801 13.26204508689786 76031.70303100748 9.43828175912074 0.22501220625738333
0.5399443385080791 13.23204353248955 66226.74108633764 9.835356888361488 0.22773507948674862
0.5564383889286639 13.205427854015666 57775.56696029954 10.248520094081815 0.2305066391663107
0.5732073441548412 13.18217975446525 50476.87030244156 10.678592800776052 0.2333288774126273
0.5902553539740676 13.161662669201165 44158.96045507766 11.122394984357982 0.23615253763799482
0.6075757800692124 13.143963332474682 38687.63818011449 11.581133167334016 0.2389962397772772
0.6251574307595661 13.128689552473539 33942.439236283644 12.058697052417623 0.24189927611012155
0.6430155357305554 13.115610465956873 29815.070367063858 12.554517145598709 0.24484744591872148
0.6611342214990538 13.10461497857871 26222.56694797918 13.064053522446251 0.24777772345035437
0.6795204631174839 13.095413489747402 23091.622976659717 13.594526799935524 0.2507666384584733
0.6981508388185497 13.08790654599443 20358.937883305538 14.146841022781972 0.25381578257788034
0.717055420080404 13.082091310657031 17970.740138922458 14.71465310959379 0.2568577888479881
0.7362006428913901 13.077523319529938 15879.74380733229 15.304215250109001 0.25995146355003024
0.7555898105645439 13.074258500541616 14047.652731232765 15.918005933528352 0.26311121885128863
0.7752220360822683 13.072086111945145 12440.257975505408 16.55269763721846 0.26629199752030575
0.795097784946543 13.070994471771117 11028.455704029839 17.20822768818584 0.2694903309281895
0.815201011430257 13.070734878467402 9786.331727501052 17.89077351213431 0.272760396195092
0.8355241502455282 13.071296963733277 8693.669897247772 18.60054419526263 0.27609679239542667
0.8560701875155008 13.072601275421313 7730.642534317878 19.32995482831177 0.27942700286037325
0.8768267691321033 13.074468561431692 6880.428910378507 20.089360439451234 0.2828282419966393
0.8977877065928557 13.076751617363346 6129.717899151228 20.880010347725218 0.2863018968492129
0.918955227876581 13.079671827543617 5466.072398125915 21.69597249412358 0.28979327303748115
0.9403041625446187 13.082784672205674 4878.366587671219 22.541575623701917 0.2933361529766375
0.9618383957295386 13.086191843836307 4358.033199327988 23.421940019163582 0.29696234640561947
0.9835542622697935 13.08997416824364 3896.7465441453805 24.336885872767603 0.30066130604131913
1.005438148192461 13.093699755284941 3468.0674328373775 25.279225186052724 0.30436014664649025
1.0274669035083974 13.097541360919356 3123.1211438656183 26.260348450024587 0.3081451558020243
1.0496394351360374 13.101366455740285 2799.5907606744395 27.28174941062639 0.3120183233532637
1.0719523858724609 13.10521303177625 2511.731726486191 28.338983846169743 0.31594175165480926
1.0943887040710547 13.108887984791204 2255.2689987615163 29.43358895851118 0.3199190284672688
1.1169395686047332 13.112375071508092 2026.7174693581776 30.57312968598589 0.3239856707485709
1.1396063035571526 13.115812135651714 1822.799632171923 31.75945329797032 0.3281417338483679
1.162349354822512 13.118808288395373 1640.7241171523312 32.98602761597058 0.3323429955370069
1.1851658760759298 13.121462530325278 1477.911377945995 34.25913464048429 0.3366234978173265
1.2080546997560904 13.12383124748452 1332.4157021337032 35.58462588134303 0.34100949615968273
1.2309940426250647 13.125719283393126 1202.104965002412 36.96451804764616 0.3455004025957295
1.2539743066152553 13.127234822269413 1085.4947501802244 38.39401179536845 0.35004563932139926
1.276976734434346 13.128139950182202 980.8515456302155 39.877429946658836 0.35467567215995094
1.2999859286731916 13.128517641064985 887.0374556013016 41.42216137193935 0.35942261116289836
1.322989370741197 13.12834933591005 802.8470011399028 43.03065676305173 0.3642886537496179
1.3459884177988943 13.127512447762886 727.1470362498393 44.7049135604224 0.3692728115928067
1.3689438769150388 13.125987678349158 659.060111591205 46.437598054530184 0.37430992461570095
1.3918384995311237 13.12373918036896 597.8414837132435 48.242527400777206 0.37947864606923487
1.4146656532190478 13.12081734684807 542.766237020207 50.12271934179614 0.3847824043773749
1.4374133543070442 13.117030569248943 493.09180345664726 52.08135582363892 0.3902240806206495
1.460051452017597 13.112436436994289 448.3087995044001 54.12181259710566 0.3958055700737987
1.4825817295455952 13.107043724119501 407.91642974532436 56.240892779006124 0.4014874689821325
1.5049639278289588 13.100674784198432 370.1504000055418 58.446637936579826 0.40731052130341594
1.5271957546187553 13.093424888597104 338.47947412658556 60.74600918833718 0.4132938668109448
1.5492381694553343 13.085149718608797 308.68944539605235 63.14324431955398 0.4194407276672699
1.5711081969743197 13.07599789463722 281.7289235901147 65.6428465002253 0.42575209971554606
1.592761022259021 13.065790504812382 257.32874305159214 68.24966169863703 0.4322326897264695
1.6141836735436161 13.054620397259857 235.23849321965426 70.96872374215745 0.4388978655323378
1.6353418138056797 13.04214353656094 215.18734436349146 73.80545324831591 0.44575494338527033
1.6562417215845333 13.028771798689423 197.02131499421117 76.76050029596253 0.4527848205213279
1.6768324468771 13.0140680732253 180.51678023403454 79.84567455993142 0.46001501213991086
1.6971397007870286 12.998403035719313 165.53339355728593 83.06777755307816 0.46746543348837793
1.7171192579718675 12.981517664215394 151.91053435486563 86.43384640437395 0.47514698530374055
1.7367510086668623 12.96337796369461 139.5264349570602 89.9513762755933 0.4830647144791039
1.7559890296539813 12.944091891800445 128.26165884841672 93.62839274950163 0.49122606167746746
1.7748463024981898 12.923448585487149 118.00098187170585 97.47351880448537 0.49964955039524106
1.793305691423822 12.901448761525518 108.63457967918775 101.49595504136676 0.5083514993472006
1.811319753101348 12.878250690026826 100.11366935980178 105.70554595656249 0.5173394643254806
1.8288948877883233 12.8537999607148 92.33747798795345 110.11286372010649 0.5266257189305471
1.8459918691106785 12.827904323401333 85.23480015426385 114.72926975908614 0.5362334837016666
1.862607578438896 12.800663355189348 78.7454062659267 119.56695605001445 0.546182749272554
1.8787214927318483 12.772162921973026 72.81962820965165 124.63898515971178 0.5564820285463848
1.894267265076104 12.742028349754708 67.3960826899788 129.95313697474035 0.5671311498561589
1.909282394730406 12.710491686358727 62.431688340443664 135.5284151861192 0.5781741479255261
1.9237361170876324 12.677736037146198 57.88895337275335 141.38215947932233 0.5896339135568451
1.937604564122413 12.643440637596916 53.72195245365799 147.5318829705542 0.6015277798435386
1.9508836962643759 12.607800565874186 49.909726382672936 153.9964392900299 0.6138910726797905
1.9634920427877394 12.570459383830343 46.40807136287334 160.79620872578585 0.6267558876344203
1.975480787764032 12.531690590774453 43.19089739848974 167.94143950068676 0.6400987339886264
1.986815643715563 12.491614667771618 40.24228969271878 175.46202231949204 0.6539851244831846
1.9974662927735891 12.449839383813906 37.527402447657884 183.38741203758374 0.668468082915047
2.007439158122766 12.406782581009342 35.038638804797465 191.74409081738918 0.6835677935158366
2.0166619328294955 12.362028973703904 32.74537467421071 200.54267391366372 0.6992710260733409
2.0251827336082457 12.315810370407704 30.637004515104508 209.83422451680076 0.7156898633600178
2.0329608167149162 12.268057098784373 28.693786020748497 219.64802070575374 0.7328366958746018
2.0399822587971776 12.21888820912808 26.90351706523143 230.00712027899644 0.750727241548699
2.046233041252666 12.168135927184766 25.253327954510343 240.9716479469104 0.7694821219463689
2.05171388759532 12.11598548414852 23.7342774664319 252.55995586447796 0.7890566798268467
2.0563750980929627 12.062256194126835 22.3330882065965 264.8415916561939 0.809603318257751
2.0602439377084893 12.007083866090978 21.040755910015186 277.84469595127 0.8311042015868529
2.0633003911428074 11.950446502794524 19.84663510688545 291.6466287300522 0.8536930150148614
2.0655230346347544 11.89232464179533 18.744981107976106 306.2809614907968 0.8773707613216114
2.0669244924761347 11.832902352236108 17.72911611295086 321.83375201656173 0.902265491531498
2.067465956692691 11.771904758990638 16.78998105045555 338.37037942485375 0.9284579350701857
