M[M_sun], R[km], Lambda[1], P_c[MeV/fm^3], rho_c[fm^-3]
0.23841724892012095 16.20908015294055 2780876.1263280716 3.453507347168396 0.169602847481901
0.2484135704363045 15.866225221139015 2282149.5133879227 3.6355341364230145 0.17197828258544845
0.25869368539959897 15.562952522810397 1881838.9025763003 3.824736547950062 0.17437454846267145
0.26925635580069446 15.29365118761996 1558266.3354771144 4.020217761854135 0.1767658902179942
0.2801068414179779 15.054070055288413 1295645.529585119 4.222310741958703 0.17914438159963428
0.29123327839372876 14.840040010298745 1081445.0829898724 4.432381172083991 0.18154668256712117
0.3026550007433197 14.648651600040676 905748.8048962738 4.650776554899419 0.1839766580392082
0.3143565399223099 14.47715001669724 761151.8071156527 4.87786404552814 0.18643596113862596
0.32633720599138627 14.323436755751443 641742.4694358597 5.1109494768997825 0.1888647368935111
0.338606182029971 14.18513076391976 542637.7554751657 5.353241896608777 0.19131546883564085
0.3511545629302554 14.060843445227672 460102.6921704557 5.605230249570572 0.1937961641262696
0.3639870498996541 13.949001737483472 391237.90500715974 5.867326887570192 0.1963124426595521
0.3771102233216978 13.848321501810435 333483.0944562197 6.136420773392646 0.19880429881340406
0.39051082574073814 13.75772434939982 284952.35349703615 6.415944398668458 0.20132636756680827
0.40419435866148007 13.676134008305516 244063.9783804004 6.706704354965908 0.20388307520073862
0.41816468922129013 13.602722257525983 209502.45838826272 7.0087922256065385 0.20646578140127056
0.4324218303856977 13.536783781197231 180215.51711069676 7.318841486899259 0.20902515230849286
0.44695965878949956 13.477327628026101 155310.5181748302 7.641431606643261 0.211628988257809
0.4617795542109368 13.424135350633456 134127.12028019968 7.977096369937421 0.21427733392591644
0.4768821445828487 13.376371767117778 116036.15417418737 8.323902073346746 0.21693256663435523
0.4922689442528038 13.333720735648868 100570.63604766653 8.68180519511668 0.21958524638496751
0.5079320402450725 13.295574916314232 87310.89527207003 9.054307045672255 0.22228602993513555
0.5238814077551138 13.26176586058404 75929.54516520254 9.44201234058125 0.22503778806707314
0.5401123356608528 13.2316763934616 66130.80073772956 9.839509832318482 0.22776355757336456
0.5566120264733789 13.205165429199875 57690.52593115407 10.25295994610894 0.2305359786296773
0.5733900235138206 13.18189090245311 50402.39363696761 10.683332322473069 0.2333590322865739
0.5904535170764005 13.161527388109278 44093.779697837075 11.127640999354364 0.2361859150399882
0.607781539320964 13.14377331196241 38628.32041676737 11.586714189553437 0.23903056034738307
0.625377556799897 13.128524708022784 33887.1024053246 12.064628993229581 0.24193454771175432
0.6432474732845102 13.11545118905216 29766.28071011847 12.561053174693203 0.24488630945795584
0.6613758051581844 13.10451776820063 26180.430385531134 13.070981749360952 0.2478174616866322
0.6797722503089308 13.09530331108296 22874.894221387327 13.601865073143866 0.25080725063489057
0.6984153631778619 13.087805645229505 20322.731191449922 14.154608783228507 0.2538573977117105
0.7173303674522685 13.081924274345116 17937.076903790898 14.723167000710415 0.2569034013151429
0.7364937915436127 13.07751601934905 15850.121688051242 15.31320979005246 0.2599981317855924
0.7558926487895778 13.074214452828452 14020.962034311387 15.927504196390622 0.263158819712824
0.7755342142579722 13.072066969219128 12416.441467172051 16.563078577981635 0.2663440219516192
0.7954175372633399 13.070991184427479 10934.165996894833 17.21917116580927 0.2695433749971075
0.8155338761337997 13.070732057474345 9767.475430101309 17.90230734471487 0.27281461291059156
0.8358768165989823 13.0713068935158 8676.026400958495 18.613119813566374 0.27615590619953667
0.8564310042317034 13.072554169979941 7714.326461970546 19.34319185240171 0.2794873760990371
0.8772075112229978 13.074472290849263 6865.681900283567 20.103291779162298 0.2828897154986336
0.8981773763339157 13.076791733451063 6116.253342023556 20.89467044563499 0.2863646251473157
0.919358042079887 13.079727545508806 5454.264340051003 21.711908622722383 0.28986146127411516
0.9407337435098952 13.082952248043886 4867.680421361192 22.558328747270785 0.29340581307285873
0.9622689318454797 13.086252999592066 4348.131555290154 23.43955351868966 0.2970335545798887
0.9840022845156249 13.08998898117672 3887.6570878342145 24.35600251989224 0.30073859116787105
1.0058887633364397 13.093740222753471 3478.7566201827935 25.29930665046911 0.3044388440085986
1.027930044442631 13.097636246801079 3115.9039981707756 26.28144481114116 0.3082255422729136
1.050125895586621 13.10151794570118 2793.098497559128 27.303915647114614 0.31210058291335074
1.0724512743591532 13.105352659272791 2505.8279649151236 28.362991892187658 0.3160308462246083
1.0948971518030932 13.109007360487949 2249.983622019756 29.45880116843517 0.3200102020715064
1.1174618699615064 13.112539951527099 2021.8332879483564 30.599610961091535 0.32407869876002143
1.1401331882937824 13.115859241375768 1818.35511779909 31.787272460034313 0.3282370200271785
1.1628891715572345 13.118839607235032 1636.566932898648 33.01610901934235 0.3324460303435177
1.1857198915944462 13.121551165900286 1474.2167973523954 34.29072473016474 0.3367291194729252
1.2086146028479936 13.123860220318004 1329.059527637771 35.61781096802925 0.34111786590494153
1.2315731906538485 13.125791511718228 1199.0771665751531 36.99938737029198 0.3456112735429733
1.2545670650573149 13.12723884129519 1082.6355409479029 38.43166956349028 0.3501653764457811
1.277580716515525 13.128186668686283 978.3084590125771 39.916988909858986 0.3547986457510647
1.3005892298761619 13.128477521720914 884.6726317451977 41.46373302417382 0.35954904992308356
1.3236185463936596 13.128283001454806 800.6418752827665 43.074359890178606 0.36441875522758915
1.346617836917994 13.127479868245803 725.1486800252279 44.75145833830004 0.369409713955239
1.3695811279102497 13.125947915066847 657.317930734273 46.48716606880201 0.37445397775057154
1.3924828132178086 13.123684006591944 596.1960453084569 48.29464998352694 0.379627102581021
1.4153156100296023 13.120682210387226 541.2510792913442 50.17755126441164 0.38493554483036696
1.4380698792892075 13.116884070500923 491.70966969386296 52.139061753015454 0.39038213084104867
1.4607143127823088 13.112278092189563 447.0460469131382 54.18256546090187 0.39596846699173044
1.4832591966255622 13.106824470191832 406.75124939548346 56.306365609004054 0.40166302156596967
1.5056347098540683 13.100406914360848 370.37826363852446 58.515575215604706 0.4074920629792796
1.527876150519365 13.093196275423464 337.5208276932328 60.818627410156694 0.41348177988724116
1.5499295754409923 13.084934802398287 307.81801640082 63.213718946509246 0.41960155825565026
1.5717975981089938 13.075667897099919 280.9192177932246 65.72746868061449 0.4259570986187948
1.5879303967868215 13.06369763259832 261.7148590761796 68.65676693314985 0.8238411026049467
1.5940705418427672 13.042805999560915 251.71796576821626 72.219012838577 1.2087231086201247
1.5934998487439633 13.012439581984644 246.65630438036268 76.51459104058306 1.5638849567764384
1.5881334156922762 12.973157009262922 244.55213550278955 81.53206077206156 1.8857577276175637
1.5793135938646303 12.925650528076178 244.23995202025108 87.20766179039992 2.1834478957251493
1.5678859465047927 12.87084518576577 245.10695069584534 93.52935137235386 2.463887515856613
1.5544528757531981 12.809047820690962 246.69112346103248 100.51322409125274 2.7669645822316866
1.5395354820536091 12.742232397511707 248.89062267060632 108.27552679420164 3.202624151828991
1.5230405569169614 12.670151574807687 251.77435360617162 116.8068859716623 3.4525468084517468
1.5047570377767396 12.587893010039805 254.74193716395513 125.87240192828135 3.5279683839999447
1.4854739897891294 12.495056402674864 256.93552296285276 135.32734122537968 3.5670778756112944
1.4660027537686469 12.393286601927162 257.7997183988939 145.16066207174035 3.6071668489131543
1.4468635369051384 12.28405332619891 257.0969561771388 155.39213613796557 3.648703650851232
1.4283994915589375 12.168733629216762 254.67339169454783 166.04288826704015 3.6918108190468106
1.4108430550760536 12.047867769199694 250.44071115074016 177.13583504771972 3.736560314520066
1.3943624296464252 11.922803911224126 244.48846296022563 188.68900466822203 3.783022999343462
1.3791015922171481 11.794171883418429 236.9062267470504 200.69801026738153 3.8311364633010485
1.3651198712681591 11.662832723258541 227.83354076584718 213.22373736465138 3.8811605575520285
1.3524436987961 11.529545406309856 217.59398456883196 226.29745110377078 3.9331860423623595
1.3411192390692994 11.39503449723004 206.34884895212232 239.95168768492803 3.9873346627479043
1.3311341563203494 11.260009726917755 194.4284923107118 254.22247897898293 4.043727953967994
1.3224449049001639 11.124972763454078 182.07186608777738 269.14778575799323 4.102491640876122
1.3150130992061433 10.990676493878984 169.55348748508155 284.6952543656302 4.1634520215455435
1.3087951205815158 10.85741128069144 157.07722020992634 300.97125852507907 4.227024742500568
1.303684141565954 10.725707576552326 144.87266980811455 318.02944383542774 4.293402182123584
1.2996290424878076 10.595985226733351 133.09540062533202 335.90080109805723 4.362659702967946
1.296522812361949 10.468377061867484 121.86062198137667 354.5798144976416 4.434724647485976
1.294296379544893 10.34328471990671 111.24093998699823 374.20084142191166 4.510119329924983
1.2928454693165008 10.220785596167818 101.31846632567539 394.7875445294649 4.5888787148682
1.29208010376975 10.101077499406609 92.12195330162054 416.3735916104768 4.671079324587502
1.291909146085179 9.984250810362466 83.64335059370653 439.1032329349471 4.75726698924395
1.2922349836445888 9.870249018703936 75.87636676543941 462.9314442594128 4.847155425224661
1.2929891674583591 9.759184714212306 68.80062071846459 488.06471287901996 4.941555545910916
1.294063364245604 9.651015732654445 62.38663645144234 514.4666394599171 5.040181410521506
1.2953943263822143 9.54566958710327 56.58230392531326 542.3368850926188 5.1438161052462315
1.2969021714430655 9.443110383828827 51.236127314435045 571.6874867228345 5.252354727682158
1.2985132569613804 9.343248362359867 46.65116104938698 602.6793905897966 5.3663624176767035
1.3001518287843237 9.245919667900809 42.42260826712873 635.4382378876013 5.48624327658317
1.3017541432840158 9.151086196707004 38.62691831549457 670.0212736166123 5.612044122008621
1.3032783044268361 9.058609120063224 35.23388738257128 706.6304799738751 5.744470795365924
1.3046447317287622 8.96845819130284 32.19504278701672 745.411257480919 5.883934548882898
1.305815171985815 8.880334378891275 29.467893317536255 786.5232396131331 6.030889549405108
1.3067417559677434 8.794247596189551 27.03122830176911 830.1381460653121 6.185815092135283
1.3073786895990736 8.710050250410092 24.84977641771106 876.4472994600108 6.349239378833395
1.3076820931941404 8.627659260737495 22.89434581563067 925.6854637631459 6.521862941984912
