M[M_sun], R[km], Lambda[1], P_c[MeV/fm^3], rho_c[fm^-3]
0.23841724892012095 16.20908015294055 2780876.1263280716 3.453507347168396 0.169602847481901
0.24841269545754402 15.86633476582565 2282271.329893639 3.6355233501057245 0.1719781453794131
0.25869094584920466 15.563085705126785 1881827.5019094185 3.824714360795641 0.17437427704493397
0.2692537476584088 15.293703882322212 1558318.7428673967 4.02018201701238 0.17676545294767587
0.28010537773211697 15.054063195134129 1295581.3850444742 4.222261793820463 0.17914380922709888
0.29123206258101014 14.840018142547983 1081352.492142856 4.432318346176305 0.18154597564876246
0.30265101638681974 14.648653115244198 905772.3362720974 4.650699141203657 0.18397581960834805
0.3143500528461089 14.47726314423266 761212.5571569104 4.8777713050954645 0.18643499477314762
0.3263321164765964 14.323493836392819 641770.0583353232 5.110836000538614 0.18886355445738398
0.338600229422585 14.185173436895186 542664.0047537544 5.353110951206723 0.19131416224775138
0.3511473655125985 14.06091100700318 460187.3299199443 5.605081015120826 0.19379472982736387
0.3639793128747843 13.949193460821112 391325.03020913457 5.867158484183603 0.19631088321492215
0.37710015410952025 13.848400627434993 333514.33572871034 6.1362244434019155 0.19880248076356583
0.3905010096099442 13.757784646421905 284993.1467487066 6.415726369387165 0.2013244242886525
0.4041845549246932 13.676228084840638 244098.50249493634 6.70646365007474 0.2038810172895302
0.4181527204588828 13.602790066665424 209530.33019466742 7.008516831554729 0.20646342691439995
0.4324080876438488 13.53685456235458 180235.2555619748 7.318540565228684 0.20902267171598968
0.44694476858133375 13.47742027955466 155334.9187680447 7.64110397975093 0.21162638345683127
0.4617611472024547 13.424214566615674 134148.58695599262 7.976740814239859 0.21427461170102638
0.47686576650134 13.376404414897488 116057.74779992235 8.323501904538654 0.21692950284013934
0.4922495850466181 13.333719431998071 100583.87581050135 8.681373719534736 0.2195820719356075
0.5079136210975455 13.295630004545345 87329.2783396768 9.053842864129681 0.22228273348002234
0.5238633848205547 13.261855821890757 75945.7545704556 9.4415139248907 0.2250343702686744
0.5400891695981325 13.231744359142764 66143.26764072175 9.838954979097602 0.2277597527644755
0.5565903336405278 13.205219069164144 57703.823811203794 10.252366755333924 0.230532058701962
0.5733658622279886 13.18187139743775 50411.048928111784 10.682699088520929 0.23335500338002466
0.5904270799911426 13.161467035201007 44099.738577196 11.1269400829485 0.23618145550858038
0.6077562805532536 13.143879713688326 38637.57988330374 11.585968506688578 0.2390259747607228
0.6253507318678793 13.128515827383474 33893.215130051496 12.063836417275068 0.24192983501750848
0.6432172971297959 13.115519358636398 29771.774124274736 12.56017987110891 0.24488111675339147
0.6613394687268833 13.10448338968726 26186.237429686502 13.070056035036327 0.24781215206629056
0.6797386246555586 13.095302631386602 23056.57846199988 13.600884562469629 0.25080182419854097
0.69837934695563 13.087856302429497 20176.535856157887 14.153570877744391 0.25385183721896337
0.7172920493193932 13.081998784319438 17941.9296500846 14.722029380201958 0.256897306607404
0.7364504986636811 13.077485795732184 15854.104989671921 15.312007935873412 0.2599918959564903
0.7558531974131394 13.074198917055716 14024.508416545274 15.926235024384233 0.26315245921492914
0.7754945853401879 13.072066558747384 12419.406959328138 16.56169143724872 0.26633707024951164
0.7953734844277623 13.070995283340965 11010.748967545342 17.21770884517367 0.26953628699096865
0.8154876290987882 13.070763767744381 9706.765694664367 17.900766125808666 0.27280736815249607
0.8358302556050974 13.071303697659523 8678.30356884289 18.611439355326723 0.276148006923589
0.8563784147832321 13.072579499157365 7716.856497854463 19.341422997697357 0.2794793084634038
0.87715587181222 13.074468679941994 6867.870906559701 20.10143012886907 0.28288150077087687
0.8981247556618078 13.076815647954776 6118.392205627721 20.892711395708297 0.2863562426748004
0.9193075347013111 13.079705415253565 5455.591363660637 21.709779016342413 0.28985234901683926
0.9406735061941522 13.082864742380842 4868.858170936317 22.556089945061437 0.2933965040519659
0.9622085581336951 13.086259728149065 4349.599145947818 23.437199721559633 0.2970240386063037
0.9839429189435072 13.089963625643197 3888.854336098242 24.353447800621574 0.300728262902624
1.0058249671585922 13.093770454741588 3480.114361029743 25.296622973133207 0.30442832693062527
1.027868333707326 13.097589546837803 3116.789258112208 26.278625480943784 0.308214799377322
1.0500606558452552 13.101528758601535 2793.9381702029655 27.300953314225936 0.3120895896082679
1.0723845035066413 13.105323773849603 2506.62528340955 28.359783355429542 0.31601893924967434
1.094836321395597 13.109010226048673 2250.5990562074417 29.45543167453488 0.31999801714585835
1.1173929879440776 13.112501899491773 2022.4129294557654 30.596071833320472 0.3240662658987828
1.1400637348098257 13.115813498679218 1818.8781691320203 31.7835544974242 0.3282242852636632
1.1628147021425763 13.118846481309708 1637.10687225125 33.01208863454188 0.33243225972368007
1.1856446574694273 13.121497650725207 1474.7007764179903 34.28650267325265 0.33671500300014534
1.2085383006927162 13.12386874986591 1329.5401296042076 35.61337569931063 0.34110338202108925
1.231491607521711 13.125734396058688 1199.4643422637473 36.99472695841478 0.3455964552373635
1.2544840613738633 13.127235287318117 1082.9935585039511 38.4266363633239 0.35014937281772723
1.2775025494424241 13.128182179613024 978.6437472048567 39.91170155551344 0.3547822094014042
1.3005072421007005 13.128471107962715 884.9928402119914 41.45817660797877 0.3595321502730333
1.3235408786830145 13.128316675481395 800.918604809365 43.068518529231454 0.36440136586113986
1.3465215820875849 13.127443275592638 725.4226195204694 44.74531549231915 0.36939186179324357
1.3694975634699833 13.125942558315247 657.5117572717307 46.480540603916 0.3744347230154197
1.3923970453404844 13.123714727322858 596.4192013634351 48.28768299658178 0.3796072590789347
1.4152285644076297 13.12072258614639 541.4340416448973 50.170222059353165 0.3849150750432578
1.4379733882493233 13.116900897478006 491.9022896143525 52.1313483101895 0.3903610045659527
1.4606256948101017 13.112299444814441 447.2396558080481 54.17444465563289 0.39594669264124255
1.4831651583541106 13.106864140890277 406.90649178904374 56.29761369454399 0.4016395550196628
1.5055455227500492 13.100447665429092 370.5191996341427 58.50636010061748 0.40746779559533697
1.5277874984605513 13.093265516006225 337.6461089395699 60.80892014225111 0.413456660536631
1.5498467829182339 13.08497142674724 307.92148755834916 63.20954380445734 0.41960927913031537
1.5717031595997268 13.075727845648974 281.023197334823 65.71274574935536 0.4259265111912046
1.5933529930854295 13.065500029685898 256.68834842518936 68.32338763953118 0.43241371773284387
1.6147727732039847 13.054185590983796 234.6472145362768 71.04652181731568 0.43908593094057535
1.6359549992475095 13.041838928705637 214.64181497812658 73.88758529620362 0.445950330530136
1.6568547383298429 13.028428334653722 196.52303425886976 76.84894950514848 0.4529952358085748
1.6774580188812225 13.01369766599774 180.04835420276157 79.93908240962377 0.46023360254092127
1.6977478565330009 12.997904222691188 165.10053827709243 83.16646820215993 0.467693102454345
1.717712430874023 12.980963154437736 151.52129444390891 86.53817017965733 0.47538431941751824
1.7373321879976458 12.962786152738026 139.16684304127807 90.06170787166035 0.48331210251947304
1.7565779293412827 12.943332727163007 127.9189119903567 93.74513275835162 0.49148406173711495
1.7754242139554348 12.9226866900654 117.68871744651099 97.59709946953171 0.4999191965258379
1.7938790095758463 12.900729203266556 108.35852049594226 101.6268434017149 0.5086335548733751
1.8118953346261357 12.87755123090799 99.85351226336796 105.84424287644926 0.5176344370767461
1.829457237599283 12.852954733868145 92.09688985209641 110.25990696163052 0.5269344754853346
1.846539140326347 12.82696718547528 85.00961914418508 114.88524077281167 0.536557249133154
1.8631417171346794 12.79973115216495 78.54190032097054 119.73248362346153 0.5465225290323164
1.8792318495128362 12.771054002776538 72.62951887676093 124.81335795323955 0.5568334724507571
1.8947820760678316 12.740950225003175 67.21955404824769 130.13728985254895 0.5674966344237148
1.9097988612643595 12.709469865008794 62.26920470661557 135.72422238539318 0.5785588523874595
1.924239822309736 12.676635334484365 57.7377678396953 141.59046774155934 0.5900386889367645
1.9380796287237505 12.642142531713572 53.58160291178212 147.75360768363288 0.6019542848797831
1.9513139797452104 12.606401360978708 49.78042930280634 154.23257417322785 0.6143410415776044
1.963943510266584 12.569088218352334 46.28526934616254 161.0478317718146 0.627230975590167
1.9759020785883834 12.53023890178452 43.07952674574308 168.20667981751208 0.6405899489907136
1.987222091205643 12.490124193466963 40.138070796015064 175.7450453494268 0.6545047725116491
1.997862932105783 12.448364481384168 37.43381532133451 183.6895861752716 0.669018224653214
2.0077797438525975 12.405030924252996 34.949705931484935 192.063664064273 0.6841393518697012
2.0169980953131668 12.36027956892448 32.66273003995247 200.88433954039405 0.6998772491034501
2.025513822491699 12.314136296397464 30.559023116215055 210.19973342366606 0.7163333389011901
2.0332436011697816 12.26623679737397 28.622596146528053 220.03578250017654 0.7335081608225948
2.040240519880509 12.216958594802751 26.838270904349635 230.42252393463843 0.7514412549305366
2.0464716567346817 12.166207874388055 25.193832763639215 241.41676663503787 0.770241260936064
2.0519058497612708 12.11388210249709 23.677541378551872 253.03380058700543 0.7898528056374836
2.0565497235143173 12.060096459742134 22.27958303586203 265.35028236988273 0.8104520547459465
2.060391145357217 12.004804471861961 20.9886588295105 278.38717078537564 0.8319960149324788
2.063407035020476 11.948119672914276 19.800300567893437 292.22590067466314 0.854632758804846
2.0655938205132274 11.889920349999123 18.701996947494763 306.9042643465784 0.8783750862533255
2.066957242883356 11.830317394664323 17.688821613614092 322.50073246779033 0.9033256661791096
2.0674652411372847 11.76930042551003 16.75180766375513 339.0888800391356 0.9295923098374907
