M[M_sun], R[km], Lambda[1], P_c[MeV/fm^3], rho_c[fm^-3]
0.23841724892012095 16.20908015294055 2780876.1263280716 3.453507347168396 0.169602847481901
0.24842282293702295 15.865997831831786 2281880.7385694464 3.635698855204229 0.1719803778706426
0.2587105491525359 15.562519406782453 1881078.805336309 3.8250753812096865 0.1743786934447168
0.2692852371203481 15.293029555355393 1557615.06032195 4.020763662001008 0.1767725682705261
0.2801474034738435 15.0531728253198 1294784.7039921284 4.223058308819743 0.17915312323425053
0.2912856190414475 14.839068675851172 1059866.7252954014 4.433340719064025 0.1815574794087618
0.3027165998429393 14.647704132637406 904857.7919300074 4.651958938751053 0.1839894638754366
0.3144307904608253 14.476118005649964 760344.6286248938 4.879280565352286 0.18645072143052818
0.3264258512436556 14.322304577238285 640905.0654304159 5.112682780737783 0.188882798109576
0.33870680625379224 14.184103163937646 541888.4996301215 5.355242090137692 0.19133542699072326
0.3512688171486942 14.059905498703438 459492.6913383976 5.607509872326431 0.19381807368153514
0.36411495006397493 13.947954412529262 390617.18925727304 5.86989939444912 0.19633626452037772
0.37725318332017027 13.84731310711423 332914.9472880092 6.139419994550662 0.1988320721226211
0.39066930476098255 13.756713527057984 284437.182240053 6.419275195793665 0.201356054704501
0.4043701482287449 13.67517894120896 243599.8889955127 6.710381658694329 0.20391451438139985
0.41835517522741733 13.601771782878728 209067.84788092956 7.012999643542386 0.2065017528037903
0.4326287596358106 13.535896280263955 179827.2481712829 7.323439026655039 0.20906305128276576
0.4471800317772612 13.476433701193345 154961.49114025765 7.646437277336844 0.211668785894151
0.4620211269003162 13.423322722883446 133810.17113013548 7.982528884011302 0.21431892663594462
0.4771458668550051 13.375742156185282 115760.1647144148 8.330016465904565 0.21697937997955732
0.492546366069632 13.332939886908768 100311.38794126376 8.68839809582478 0.21963375163140406
0.5082335973403765 13.29489497246174 87077.85957753216 9.061399853727828 0.22233640057945747
0.5242042512104228 13.261087109825135 75718.88326990815 9.44962842777892 0.22509001405257542
0.5404487128253662 13.231156802928577 65950.7001870522 9.84798865468777 0.2278216996143683
0.5569704165585379 13.204659200183212 57525.51900901383 10.262024814030902 0.2305958811576658
0.5737747806349838 13.181359405985239 50247.83553486645 10.69300932340248 0.2334206015253836
0.5908532417048171 13.161041059746031 43956.05990302216 11.13835274958256 0.2362540677985423
0.6082017850219683 13.143311084002535 38505.54106611875 11.598110327535373 0.23910064104894066
0.6258262501356247 13.12818300194128 33776.68977954005 12.076742046958168 0.24200657250418145
0.64371187391663 13.115117003277968 29667.280742066156 12.57440055461325 0.2449656736125058
0.661841109439136 13.104439200085542 26106.279231142566 13.085130459138945 0.24789861445185005
0.6802913882159242 13.09513528866542 22970.707318243116 13.616851604891686 0.2508901905383183
0.6989536268569942 13.087610961825536 20250.039902121993 14.170472885099835 0.2539423883247726
0.7178917016765505 13.081824365709059 17871.573157618503 14.740555957030445 0.25699656120973613
0.7370817947182722 13.07738436571031 15790.963890303494 15.33158095405129 0.26009345070289536
0.7565057003823663 13.07415972239467 13968.048236354305 15.946904749408393 0.26325604623216764
0.7761788066990153 13.072080006754646 12368.288854996897 16.584283320759397 0.26645029022819716
0.7960821413816552 13.070916095451828 10890.02768723787 17.24152560274643 0.2696517290628186
0.8162269994132618 13.0707323798247 9727.65838021828 17.925868363615038 0.2729253654336291
0.8365928777093818 13.071341884046168 8640.104903278114 18.63834656941512 0.2762726208638921
0.8571673676913988 13.072615734361108 7681.994702877811 19.370234537594097 0.2796107160942007
0.8779623804947493 13.074534413638204 6836.763800975421 20.131753708713788 0.28301530675685665
0.8989738603134728 13.076941005348296 6090.138182177139 20.9246220651538 0.28649278350815344
0.9201810704516631 13.079827045035955 5430.045173201914 21.744469337588306 0.2900007835515734
0.9415631707148289 13.082907764265473 4845.892932923631 22.592559694015556 0.2935481465925861
0.9631421641008684 13.086461125211077 4328.834383472734 23.475543436632293 0.29717905527070837
0.9848923902996275 13.090142526789858 3870.044683645171 24.394735650907887 0.30089391570909246
1.0068188525752189 13.093934390250446 3462.577910744966 25.340343225674243 0.304599662470422
1.0288831775529852 13.097788824712545 3101.1293761201773 26.32455654375569 0.3083898170509029
1.0510987367524596 13.101615234591117 2779.6970060140416 27.34921502095251 0.31226869023125753
1.0734507932246542 13.105495635152948 2493.6329144903525 28.41205852066427 0.31621293393605104
1.0959225063047549 13.109135946942617 2238.9043764951134 29.51033029765877 0.3201965441830747
1.1185243030414649 13.112704474090181 2011.740715028557 30.653735397259666 0.3242688364572252
1.1412181237937087 13.116032868151008 1809.1968045353365 31.844133037349163 0.32843177884575236
1.1640034133938615 13.119055211490876 1628.2731838284953 33.0775977258439 0.33265664142767126
1.186848938953192 13.121628346008599 1466.632856141865 34.35529923727074 0.3369450247273578
1.2097638392322676 13.123920681027537 1322.1952981229067 35.68564793007908 0.3413393953638211
1.2327402694812335 13.125829891404422 1192.7740154423946 37.07066944307783 0.34583792293939375
1.2557653370312103 13.12729518907506 1076.9099714954689 38.50865745325118 0.3504101681313206
1.2787856338143893 13.12814443081209 973.0964429099735 39.997866165125544 0.3550500620096059
1.3018357134093095 13.128489355003959 879.9486163226386 41.548727895595945 0.3598075589210928
1.3248711206739892 13.128289945788579 796.3508486816628 43.163715569530844 0.36468476150020895
1.34789288563906 13.127411593172273 721.206175265773 44.84542809189896 0.36968280614559196
1.3708749633681923 13.125864533154948 653.6476669543193 46.588524038263984 0.37474854136098856
1.3938047157458664 13.123532374872713 592.9080513763657 48.40123525082457 0.3799306807261558
1.4166580486478026 13.120512651239762 538.2144673418693 50.2896807763093 0.3852487121137066
1.4394149274320702 13.116616054707958 488.9216635792212 52.25707274065729 0.39070535001120726
1.4620803321526763 13.111974474587537 444.5108468375769 54.306812093174486 0.3963016100272341
1.4846224370216161 13.106466476990546 404.4247667744486 56.44027552437521 0.4020220748044743
1.5070162625492503 13.099997943224004 368.2453607453714 58.65657620649091 0.40786337958106594
1.5292697811638487 13.092680411218264 335.55592472393545 60.967162972035375 0.41386614311829634
1.551318768348295 13.084318065145181 306.0116150888642 63.37631657195118 0.4200332612170269
1.5732272735257735 13.075227222605067 279.28614633034357 65.88858065468976 0.42636525160248706
1.5948593849894819 13.06471294700187 255.0721880370463 68.50885646309267 0.43286912123080873
1.6162829924396984 13.053375106619677 233.15429319199595 71.24224303562742 0.4395590582094403
1.6374596090865539 13.040914978361364 213.27709936115278 74.09421874741335 0.44644189893861896
1.6583842965720803 13.027507733735092 195.2712346088678 77.0706458466413 0.45352096863873315
1.6789610611899235 13.012566615831236 178.8980381864459 80.17411461046858 0.460783618232346
1.6992452415129673 12.996697656003576 164.04415902113485 83.41480447591671 0.4682659881652442
1.7192085217563038 12.979603635332204 150.54922720849515 86.80069364867812 0.47598155408139675
1.738821405838908 12.961360957410696 138.2705748730916 90.33936315878861 0.48393466758541365
1.7580536379636742 12.941804116767642 127.09599351472765 94.03892985341267 0.49213336499481314
1.7769263465827625 12.921183619042399 116.91914103682511 97.9081282518448 0.5005978440118627
1.7953233159205937 12.898944505989967 107.64954948361182 101.95628158506904 0.509343471781959
1.813312586350034 12.875589157514014 99.20729165027436 106.19335357535637 0.5183769059321247
1.830855264722921 12.850864966143206 91.49614910596723 110.63004645660547 0.5277116822040844
1.8479170834879086 12.824764869064698 84.45717126258512 115.27787565924243 0.537372282647304
1.8645034302729684 12.797392083365024 78.0275896697625 120.14798676437361 0.5473734112370665
1.8805514930229184 12.768491264959376 72.15248338471943 125.24961127365475 0.5577083094393889
1.8960912253523363 12.73837148605493 66.77914415140505 130.6009355485079 0.5684168228492406
1.911063325514025 12.706672383979232 61.86296442953499 136.2172415039625 0.5795274922303015
1.925464683937619 12.673638326513482 57.36084958501202 142.11499694541777 0.5910579308309192
1.9392649463094473 12.639071518807782 53.23471727598754 148.31195708213284 0.6030283141439896
1.9524746229334216 12.603132207641895 49.45433465138818 154.8272518086187 0.6154742347616337
1.9650491613251555 12.565675608054098 45.98569474611232 161.67514794596974 0.6284049223993117
1.9769680508336347 12.526752676975633 42.80280393492145 168.87472924067492 0.6418271511729498
1.9882220704092757 12.48631957032329 39.882607768642075 176.45793572468042 0.6558136839387415
1.9988094064223654 12.444333972248273 37.19051568402444 184.45077253810578 0.6704040493697927
2.0086704316773885 12.400933380019778 34.72759211644384 192.86871772193996 0.685579194371649
2.0178314882269057 12.355962973915254 32.4552613685454 201.74511563991797 0.7014045385188139
2.0262787498796757 12.309520973110041 30.36660727656948 211.1206541524535 0.7179546125643012
2.0339544764543165 12.261545060674681 28.442708362399287 221.0128250443236 0.7352000495814379
2.040883317818219 12.2120623936515 26.670308650325055 231.46930542477762 0.753240507252147
2.047047131594214 12.161159465276365 25.03971603151906 242.52984015679417 0.7721246533043804
2.0524066147388775 12.108588564094546 23.53310789241919 254.22802996028565 0.7918592790299018
2.056985356961202 12.054570274030867 22.143303565188777 266.62411883091795 0.8125643835440688
2.060728664720934 11.999134181553687 20.865309098784078 279.7545908902844 0.8342440150644024
2.0636688664280824 11.942212251067613 19.68390601415611 293.686183137708 0.8570017521404228
2.065773054855847 11.883837897613525 18.593551885044214 308.4757013923259 0.8809071353030359
2.0670443649208665 11.824009286562102 17.587237762010897 324.1824216211456 0.9059987343361546
