M[M_sun], R[km], Lambda[1], P_c[MeV/fm^3], rho_c[fm^-3]
0.23841724892012095 16.20908015294055 2780876.1263280716 3.453507347168396 0.169602847481901
0.2484264132525141 15.865943310149893 2281637.709259329 3.635771356373441 0.1719813001129351
0.2587211452821346 15.562231739997644 1880846.8806204593 3.8252245258052797 0.17438051794586398
0.26929878729158707 15.292642047929363 1557077.315884653 4.021003962968479 0.17677550789692742
0.2801649716206745 15.052829527544286 1294438.7367542165 4.223387396264765 0.17915697140135248
0.2913090500557838 14.838781570333987 1080176.5513004072 4.433763140460327 0.18156223250268672
0.30274432290989234 14.647284481324188 888024.8376095083 4.652479481042118 0.18399510162101315
0.3144628442807379 14.475714746312185 759988.3283400012 4.879904210510999 0.18645721988147046
0.32646336064581066 14.321899658753912 640585.7873978235 5.11344593247403 0.1888907502343544
0.33875081004338575 14.1835895095606 541552.4890074586 5.356122784194839 0.19134421465467605
0.35131924363776473 14.059302177249462 459150.1568532411 5.6085136382019956 0.19382772091981953
0.36417133554947406 13.9475536660747 390359.50388900616 5.871032165068536 0.19634675417320008
0.3773157701157501 13.846903377755536 332681.20453778666 6.140740729626351 0.1988443023589786
0.39073909423894 13.756338411633394 284233.3633784815 6.420741996000895 0.20136912818153452
0.40441843295511903 13.67544421058628 243598.22163872336 6.712001108383586 0.20392835989841787
0.41843850371360897 13.601370466052444 208883.15717297164 7.014852645716226 0.20651759508237574
0.4327199207106369 13.535393256681544 179644.19139449624 7.325463912491256 0.20907974305712526
0.44727838354113875 13.476085904997149 154811.09461308274 7.648641988961494 0.21168631447660236
0.4621278677737977 13.422877717465923 133659.01127890483 7.984921673806894 0.21433724644345417
0.47725981084866925 13.375364780272532 115636.52049955592 8.33270973533617 0.21700000033561587
0.4926724970334022 13.332677888844245 100194.2209070256 8.6913022311062 0.21965511791670805
0.5083658328044204 13.294673751509709 86982.28750144076 9.0645242928611 0.2223585892543877
0.5243378596009193 13.260818923711051 75628.56179290041 9.452983478567898 0.22511302072638534
0.5405951250699869 13.23094229316457 65863.04611502346 9.851723959151677 0.22784731381122758
0.557129751891831 13.204445565969735 57450.55772027144 10.266018418192326 0.2306222717225493
0.573942533299001 13.18110230234417 50178.786913836426 10.697272733958409 0.23344772717563173
0.5910333918864089 13.160787850773552 43894.085492007915 11.14307229997421 0.23628409560646102
0.6083899015796568 13.14327055559145 38453.01055630664 11.603131561878978 0.23913151919608513
0.6260185683979544 13.12795259732758 33726.371663689075 12.082079313493711 0.24203830814433994
0.6439203543851936 13.114981510605586 29621.809477252744 12.580282021234565 0.2450006450922052
0.6620885638521403 13.104094231250397 26049.39338645197 13.091365204456539 0.24793437508521454
0.6805179864005572 13.095061805502873 22936.499563470887 13.623455727464359 0.25092673970777385
0.6991953415144067 13.087538487201234 20217.329158215667 14.177463919960765 0.2539798422155499
0.7181535766959924 13.081896958220952 17842.53380071106 14.748219408124942 0.2570376175148441
0.7373387444517242 13.07726227662958 15763.942544984448 15.339677493416742 0.2601354596559625
0.7567772030191746 13.074106377132434 13944.048713288337 15.955455193388012 0.2632988970677196
0.7764566777045098 13.072032056362803 12347.676167814612 16.59362947733736 0.2664971288040091
0.796369742552238 13.070881129383665 10871.32677502057 17.251378761071667 0.2696994882511907
0.8165360402554485 13.070764431831684 9710.070838287642 17.936253625085186 0.2729741830978862
0.8369059007105704 13.071310714441923 8624.71856189994 18.649291127191933 0.27632253830713616
0.8574998997824124 13.072715967274009 7620.681722598859 19.382155488634673 0.2796650868060301
0.8783029991596695 13.07456275232205 6824.155054033446 20.14430062598953 0.2830706713492196
0.8993226054710216 13.07701680567498 6078.38620945825 20.93782603696459 0.2865492812672397
0.9205356726376839 13.079814111174013 5419.612798872263 21.75882439555203 0.2900622066307897
0.9419377328745848 13.083035330040607 4836.566372902489 22.607651511466578 0.29361089891763575
0.9635279998218527 13.08655609104366 4320.174920561557 23.491411180142066 0.29724320567099827
0.9852893415447189 13.090136168506758 3861.9279489399796 24.411419565974448 0.30095929839623886
1.0072178403668233 13.09393349172204 3455.5616882321015 25.35843764268983 0.3046705727814675
1.0293034876987637 13.097820557105177 3094.7413598911253 26.343566484143857 0.3084622533355862
1.051543228453683 13.101830269111291 2773.7246021617 27.369190140055046 0.31234281848983375
1.0738917088722306 13.105535132535483 2488.3193902363464 28.43369624517835 0.3162932321725495
1.0963881108214717 13.109250531724951 2233.972462281753 29.53305458355446 0.32027872083696907
1.118992145025225 13.112843451864334 2007.453567811513 30.67760488012456 0.32435268931236216
1.141693176139087 13.116021296886888 1805.0425839770635 31.8692098996072 0.3285176721007553
1.164479695096705 13.119010735163865 1624.512115793681 33.104717516139715 0.3327495321186809
1.1873408896793636 13.12167210030343 1463.3569773702736 34.38378085252602 0.33704025317994596
1.21027450557948 13.123976021077336 1319.104451254531 35.715569381792534 0.3414371073309653
1.2332617464225666 13.12589955265628 1190.026526711433 37.102111396486436 0.34593789617928183
1.2562810365197576 13.1273049321358 1074.4279779282178 38.54261854240358 0.35051815124765473
1.2793297839914686 13.128279621048096 970.8610133309476 40.03354402609397 0.35516097074764197
1.302389293587294 13.128549498085366 877.834345715585 41.5862233477406 0.35992160005794765
1.3254311243103412 13.128258302603292 794.3811760243343 43.20313603737843 0.3648021137691758
1.3484527936082547 13.127326853274193 719.4449618370206 44.88688545558396 0.3698032883414198
1.3714380613900539 13.125761857537348 652.0752194184729 46.6332441304941 0.374878505604505
1.3943793511275184 13.123474121238194 591.4601153805298 48.44826323293257 0.3800646267014276
1.4172358082652636 13.120391812925458 536.8638191552739 50.339156687173336 0.38538689372471896
1.4400102825189844 13.11650871098753 487.6999024498905 52.309145590079105 0.39084797184256587
1.4626788426359163 13.111826649280387 443.3811058000601 54.36163838366566 0.3964486159983863
1.4852287954194316 13.106304130528818 403.40602403947213 56.49937036940445 0.4021805260694749
1.5076314961900348 13.099847736042667 367.318438264141 58.71880263667853 0.40802724868902995
1.5298675865402387 13.092436548617274 334.70197305913666 61.032717004783684 0.41403577629918015
1.551943691545852 13.084059965657593 305.21207344943366 63.445407003098026 0.42020890803041033
1.5738214785656341 13.074789306182451 278.5515525192663 65.96142832141835 0.42654701992204047
1.5954871904245755 13.064463255576456 254.41904853599587 68.58569864264722 0.4330578009058527
1.6169039714074405 13.053049314721035 232.55500545433668 71.3233364019315 0.4397550894995245
1.6380707925548466 13.040495743134725 212.74221583102548 74.17983715931182 0.4466455799313497
1.6589806464646162 13.02694563340183 194.7566826092614 77.1610806369542 0.45373260157049317
1.6795857743519513 13.012141450815987 178.4238818723669 80.27151271643024 0.4610115465179231
1.6998829267016156 12.99623749126286 163.60995938786715 83.5177206613059 0.4685034049998363
1.7198392839755714 12.979172781402267 150.14957618457672 86.90949456642304 0.47622907358805816
1.739415941864635 12.96069682602552 137.8995764631514 90.45444102604155 0.4841926978241158
1.758664933672207 12.941178110092954 126.75600068333024 94.16070406123114 0.49240249083427634
1.7775167419778246 12.9204970798084 116.61461151694834 98.03705140196597 0.5008791471474422
1.7959116307083542 12.898207346144755 107.36819944414097 102.09284279633691 0.5096377519165466
1.8138945823068122 12.874749427799314 98.94076276181497 106.3380774787139 0.5186846965303739
1.8314426949703704 12.849979036196995 91.24217033230094 110.7834964272016 0.5280338913975328
1.848515025342686 12.823935897822679 84.22664815289471 115.44066094916604 0.537710193188327
1.8649560301732018 12.796475161800803 77.85261059268818 120.47876530409555 0.7305675122271087
1.865535996862717 12.776225312674228 76.47909335004626 127.71565026188453 3.0807463358088754
