M[M_sun], R[km], Lambda[1], P_c[MeV/fm^3], rho_c[fm^-3]
0.23841724892012095 16.20908015294055 2780876.1263280716 3.453507347168396 0.169602847481901
0.2484157282758589 15.866210479508936 2282231.2349300934 3.635575165495168 0.17197880449076355
0.2586987800318421 15.562846572505533 1881435.4612526842 3.8248209444412593 0.17437558089361135
0.26926316130595557 15.293513991193835 1558079.7025732235 4.020353731107204 0.17676755354382387
0.28011683040706414 15.053849458736325 1295437.6005898223 4.222496936803824 0.17914655885947325
0.2912471205994533 14.839808086983634 1081153.3760264667 4.432620159076801 0.18154937165350174
0.3026706284871293 14.648353907298642 905471.7000438187 4.651071035842982 0.18397984742202195
0.3143736288567088 14.476946889246948 760966.9638954768 4.878216832311181 0.1864396372155916
0.32636083859574533 14.323119943402492 641508.2544692387 5.111381148265566 0.18886923495647934
0.33863085838876067 14.184861861731594 542434.535598448 5.3537400255492225 0.19132043922200634
0.351182826712719 14.060588724097308 459959.77048348665 5.605797956493568 0.1938016203826489
0.3640191378571233 13.94879384494401 391088.5748757869 5.867967520730129 0.1963183750339614
0.3771457826971662 13.848164777798857 333348.3311419552 6.1371676519628044 0.1988112150387785
0.3905499606964498 13.757475462853787 284825.7919334253 6.416773832172502 0.20133376024361083
0.40423879606061264 13.675889116241716 243946.45517725148 6.707620058691026 0.20389090402777393
0.4182156288062666 13.60248910887468 209390.9238126438 7.009839907637607 0.2064747385794323
0.4324730866722496 13.536532162208267 180112.33219776192 7.319986292196399 0.2090345893006253
0.4470131701033675 13.477155235896456 155229.36558018834 7.642678016480564 0.21163889785204212
0.4618367893493732 13.423835937124597 134047.39168881494 7.978449040574499 0.2142876903164948
0.4769475912512027 13.376130987955964 115966.65921470772 8.325424486868569 0.2169442226196495
0.4923376728365524 13.333479387775691 100501.70631567248 8.683446724423977 0.2195973234337672
0.5080077917155589 13.295459053086761 87258.56912898926 9.056073015360633 0.22229857123476746
0.5239604853814154 13.261564596385837 75878.15055830158 9.44390856613191 0.22505079110203682
0.5401966943158483 13.23160397216656 66088.63456313634 9.841620799509272 0.22777803316155582
0.5567072060294952 13.2050832416165 57649.269852054145 10.25521678529293 0.23055089229124948
0.5734882620372358 13.181758875939376 50363.515162873286 10.685741524505262 0.2333743606653085
0.5905529318391551 13.161355929375336 44059.007881192476 11.130307738000559 0.2362028819773429
0.6078829697176459 13.14358463221134 38596.79576662089 11.589551266694254 0.23904800699086148
0.6254901231471722 13.128412674402945 33859.89254257161 12.067644501981599 0.24195247806992765
0.6433654132464602 13.115412382652138 29741.21027303974 12.56437586805928 0.24490606635042514
0.6614987841940098 13.104448478366951 26157.33492327498 13.074503873703428 0.24783766353784817
0.6799025070482333 13.095233481271285 23030.413158690626 13.605595707362301 0.2508278970691028
0.6985494080098118 13.087792836490419 20304.91929925656 14.158557816276186 0.25387855432949114
0.7174677034300252 13.081880057398024 17921.234790278824 14.72749548465016 0.25692659080967917
0.7366392101100235 13.077408872879776 15834.396725521176 15.317782701277064 0.26002185836856123
0.7560463177252664 13.074173682328023 14007.984928318136 15.93233327252991 0.26318302078916644
0.7756942941077851 13.072045280596342 12405.00366489888 16.56835658129618 0.2663704728414926
0.7955824948858167 13.070930947188423 10996.254435607801 17.224735257688952 0.2695703446756035
0.8157079276752883 13.07074288658938 9757.059816793804 17.908171676776416 0.2728421791875212
0.8360543085644403 13.071360628093073 8667.122802111104 18.619514034672985 0.27618596330884154
0.8566094013135659 13.072537506775591 7706.22497705135 19.34992246545554 0.2795180740040566
0.8773973060815768 13.074544709164474 6858.844613560931 20.11037552709289 0.2829209732815583
0.8983747797984558 13.076833761029102 6109.848424688551 20.902124851394156 0.28639652139995453
0.919561884685185 13.079748488770731 5447.990999311005 21.72001212394962 0.28989613490615956
0.9409313331322445 13.082939879256417 4834.797190646327 22.56684780625208 0.293441235629489
0.9624844546109768 13.086348629551132 4343.428139726936 23.448510207339034 0.29706976484266334
0.9842246387194045 13.090039587246109 3883.3686592246663 24.365723893231387 0.3007778929117321
1.0061184290745375 13.09380121806226 3474.827687171765 25.309518803145192 0.30447886447027367
1.0281657051934783 13.097636093375298 3112.2174441868683 26.292173224977972 0.3082664222769018
1.0503705625950752 13.101525378828304 2789.638151814311 27.3151882973657 0.3121424160522853
1.0727097349998156 13.105460906007211 2502.799717923825 28.375201602115986 0.3160761568197573
1.095159775365898 13.109129867037321 2247.254208418498 29.471623459666358 0.32005657065679327
1.1177127141971321 13.11252355385574 2019.5111106064594 30.613078860493168 0.3241260111305456
1.140404347470548 13.115882299387126 1816.0427153545206 31.80142099021831 0.32828548156508963
1.1631584039203553 13.118907259577595 1634.6259874652721 33.03140862615935 0.33249843454848776
1.1859982012877912 13.121555997451237 1472.3691372414999 34.30679190314204 0.3367828401627941
1.208901975025905 13.123866605892083 1327.2843147556116 35.6346896335717 0.3411729851427618
1.231868531677541 13.12582079426382 1197.484209499737 37.0171229460924 0.34566766580814223
1.2548674085326226 13.1272421426873 1081.1618184132997 38.45082410418998 0.3502262804700137
1.27787891007346 13.12811935452508 976.9766610929265 39.93711080310261 0.3548611969726338
1.3008973100561065 13.12847937279592 883.5145477743351 41.48487901951283 0.3596133647455609
1.3239250701742635 13.128298981562827 799.5868610712513 43.096590450303175 0.3644849342156496
1.3469339186164084 13.127503464775897 724.1842908125639 44.7748364290605 0.3694776546890127
1.3698942756024286 13.125909105601298 656.3858583566297 46.51238127828321 0.3745272574658384
1.3928190412214463 13.123640312009906 595.3639372589341 48.321165150021635 0.3797026235724909
1.415641089590238 13.12058691797111 540.4792100241216 50.20544517747911 0.38501344993161296
1.4383987809977972 13.11679392755136 491.030662384832 52.16841824218887 0.3904625350496652
1.461051773749639 13.112195917488867 446.42687923912905 54.21347256361714 0.3960513383406664
1.4836000078900238 13.106744959270795 406.157037880665 56.33967520651331 0.40175233473464605
1.5059872579051936 13.100343366275036 369.8385693742596 58.5506480238602 0.4075844248548571
1.5282357942173335 13.093178291892741 337.02504196443624 60.85557365840064 0.41357738513605025
1.5502731205737383 13.084787300257243 307.37063078242545 63.25871115382314 0.41973427600897517
1.5721557412936926 13.075567589818574 280.50416365760793 65.76458370621268 0.4260558564225645
1.5938033626394732 13.065259589278288 256.210218860454 68.37806463187752 0.43254797260703015
1.615214782298122 13.053914878900118 234.20196407808254 71.10422002167621 0.4392254078663935
1.636401739918987 13.041637642772448 214.2492852331425 73.9484990655654 0.4460952406813461
1.6572893113238099 13.028050484036482 196.1447139623296 76.91455115920802 0.45315129815226163
1.67790402013353 13.013429191658268 179.71686736860394 80.00836337993225 0.46039573190298244
1.6981931894782747 12.997587476841943 164.79740241217857 83.2396691298986 0.4678619693093221
1.7181564930963826 12.980583125387641 151.23952198145196 86.61555114202325 0.47556035927110385
1.7377477295009351 12.962273810513702 138.89735108320187 90.14354704674835 0.4834956041987033
1.7570203244625 12.942910444892718 127.6741262239107 93.83172756226747 0.4916754396956704
1.7758625803613601 12.922168839894006 117.46064713952535 97.6887708306295 0.5001192183318162
1.7943016115779507 12.900203707276814 108.15109768475362 101.72393809759124 0.5088427873479919
1.8123033492438825 12.876906655415375 99.65937546295798 105.94713281529202 0.5178532575693913
1.829877494027687 12.852403638062261 91.9180732572956 110.3689914661927 0.5271635275346517
1.8469767128199606 12.826513408309108 84.85031498928369 115.00095162613823 0.5367974423168758
1.8635448237856838 12.799029397027093 78.38726106656382 119.85528778169825 0.5467746100996248
1.8796160718236237 12.7702983612621 72.48986167281379 124.94191792829605 0.5570912791336494
1.8951678325216177 12.740155549786655 67.08731137116435 130.2739178801346 0.5677677973627488
1.910173225026702 12.708604102605369 62.14656724729878 135.8695016101847 0.5788442840069851
1.9246112251940524 12.67579915323043 57.62843566071485 141.74502708526512 0.5903390218011296
1.9384408534533002 12.641322343317306 53.482439367121685 147.9181270882014 0.6022707509770174
1.9516609028811098 12.605441355717085 49.68405839532932 154.4077918013151 0.6146749290656378
1.9642673926555088 12.56807031868328 46.195836570276214 161.23331801063338 0.6275791758385858
1.9762246947350184 12.52929936100742 43.00086469690933 168.40350504927346 0.6409544618513062
1.9875078134916764 12.488912929084428 40.06157607027488 175.95507413732827 0.6548903985350119
1.998142869993929 12.44716077317797 37.36258192062877 183.91383519853434 0.669426495024676
2.0080575890455683 12.403908230646147 34.884648958250985 192.30083089067156 0.6845635259274782
2.017246139490885 12.358987615867328 32.60176837287637 201.13791189841427 0.7003271667750111
2.025740774681268 12.31278153963773 30.50278622240936 210.47101238331237 0.7168109233651752
2.0334565687673565 12.264865214395556 28.56797526194981 220.32358538328643 0.7340065326341534
2.0404409592723534 12.215546735039656 26.788069273329064 230.73085614727057 0.7519712293852165
2.0466214997008096 12.164630195880221 25.147807556144173 241.74461515206409 0.7707960018250187
2.0520569693334485 12.112320606528238 23.634969186991288 253.3855369934545 0.7904437722947065
2.0566671830550876 12.05845990549382 22.239435973351817 265.7263089677251 0.8110769488081983
2.0604949820230147 12.003164735812534 20.952233426777326 278.78988399759606 0.8326580641088431
2.063483735125129 11.946364058305445 19.7660260030645 292.6559463997385 0.8553304152394599
2.065647845034425 11.888116648967562 18.669995613080943 307.36702114129724 0.8791207240792159
2.0669787289360815 11.828463421450937 17.658128360669668 322.9959363101648 0.9041127995322958
2.0674615883597363 11.767388296673259 16.72550690479151 339.6194765589918 0.930424905711709
