M[M_sun], R[km], Lambda[1], P_c[MeV/fm^3], rho_c[fm^-3]
0.23841724892012095 16.20908015294055 2780876.1263280716 3.453507347168396 0.169602847481901
0.24842204339717006 15.866023524462287 2281865.7344347974 3.6356878749380965 0.17198023819750463
0.2587100368528015 15.562542694102476 1881163.6965722262 3.8250527936932994 0.17437841712931026
0.26928378713746076 15.293029752574006 1557556.2157568196 4.020727269730527 0.17677212308014573
0.28014361349880673 15.053272511092114 1294820.4175639823 4.223008471087535 0.17915254045929385
0.29128262174315817 14.839169936006538 1080613.7146392043 4.433276747584783 0.18155675960040923
0.30271241872296495 14.647730323422328 904909.2792498899 4.651880108988683 0.1839886101078336
0.3144231412084747 14.476229501361914 760398.9192330949 4.879186123251177 0.18644973733347814
0.32641975299903336 14.322397053626176 640983.733129324 5.1125672143642324 0.18888159389529066
0.3386987951377226 14.18416636960124 541943.9914319316 5.355108725796443 0.1913340962663875
0.35126223754813807 14.059933525438765 459511.83920807845 5.607357873122032 0.19381661281044998
0.3641059241486349 13.948095154078898 390673.4851937084 5.869727862415476 0.19633467610393224
0.3772432633297647 13.847418787300517 332962.28450608393 6.139220003158793 0.19883022016757196
0.3906594305270621 13.756744621716685 284464.5745211239 6.4190530893918085 0.20135407508728428
0.40435813256240283 13.675246219519215 243626.87117528083 6.710136440758521 0.20391241788582737
0.41834203252897667 13.601809472300609 209098.9495227999 7.0127190660396845 0.2064993540009042
0.43261304217093216 13.535833200885943 179840.01945251197 7.323132426578758 0.20906052388136845
0.44716507182192183 13.476513847838671 154985.3142092983 7.646103452676807 0.21166613181775737
0.46200690980705655 13.423426598383827 133830.7613477978 7.982166585805876 0.21431615278869875
0.4771293029419787 13.375751412489764 115779.86054174273 8.329608678871043 0.2169762578582691
0.4925273834168093 13.332987326345059 100328.33608140866 8.68795838658975 0.21963051660546482
0.5082141331558009 13.294933694464403 87094.68706438206 9.06092679393048 0.22233304107408125
0.5241825080636026 13.26124340879401 75739.06663203081 9.449120457410581 0.22508653073464538
0.5404245991114763 13.231138543071271 65956.75186496634 9.847423122807413 0.22781782157844013
0.5569420005437782 13.204678758978295 57537.03831807624 10.261420181511053 0.23059188562052674
0.573749958528775 13.181437580444637 50259.55966407407 10.692363848854448 0.23341649473890264
0.5908282317904248 13.161045853604836 43962.4724224055 11.137638229879903 0.23624952171711394
0.6081718761336568 13.14335870717127 38513.39895236005 11.597350141941174 0.23909596627755408
0.6257960428262822 13.12820921532716 33783.582308394274 12.075934024092705 0.2420017679618699
0.6436822503584144 13.115104346790048 29672.134188741045 12.573510161448716 0.24496037929248615
0.6618370784943373 13.104170308947989 26095.20763949801 13.084186592622094 0.24789320071596593
0.6802590902931756 13.09523357878505 22977.042794584424 13.615851828851822 0.2508846574817318
0.6989195822695855 13.087611065249684 20254.89250929978 14.169414545990286 0.253936718360568
0.7178565241952328 13.081823974374952 17875.82551572731 14.7393958474797 0.2569903460188141
0.7370388198721807 13.077371898010142 15681.92114836252 15.330355294484823 0.26008709135936847
0.7564666719078132 13.074107251259457 13970.743528905581 15.945610389838315 0.2632495595059562
0.7761355749402333 13.072065373097047 12371.391893608043 16.582868536069537 0.26644319998747623
0.7960447789053766 13.071016161889027 10966.044030979792 17.240034084239063 0.26964449953183955
0.8161810343683141 13.07075193285942 9667.155878576572 17.92429631301304 0.27291797574597376
0.8365432677761755 13.071373418352279 8642.82808206954 18.636689871956033 0.27626506477043694
0.8571228209197171 13.072667607968034 7684.554144793327 19.368430079890516 0.2796024860755154
0.8779157363169755 13.07447839900094 6838.760750043762 20.129854517244535 0.28300692637471153
0.8989214430623654 13.076881185454573 6091.775657382984 20.922623435965 0.2864842316820794
0.9201265665680616 13.07981013736166 5431.670773606412 21.74229652048461 0.28999148640227446
0.9415042017308406 13.082947950444506 4847.597622525658 22.590275380683913 0.2935386483347939
0.9630832096072836 13.086408951925032 4330.016760835098 23.473141701070936 0.2971693454907666
0.9848415324184763 13.090146119759172 3871.13768471828 24.392210403944787 0.3008840195047845
1.0067558119365874 13.093945757208296 3463.8371999498154 25.33760454865686 0.30458892985389235
1.0288198384424465 13.09775963509727 3102.042959519319 26.32167932538636 0.3083788535757609
1.0510408674151364 13.101634478128705 2780.4890410829435 27.346191748717892 0.31225747077845706
1.07338359965148 13.105431855916386 2494.4101220239145 28.408783684806735 0.31620078092319565
1.0958543138280032 13.109075142543764 2239.4833286233757 29.48967166736826 0.3200682746525857
1.118473485626649 13.112773712865865 2002.5297540618562 30.629972059608615 0.32412766860755204
1.1411615242029503 13.115984353734365 1809.5847570121127 31.840732567965258 0.32843789591430456
1.1529082201659395 13.110955106158228 1705.7819981980747 33.4519667264214 1.0409341574557949
1.1482939348247865 13.088336720739168 1716.1393344723535 35.70190770311627 1.828266673159459
1.1357151491736 13.053806739496599 1778.472357529674 38.90016820723065 2.6859099874148478
1.118445015471405 13.010251966607767 1873.9291126893384 43.24945727747032 3.4581601747624613
1.0976197326262218 12.956633661654953 1997.021361449299 48.326130449906316 3.8681123493073684
1.0734909574419187 12.888795077484295 2145.339736689281 53.92144249375554 4.051946605104455
1.0468471248843016 12.804621823489619 2312.0916677526434 59.8474155673199 4.074688945163667
1.0192871669773758 12.705644310067672 2485.4447771723867 65.92014488405849 4.092935336891473
0.9917808281672523 12.593294165735355 2653.9240725223076 72.1064910992078 4.1111550091206235
0.9649481165468304 12.468515129945454 2808.2975536386043 78.52251248791454 4.129958605514338
0.939199970749083 12.331913542023928 2939.067552142992 85.16503108880106 4.149361849539853
0.914892680719668 12.18436429537731 3037.47583694448 92.0337780740556 4.169357729163716
0.8922838211714643 12.02661240336301 3096.2225552374375 99.11798670321835 4.189906659228962
0.8715858214610339 11.85949584918587 3108.000918085025 106.34533619856468 4.2107798308710205
0.8529699727230673 11.684305020521608 3071.269774912078 113.82554216958022 4.232306049558453
0.8365623969116589 11.502207440535367 2985.161629518253 121.56214158108544 4.254488406815952
0.8224350364275836 11.314705391739151 2853.5874011658016 129.56009529513074 4.2773338790832325
0.8106262278144593 11.123455315802845 2683.2301683454016 137.82571511867715 4.300853081965325
0.8011462280063157 10.930020263748487 2483.4127278639744 146.36644235689852 4.325059101041085
0.7939393012652296 10.736278970245666 2264.2557278347153 155.1899793776855 4.349962755098574
0.7889497856716756 10.543825576128663 2036.0331512344744 164.25636547667602 4.375421541289569
0.7860723280343684 10.354202765468173 1808.116399732957 173.63485400202126 4.4016481170040525
0.7852208158762475 10.168907786833348 1588.4928227390021 183.33578939832725 4.428662485157311
0.7862235313559177 9.988840095684559 1382.4642714114784 193.3705911021581 4.456487187572473
0.7889717418731483 9.815178268620114 1194.019375472403 203.75152842937067 4.485132782295024
0.7933262593857626 9.648547850584198 1024.9571765922415 214.4923901846863 4.514630820773855
0.7991203989426752 9.489512712196886 875.9510253125962 225.60772752226538 4.545018736558646
0.8062546724698052 9.33840309169749 746.206850612536 237.1131177786004 4.576319985490126
0.8145501929784801 9.19509593197757 634.3683011619773 249.0254688346568 4.608563164624722
0.823899855885131 9.059849816090887 538.8848070026635 261.3628832236254 4.641793758533089
0.8341714483954704 8.932403152146268 457.8411587049226 274.1445266597833 4.676041532592851
0.8452531803246999 8.812433814693 389.2727009699417 287.3912091617813 4.711347082879995
0.8570450341973618 8.699689121237405 331.448419737997 301.1248395619321 4.747760760672567
0.8694395832565491 8.593849354897134 282.78418597594487 315.3689448086694 4.785318194135586
0.882345776169724 8.494491040855998 241.86162800979184 330.1488983229744 4.824083546113925
0.8956863890944138 8.401224165318192 207.39943158590108 345.4912958296549 4.864085862448992
0.9093539002568363 8.313681388336782 178.42812480532598 361.3897072220799 4.905301949301835
0.9233378767863323 8.231336229497089 153.88828081319332 377.89135778266854 4.947810576317154
0.9375208524110502 8.153912783718223 133.15807200970235 395.0414591637655 4.991740419876159
0.9518541876989234 8.080989205112541 115.33243720281122 412.875103257864 5.037144825438861
0.9662914508309344 8.01225252374082 100.66444810051989 431.42925458097267 5.084099488208831
0.9807773671689427 7.947276577561991 87.93870329337162 450.7195273653676 5.132608718788289
0.9952631385411972 7.88585293841976 77.0552685525075 470.75293250795534 5.182639968898305
1.009708533591581 7.827594795282634 67.73889268179623 491.62808530386263 5.234448844783049
1.0240673911204277 7.772263724993831 59.61637076563592 513.3933063925809 5.288122853549112
1.038300907335021 7.719598667701737 52.80857438804955 536.0189565371443 5.343511373342551
1.0523916262490118 7.66930189246778 46.82576463487715 559.6147199205437 5.400888244346316
1.0662915531883996 7.621238705248535 41.63460658095316 584.253111406267 5.460402571463422
1.079960960920008 7.575142744093469 37.125542086882106 609.8913607314123 5.521850511591464
1.093401550792864 7.530829529313811 33.187142255109016 636.7020285300815 5.585675440987918
1.106577495279628 7.488131266777114 29.74276817768057 664.6578275507957 5.6517120644417504
1.1194337273993367 7.446848969751759 26.724201665758777 693.8976018268121 5.720290337200942
1.1320014097707372 7.406875245663736 24.036115947362596 724.4258430922685 5.791311188458569
1.1442007448123412 7.36802603594089 21.727749550067486 756.3992598098035 5.865168068536013
1.1560722629201492 7.33019798583225 19.660304664894994 789.7946842513461 5.9416469570755375
1.1675452176526477 7.29324107182222 17.80798238256921 824.7950480297014 6.021188234564465
1.1786326039310506 7.257102629854262 16.205035458460923 861.4648658490212 6.103857482395648
1.1893031111890509 7.221602000586717 14.758045099618238 899.8678563579662 6.189689877713773
1.1995656631721734 7.186677643831573 13.46847822492674 940.1628785185408 6.279017464855398
1.2093637650545959 7.1522340636329735 12.319906827906053 982.4600188602569 6.37199451044021
1.2187303095892195 7.118209624881651 11.288009413442953 1026.8797253669886 6.468796908599553
1.227626148770771 7.0844918653759565 10.364184294727472 1073.5365390794545 6.5695647228153415
1.2360492687564448 7.051020173689433 9.5377080058701 1122.5951150225274 6.674578747370927
1.2439702572437412 7.0178045022727105 8.79236401070292 1174.219913356525 6.784097083234596
1.2514061635240703 6.984624218686907 8.118286136235216 1228.5824263874063 6.898375860492668
1.2583359684866517 6.951552759871535 7.5138047570802495 1285.86962987772 7.01769288738802
1.264737596056165 6.9184585752569125 6.964748212899965 1346.2836203521879 7.142341550436598
1.2706223767109108 6.885357667692967 6.469309264066235 1410.0205686581899 7.272570033433212
1.275979889882798 6.852218684102976 6.019810727109806 1477.3434984399228 7.408813389701603
1.2807903734126571 6.818916661937093 5.606589295261424 1548.517882122781 7.551462104247126
1.2850679150033473 6.785518776325214 5.238220096840643 1623.8333926345913 7.700946711792204
