M[M_sun], R[km], Lambda[1], P_c[MeV/fm^3], rho_c[fm^-3]
0.23841724892012095 16.20908015294055 2780876.1263280716 3.453507347168396 0.169602847481901
0.24842046990874905 15.866086710373072 2281937.7819938664 3.635660392636839 0.17197988861223876
0.2587068914035991 15.562646925222234 1881191.8215886753 3.824996260237691 0.17437772554974482
0.26927876969224157 15.29312222789193 1557676.6535529864 4.020636185576785 0.17677100883834346
0.28013762532256814 15.053401702735375 1295011.8629227274 4.222883735931913 0.17915108187517104
0.2912742205764355 14.83927551747359 1080701.5435506876 4.433116639223669 0.18155495805795613
0.3027028334732137 14.6478307044421 905014.2718602925 4.651682814506384 0.18398647330528375
0.3144128822520954 14.476415532508573 760515.8796675677 4.878949755868387 0.1864472743594296
0.3264051133864145 14.322564917411286 641084.6297220711 5.112277979968635 0.18887858004117128
0.33868248976178716 14.184428618661325 542089.3123608788 5.3547749495362735 0.19133076580947572
0.3512432931475429 14.060105277715977 459638.565715582 5.606977460974689 0.19381295665245432
0.36408391265077833 13.94829393581923 390768.90633440466 5.869298567538549 0.19633070075875628
0.3772196253107655 13.847574796618002 333053.1038679151 6.13871948684312 0.1988255852994942
0.3906339607022965 13.75699184204861 284562.8793512858 6.418497229306823 0.20134912074925032
0.4043300627515782 13.675440866420812 243703.8366583252 6.709522743498546 0.20390717106901468
0.4183107224173732 13.60197013094477 206576.24223198963 7.012016881636582 0.2064933506615183
0.43257921718957876 13.535972261979976 179906.72964820187 7.322365121282095 0.20905419874113204
0.447127539501092 13.476637016108308 155044.92285460557 7.645268018944183 0.21165948969327214
0.46196476339786674 13.42345738156043 133882.0060563345 7.981259898623056 0.21430921096092465
0.4770855534009213 13.375880734047838 115824.68506662795 8.328588160071778 0.21696844450667557
0.4924825713282437 13.333164788369999 100375.8596043264 8.686857985675857 0.21962242074298022
0.5081629802311591 13.295124303512141 87141.0314383335 9.059742937059855 0.22232463373626932
0.5241298287802575 13.261329280972912 75771.26471918308 9.447849241338304 0.22507781359283252
0.5403679446716806 13.23126320836149 65990.68433631938 9.846007869060825 0.2278081167234755
0.5568843485727192 13.204755828052182 57561.98981571978 10.259907085089635 0.23058188676543986
0.5736854579647107 13.181565514858715 50286.25996929434 10.690748552761427 0.233406217530951
0.5907617226108819 13.161121775778792 43988.70558625108 11.135850164612917 0.23623814527742634
0.6081075585757714 13.143473054088055 38206.5878825479 11.595447808028553 0.23908426784994602
0.625720490101979 13.128134001407188 33800.73528250807 12.073911988735194 0.2419897448436564
0.6436045207548295 13.115183896292423 29688.707559823735 12.571282018958096 0.24494713065147614
0.6617586114605909 13.10424028183567 26108.331504086058 13.081824647872743 0.24787965330770687
0.6801671644108372 13.095136953863086 22989.443482810355 13.613349986642712 0.25087081154628077
0.6988270017692446 13.08769568604948 20267.764254104903 14.166766167258478 0.2539225298906589
0.7177618417514424 13.081846940325093 17886.651856255103 14.736492826254453 0.25697479332281736
0.7369458193522503 13.077447385904057 15805.064807865769 15.327288256596665 0.26007117801109914
0.7563677308927546 13.074213075467485 13980.499869587959 15.94237145428017 0.26323332747224
0.7760288177369395 13.071999626015996 12378.71037539643 16.579328288882973 0.26642545792047173
0.7959224349286768 13.070859544074905 10973.080476930705 17.236301840596308 0.26962640899464313
0.8160630106909784 13.07066899612859 9736.246921135993 17.920362570099524 0.2728994845273003
0.8364247301746863 13.071326810556945 8648.574580766199 18.632544335190875 0.2762461572366278
0.856999313289229 13.072624553470087 7689.54777037938 19.363914848191765 0.27958189238624515
0.8777933694393241 13.074545907527012 6843.4092653830285 20.125102257133904 0.28298595652705527
0.8987850051010357 13.076881476705674 6096.110639023622 20.917622379020422 0.2864628329306673
0.9199911874107685 13.079756780787008 5435.623385180236 21.736859657250143 0.28996822290295715
0.9413642639123364 13.082908877298056 4851.19367159608 22.58455955431001 0.29351488172115
0.9629497916506733 13.086425727275325 4333.235329997737 23.46713208611058 0.2971450497107739
0.9846883710734836 13.090123947909492 3874.1070205984347 24.385891766823146 0.3008592573627772
1.0066008178010744 13.093891113865851 3466.4854729305916 25.330751940115444 0.30456207512833106
1.0286535256441138 13.097670161843276 3104.4852838136785 26.314480095894673 0.3083514213257742
1.0508756856521622 13.101642005266617 2782.7419052649093 27.338627104291113 0.31222939815895345
1.0732192952273705 13.105435416721912 2496.4795197730336 28.40058967973875 0.3161703727277132
1.0956775398511773 13.109087633915157 2241.5291602484976 29.49828569337503 0.32015298790667235
1.118271777817286 13.112639937820296 2014.1337060763856 30.641083967791978 0.3242243923237501
1.1409562182842559 13.115978432868102 1811.3677981908795 31.83084184254639 0.32838625385252396
1.1637216859817239 13.118877879913914 1630.2366975586508 33.063224191765634 0.3326074092065436
1.1865886497786704 13.12166594276886 1468.4045869091256 34.34020413781608 0.33689455417118164
1.209502310712801 13.123936021706157 1323.7609147345195 35.66978994322803 0.34128760927051915
1.2324738387875704 13.125823312440042 1194.2364138026535 37.05400584200738 0.34578493913887837
1.2554862504513011 13.12730253045261 1078.2541448391607 38.49065934291269 0.3503529411079541
1.278500334333295 13.128137373186805 974.326732115584 39.97895849900883 0.35499128535284197
1.3015539780580263 13.128553668152511 881.047200728089 41.528857276171685 0.3597471231108934
1.3245756315107258 13.128250612499647 797.2989504438319 43.14282510232713 0.3646225718850168
1.3475947406793758 13.127399590316838 722.0834609229908 44.82345852399329 0.369618958820355
1.3705772759758799 13.125911955891 654.506130725934 46.5648262441976 0.37467967151467885
1.3935215899614888 13.123805235094892 593.7158816914214 48.376314860269034 0.3798597020052435
1.4163296180007028 13.120466334671859 538.9103238356129 50.263463630104525 0.3851754900661393
1.4390939202476196 13.11666265137945 489.58500606009187 52.22947993110478 0.39062977632790774
1.4617648829016698 13.112062207483941 445.09936309282295 54.27776074695539 0.3962237145262626
1.4843024465124508 13.106553962792734 404.9792856436731 56.40896345838447 0.4019381176257465
1.506685405340095 13.100096702409994 368.7558741467438 58.62360539872776 0.4077765531820469
1.5289404084222011 13.0927863389781 336.01526342798803 60.932429635301304 0.4137762641871934
1.5509987365203826 13.084477095024102 306.43508912121973 63.33971015638482 0.41994019767498647
1.5728773330148886 13.07524524833878 279.66975042779114 65.84998423833969 0.42626894644879043
1.5945186445482282 13.064840974563872 255.42715381704656 68.46814442367649 0.4327691561541808
1.615959738166225 13.053638472353454 233.4960390249779 71.19927948607155 0.4394552001452127
1.6371246679269742 13.041056109438568 213.5762354948726 74.04885870729552 0.44633399016296377
1.6580210163393936 13.027537986918773 195.53666778556104 77.0226394637739 0.4534084336525401
1.6786403826047092 13.012922713421194 179.15951491952788 80.12251678244678 0.4606628704584094
1.6989255394673113 12.996971658681273 164.2759034778331 83.36028452413794 0.4681402163605035
1.7189071685868174 12.980116698029809 150.77133668648435 86.74305749670049 0.47585043320301584
1.7384954657141791 12.961683669983241 138.4653531508014 90.27840320578632 0.48379798177779537
1.7577343739120994 12.942235936780051 127.27931345947655 93.9744241231844 0.49199080476708623
1.7765848139876794 12.921403556178726 117.08357362205058 97.83983719917555 0.5004488367371427
1.795011312392084 12.899359840424006 107.80865510858315 101.88394634743585 0.509187594258111
1.8130132803286376 12.876105894786612 99.34784774848255 106.1166965061888 0.5182138760204672
1.8305548156050493 12.851281979688856 91.61924485208174 110.54876941639856 0.5275410193524122
1.847609476914336 12.825237992043364 84.57807032966149 115.19165624312437 0.537193307940432
1.8642176660558962 12.797933436876033 78.14007209767166 120.05768954448618 0.5471900817996166
1.8802692947682602 12.769071406010122 72.25829507789926 125.15380917088115 0.5575161934847979
1.8958186274594662 12.738948079579204 66.87438864970999 130.49911453336097 0.5682147406980848
1.91078490443828 12.707360915512071 61.95103275911282 136.10896599685157 0.579314762203734
1.9251934724513686 12.67421574184291 57.43471625029227 141.99979712604733 0.5908340796492544
1.9390067982875099 12.639734073998216 53.309493516874184 148.1893249643253 0.6027924215584316
1.9522179282063745 12.603818278742636 49.52497395837535 154.69663585038776 0.6152253383767957
1.9648057379665655 12.56642178459955 46.051767125145815 161.53756438858815 0.6281477891898251
1.9767302645857743 12.527480987093808 42.86456435328872 168.72798881333154 0.641555393469647
1.9880055593509471 12.487188826131158 39.93978300259805 176.30133933617924 0.6555261631508817
1.99858434051877 12.445204916970317 37.248392709905374 184.28356022806454 0.670099620699646
2.008486026891539 12.401843366106332 34.773762145344186 192.69186423596742 0.6852628910255356
2.017659569448115 12.356863104587992 32.49859216790503 201.55601271839785 0.7010690100456003
2.0261067915100206 12.310541229631225 30.409647197913724 210.9183289349412 0.7175984206182605
2.033807908298778 12.2626211901293 28.483400407075344 220.79816326439916 0.7348283320399829
2.040742535757322 12.213089337967324 26.70648912459988 231.23931059830556 0.7528451824117801
2.0469162849033316 12.162218461585695 25.072280121695872 242.28527149971075 0.7717108273231879
2.0523045287227206 12.109758010752923 23.56386964501071 253.9656162155097 0.7914183870132773
2.056885572522995 12.055809600263766 22.1742976118581 266.34446881269287 0.8121010770378164
2.0606545913816037 12.000464247879169 20.893463926960454 279.4540938501653 0.833750006395519
2.063617826341417 11.943547015515914 19.709992604918543 293.3652659647384 0.8564811332442321
2.0657311693982177 11.8851507693774 18.61745943401528 308.1303371824773 0.8803506515916982
2.0670266939581974 11.825400639644645 17.609049864428645 323.8128101498118 0.9054112317929351
2.067463222897734 11.764227023180633 16.679227916958034 340.49477403497633 0.9317983958119002
