M[M_sun], R[km], Lambda[1], P_c[MeV/fm^3], rho_c[fm^-3]
0.23841724892012095 16.20908015294055 2780876.1263280716 3.453507347168396 0.169602847481901
0.2484373892395434 15.865446709092081 2281040.685632176 3.635952963345957 0.17198361022230976
0.2587399530645828 15.561626293445636 1880102.3353191712 3.8255981336793616 0.1743850883293375
0.269329629364495 15.291934707802598 1556193.791648875 4.02160594887384 0.1767828720523
0.280209084225748 15.051935386943914 1267319.7706704794 4.2242118426788196 0.17916661202306533
0.2913675510661934 14.837681746253525 1079147.9931905242 4.434821459795677 0.18157414073282735
0.3028128477799565 14.646115308324958 903520.7534494968 4.6537836864030915 0.1840092268479754
0.3145439094173312 14.474570250717527 759085.4429567927 4.881466804415159 0.18647350228130483
0.32655976433699957 14.320648121717781 639670.9904435147 5.11535817198407 0.18891067597974393
0.3388607841910359 14.182529467064022 540785.0987726673 5.358329642808064 0.19136623493711918
0.3514439521261423 14.058184161405933 458403.45702034875 5.611028994082901 0.19385189611658993
0.3643129559277888 13.946371726002218 389660.64737383334 5.873870908351129 0.19637304142939807
0.3774727497785402 13.845723482829625 332032.79383252293 6.144050693113682 0.19887495319617515
0.3909148671569048 13.7552341025863 283647.76273168763 6.424418162124815 0.20140189356645577
0.4046372763850645 13.673652940797805 242863.62500816438 6.716060004074833 0.2039630615070818
0.41864982253014665 13.600300258200823 208410.106476206 7.019497159690376 0.20655730344608483
0.4329487629660644 13.534478067722407 179222.74213798638 7.330539434571953 0.20912158219087415
0.4475267717747045 13.47514427639853 154426.13054639247 7.6541684546264745 0.2117302526987218
0.46239254336494734 13.422023614584045 133327.98361239798 7.990919797540839 0.21438316960495662
0.4775421219100137 13.37435243889689 115315.44565103385 8.339461465956008 0.21705169330318855
0.4929776364864336 13.331926323462692 99919.85854259589 8.698582827642925 0.21970868267444588
0.5086927200476297 13.293894803236292 86727.94167255718 9.072357447827088 0.22241421758376287
0.5246915282763562 13.26016739478258 75401.23141240228 9.461395067426977 0.2251707017253555
0.5409631656453358 13.230196320114871 65661.20782320309 9.861089436055 0.22791153593057578
0.5575253942351109 13.203781367680506 57262.32726839635 10.276031849268474 0.23068844255266657
0.5743570643172746 13.18067309953716 50018.90081464683 10.707963007433753 0.23351574328985406
0.591474388062323 13.160337138217182 43745.67618370406 11.154907015353158 0.23635939315192234
0.6088565121544094 13.142774244124876 38317.22336290699 11.615723169771675 0.23920895145570298
0.6265132348974005 13.127635669747434 33607.21410013874 12.095463837983878 0.24211789316226692
0.6444358096574779 13.114657338987715 29513.59347018804 12.594895237579712 0.24508677192620967
0.6626316229594051 13.10375996947455 25950.091158858624 13.107001794376972 0.2480240618856742
0.681081749203033 13.0947266763812 22846.977314329557 13.640019201705083 0.2510184068778082
0.699794800486499 13.087408189557527 20137.844520909963 14.194998308933831 0.2540737812535476
0.7187698445564531 13.08160006804266 17770.03303173515 14.767441482453666 0.25714059818748314
0.737986177086226 13.077183539990816 15699.292792521603 15.359986469947183 0.2602408329276037
0.757452565056419 13.074015653157899 13885.606293848808 15.976903347645996 0.2634063852090596
0.7771596851368565 13.071906361858625 12293.537343219912 16.61707509299411 0.26661462728985563
0.7971097636823671 13.07087897765208 10895.791418628693 17.276096946093627 0.26981929962696627
0.8172893650079448 13.070728658322803 9667.315437103902 17.962307422885452 0.27309665334644867
0.8376890832724357 13.0713581700834 8585.724358776408 18.676748836519685 0.276447771201414
0.8582934171830344 13.07291293857514 7636.745863331259 19.41206470017892 0.2798015008485325
0.8791465302376636 13.074646615454064 6791.879088971456 20.175781265097825 0.2832095829809178
0.9002043938902593 13.077087651810993 6049.37910604586 20.97095619586585 0.2866910401079065
0.9214403738662446 13.07999033904801 5393.499701289902 21.794845129739493 0.290216333797327
0.942884926252805 13.0832002956523 4812.395033018456 22.64552206135236 0.2937683660394026
0.9645051885735966 13.086705675072478 4298.264210774872 23.531229943873917 0.29740418568878557
0.9862789551870491 13.090272697628116 3842.5704267659135 24.45328765603668 0.3011233754862405
1.0082460637244939 13.094155434105131 3437.7143382117074 25.40384844896007 0.3048485334416355
1.030345946424774 13.097957066457656 3078.5916674992736 26.3912763310721 0.3086440489637535
1.052607204313803 13.101856740898123 2759.176999163873 27.419323800296183 0.31252886598775603
1.075001211350048 13.105714775204182 2475.1741533023364 28.48800650298552 0.3164947791477343
1.0975232665816683 13.109436376737483 2221.9046494351346 29.590093789819406 0.3204849887537326
1.1201382594833926 13.112854800617512 1996.4346624441382 30.7375203972302 0.32456317092207077
1.1428790213602025 13.116192327836071 1795.1548373807761 31.932158010209886 0.3287332819350443
1.1656998439425232 13.119178383552805 1615.5106341269936 33.17279868245966 0.3329827236926282
1.1885898882644068 13.12182534266859 1455.0741961638892 34.4552829428128 0.33727932085057466
1.2115510337069946 13.124137866936676 1311.5685853485315 35.790688498041035 0.34168241750806044
1.2345630797323173 13.125992476424905 1183.123550250802 37.181050320902536 0.34618889139973147
1.2576112428568003 13.12738214915694 1068.1112582375606 38.6278883881332 0.35078927634702645
1.280669919724797 13.12823656945627 965.1096584291256 40.12312728424603 0.35543945061838306
1.3037380478800498 13.128489919378787 872.6485210328149 41.68037351488105 0.3602079545751396
1.3268197367100947 13.128218352863897 789.6385835558417 43.30212323298354 0.36509679246370186
1.3498748795787239 13.127337032515399 715.0919032376481 44.990991017373574 0.37010583692549287
1.372873359769879 13.125629581421501 648.1155767585617 46.74555154204172 0.3752048901680244
1.3958168953006729 13.12321838041218 587.8244651720805 48.56637073998382 0.38040102270461057
1.4186964662472603 13.12015550244923 533.5713170746267 50.46341651191561 0.3857339398420544
1.4414925615339962 13.116265959222028 484.664166877876 52.43993254116426 0.3912061829773258
1.4641773822971893 13.111482128184472 440.58762192994794 54.49934613949001 0.39681785240301626
1.4867312766862826 13.105843995459292 400.86351885950006 56.645373041190055 0.4025670116608988
1.5091584597581398 13.099382017732022 364.99278961731227 58.87511612935465 0.40843888973175635
1.5314014968442151 13.091862884935471 332.5602013809075 61.197396086462064 0.4144619138727048
1.5534869292519848 13.083467167638965 303.24867396989293 63.61897705300923 0.42065017067213445
1.5753674461260767 13.07400636361983 276.73535481797154 66.1444450543487 0.4270036803133588
1.5970284691864787 13.063586633032747 252.75389828346815 68.77875918496508 0.43353184524711846
1.6184666573186306 13.052110817293961 231.02662281602412 71.52708674162733 0.4402476259888337
1.639622994700823 13.039452159655735 211.3303553189372 74.39496658502898 0.4471573597462757
1.660539003720634 13.025869048557043 193.46833431373523 77.3883224715368 0.4542643864677086
1.681131979931686 13.01094337202065 177.2548130019035 80.51346726073491 0.46157290781925464
1.701424402041354 12.995005588196685 162.53160771461373 83.77636048430357 0.46910005991707154
1.7213831159098791 12.977802666839079 149.1587766589007 87.18293689574612 0.4768511484000838
1.7409444584214249 12.959208371981886 136.98535786895982 90.74367346964635 0.4848412214563771
1.7601943236091044 12.93964586769082 125.91042158818145 94.46678273634191 0.4930789368720429
1.779017398050469 12.918581642223838 115.8218942148598 98.36111615352844 0.5015862383925724
1.7974085506409743 12.896359888914802 106.64754779685565 102.43612554230688 0.5103775029171985
1.815380279342621 12.872744945151355 98.2674230906488 106.70189969374195 0.5194584530047495
1.8329026008390845 12.84797344906728 90.63896553494087 111.16908052249035 0.528843224596269
1.8499278553003566 12.821629429734955 83.66209563192895 115.84543779770648 0.5385435593092872
1.8664679819116727 12.794045828857794 77.29460535362517 120.74637798634114 0.5485870648976457
1.8825131266095005 12.765123130350803 71.47560247845657 125.88531451432209 0.5589831116763084
1.8979661094166995 12.734471380842622 66.14613609848521 131.27662747246208 0.5697578552217246
1.9128945208486 12.702682102975524 61.27976356222071 136.93582009388155 0.5809392911366577
1.927233916074967 12.66929925310243 56.819707034324004 142.87958834941736 0.592543650949331
1.9410044677722573 12.63471848571379 52.73836707908507 149.12594179433404 0.6045940781689346
1.9541272569667427 12.598306624023452 48.98687404961286 155.69195484427667 0.617118576662904
1.9666424652525551 12.560775025540224 45.55780141336269 162.58849017712322 0.6301118895960149
1.9784950358503721 12.5215635801244 42.40605350360363 169.8489424469504 0.6436313570639763
1.9896767991017534 12.480865598098733 39.511361752058654 177.49767428067332 0.6577227091190064
2.000162362315152 12.438544609185598 36.850336079274044 185.55740769723877 0.67241269847419
2.0099675105059442 12.394943950886166 34.4060042079646 194.04312828672857 0.68767963355333
2.0190452004290003 12.349747709794658 32.15924483429451 203.0009889343659 0.7036328554884758
2.0273752277711323 12.302956051381503 30.091436241481755 212.45918807751565 0.720302146525545
2.034970339866555 12.254727314527802 28.186644330943437 222.43867407961326 0.7376691109023243
2.041807777846052 12.204995903609168 26.432205192009306 232.99715803108745 0.755866644965583
2.047857810138994 12.153720919914845 24.815727577878107 244.15462622637992 0.7748738963901166
2.05311154570425 12.100905995394555 23.32659253050285 255.97155788458244 0.7947886512822612
2.057574155587858 12.046694511669095 21.953415712382444 268.4823181485454 0.8156429309342487
2.061211872608485 11.990869142476548 20.68576570510351 281.75154034572574 0.8375269437146114
2.064038836560789 11.933605465680577 19.51492677622772 295.819022435884 0.8604618238807216
2.0660167935813556 11.874996666703812 18.438222141971707 310.765849311968 0.8845874320667912
