M[M_sun], R[km], Lambda[1], P_c[MeV/fm^3], rho_c[fm^-3]
0.23841724892012095 16.20908015294055 2780876.1263280716 3.453507347168396 0.169602847481901
0.2484140097771197 15.866249194316444 2282087.1264199754 3.6355528071620657 0.17197852008431053
0.25869361620982934 15.56303415792988 1881714.3340940038 3.8247749533557696 0.1743750182799417
0.26925925906890635 15.29361778212917 1558184.58162029 4.020279635643642 0.1767666471264124
0.2801121960437036 15.053932738633602 1295513.0783456236 4.222395470917488 0.1791453723733533
0.2912401791478658 14.83993214018109 1081320.641104 4.432489923957475 0.1815479062453574
0.3026626716388797 14.648539059593265 905627.047415356 4.650910558971272 0.18397810937347306
0.31436421103343004 14.477038920080105 761058.7717197329 4.878024581169783 0.1864376339376161
0.326348847743949 14.323247646271954 641614.6307343553 5.111145908066422 0.188866783727808
0.33861722975282904 14.185015425258896 542533.1033525519 5.353468568329136 0.19131773059145715
0.35116800699241263 14.060714479657019 460047.94276668254 5.605488581573766 0.1937986469665932
0.3640025068726063 13.948951704325555 391172.89853218046 5.867618403256607 0.19631514214547657
0.3771256902756587 13.848257615351468 333434.9854029157 6.136760633710768 0.1988074459790209
0.3905290261194422 13.757602426471232 284910.8641562768 6.416321823585892 0.2013297315259662
0.4042154408816618 13.675984998359748 244007.4039471015 6.70712103485998 0.20388663761370068
0.4181869707514279 13.602578991329924 209447.39969627644 7.00926895832225 0.20646985723701416
0.4324424695773683 13.536624420833894 180155.0219713487 7.319362412497272 0.20902944646295066
0.4469827079275166 13.477249889599724 155269.71792411068 7.641998764004579 0.21163349744824442
0.461805923914143 13.42402479113472 134089.98701206653 7.977711877555542 0.2142820464088539
0.4769125044756633 13.37626778620542 115997.90942831631 8.324594815881088 0.21693787044746335
0.49230020978805455 13.333622180091675 100539.25556892356 8.682552136565413 0.21959074177776175
0.5079672309494598 13.295546530222314 87289.027644619 9.055110608589043 0.22229173655817605
0.5239176054510996 13.261684947682124 75907.10937924864 9.442875170864951 0.22504370477478905
0.5401498055137999 13.231621813777902 66110.64096492062 9.840470370593643 0.22777014429653764
0.5566546837842734 13.205099671083163 57672.68675961967 10.253986856560736 0.23054276466700405
0.5734365028711488 13.181826145272733 50381.72982806233 10.684428558249865 0.23336600700971652
0.5905022062783134 13.161523545695555 44080.136024625746 11.128854413241886 0.23619363530063103
0.607824328669142 13.143664835300198 38617.12300218866 11.588005106979907 0.2390384988612062
0.6254463228914038 13.12835484398341 33833.04550928042 12.066001096307497 0.24194270630178372
0.6432987195229853 13.115399040219236 29754.03896541317 12.562565043523756 0.2448952991017845
0.6614297082361648 13.10440517167332 26169.030352612208 13.07258435762299 0.24782665376803512
0.6798318015729127 13.095259626767257 23041.878076568853 13.603562551408181 0.2508166449821406
0.6984765866244973 13.087742473142491 20314.316277540103 14.15640563060952 0.2538670241728698
0.717391340627847 13.08194360910766 17929.838066164488 14.725136491196828 0.2569139526974536
0.736559722619296 13.077469658049907 15843.32651298715 15.315290491299576 0.2600089275190646
0.7559643870267875 13.074173569999884 14014.729097237183 15.929701448541929 0.2631698313153591
0.7756077513391679 13.072020838587884 12410.484441806688 16.565480080809532 0.26635605716324107
0.7954948842074134 13.070957447581472 11001.71571346714 17.22170283313171 0.2695556462275655
0.8156186464093513 13.070764842844122 9762.642932394578 17.904975614878865 0.27282715556225107
0.8359558348315091 13.071369314258188 8672.58148691693 18.616029166685763 0.27616958210208337
0.8565157474578114 13.072631790180372 7711.042454886616 19.34625425521621 0.2795013435266665
0.8772935950984979 13.074484794494468 6862.72858072828 20.106514848861874 0.2829039376327366
0.8982668440732168 13.07682410231113 6113.439134734657 20.89806215426079 0.2863791377454625
0.9194517893832465 13.079731102890227 5451.405785775521 21.715595644390028 0.2898772374712254
0.9408193868912818 13.082853508237353 4865.362227696419 22.562204834290586 0.2934219299834546
0.9623664763359484 13.086323085462718 4346.222115134875 23.44362871252347 0.2970500298471841
0.9841056259773154 13.08997832962075 3885.553165382559 24.360425610439933 0.30075647291829
1.0059912159505155 13.093819314157598 3477.2391996774204 25.303953027002652 0.30445705271932655
1.0280419881522385 13.09769240372255 3114.221262587015 26.28632606628607 0.30824414201494693
1.0502332889307504 13.101529467088247 2791.478213443992 27.30904450780424 0.3121196162672672
1.0725565463771018 13.105277180314603 2504.343143200377 28.368547064830036 0.3160514616348072
1.0950120645379071 13.108981420452116 2248.611001649796 29.464635037983992 0.3200312987907159
1.1175718402157007 13.11251205147614 2020.719650133096 30.6057385524198 0.3241002248245322
1.140251393273166 13.115838741680147 1817.2625339222238 31.793709705879362 0.328259068878155
1.163018119537614 13.118900685123181 1635.6323140449404 33.02306993391466 0.33246987286433477
1.185844856540055 13.121540042913457 1473.3875104673389 34.29803484705185 0.33675356089287833
1.208748495875886 13.123916735152598 1328.3196343088352 35.6254902702213 0.3411429435559414
1.2317112403285857 13.125851900598242 1198.3880851400486 37.007456519111955 0.3456369303124554
1.2547031575578755 13.127271904118267 1081.960438983992 38.44038424157649 0.35019308574842967
1.2777147898661538 13.128166063969667 977.709161821713 39.92614367490332 0.3548271043920965
1.3007304342912636 13.128486568914195 884.1662074977136 41.47335369212259 0.35957831085600817
1.3237674972668405 13.128316418917057 800.1270826576174 43.08447396598713 0.3644488641991321
1.3467580820567777 13.127463660038675 724.7114642547637 44.762094465500724 0.36944062436165026
1.3697288441921747 13.125971692119473 656.8684551427315 46.49863793633993 0.3744873169614706
1.392632517605311 13.123662274975922 595.8539195053918 48.30671323961424 0.37966146137187573
1.415469039310471 13.12065879343689 540.8999221106719 50.19024175020315 0.3849709881752306
1.4382239173796074 13.116850290860778 492.6767152441842 52.15241760213077 0.39041871104899434
1.4608673622246344 13.11223924527772 446.78383072386305 54.196626720907425 0.39600616950934053
1.4834128780773927 13.10680494440483 406.47437793630587 56.32151978248757 0.4017036545172417
1.5057912894688252 13.100392488033389 370.14167380691333 58.531531505452136 0.4075340827926584
1.5280376624406902 13.093108953062158 337.2738119502709 60.835435957791255 0.41352527511219905
1.5500846071164778 13.08481353803231 307.59948384852277 63.23748827186102 0.4196803216259212
1.5719561615060405 13.075600675364885 280.73046530922693 65.74220795889761 0.4260000248198398
1.5936065588280932 13.065362380134806 256.4137465092599 68.35446330337084 0.4324900214788989
1.6150188003444268 13.05400099052772 234.37979181742847 71.07931445977142 0.4391652023322915
1.6362067247523833 13.041734398838285 214.4220461485368 73.92220536032983 0.44603268955634623
1.6571054497662636 13.028197125666624 196.3050797802315 76.88623362314024 0.4530839324568454
1.6777255717411204 13.013668897494334 179.86532649659452 79.97845747191282 0.46032574694510064
1.697994428485242 12.997755005726885 164.93750243939374 83.20807095239687 0.46778907563129696
1.7179871598943177 12.980933818388882 151.3670254813011 86.58214840489698 0.47548436883659284
1.7375984166988214 12.962705470363295 139.0235881410152 90.108219643555 0.48341639228336014
1.7568612702683883 12.943340250120574 127.78541629274416 93.79434707914874 0.49159282734220827
1.7756949811859162 12.922526657718283 117.55838165936309 97.64919870061148 0.5000328741473531
1.7941150011543956 12.900393181533664 108.23588631105365 101.68202459128646 0.5087524665888108
1.8121302101422987 12.877159488566054 99.74161820558115 105.90271735098517 0.5177587972762858
1.829702393034337 12.852624145556705 91.99030404353452 110.321901623424 0.5270646498339967
1.8467870242690962 12.826669471049966 84.91873707436879 114.95100096670723 0.536693754481441
1.8633697256138524 12.799301777540647 78.4553345147357 119.80227467794721 0.5466657896820853
1.87944492592882 12.770564372328923 72.54768367681392 124.8864199415389 0.5569799867048295
1.8949954291006184 12.740506308386408 67.14454355566703 130.21493656542765 0.5676507383161781
1.910021124883817 12.709115368415922 62.20191105022072 135.8067851632236 0.5787210643446232
1.9244393461802032 12.676100345458208 57.67673299326172 141.67830393192844 0.5902093683277089
1.9382806720943857 12.641650052186343 53.52160783313521 147.84710361994033 0.6021341317139489
1.951518763652478 12.605852669568158 49.722686818316724 154.33214926520844 0.6145307877674999
1.964127116518879 12.56852414737159 46.23518937969035 161.153643234126 0.6274302697382612
1.9760825379248643 12.529659251993472 43.032769973032906 168.31853326042392 0.6407970973226529
1.9873826080662131 12.489413709127387 40.09410010903571 175.864401417739 0.6547239177366792
1.9980239735107743 12.44772632126272 37.395211850744744 183.81702250585002 0.6692502367140293
2.0079361617275215 12.40433483608749 34.909582216300976 192.19844074443452 0.6843804006377179
2.0171361756419226 12.35955465235843 32.62686422253303 201.02843808026202 0.7001329255503582
2.025638263130151 12.313327042660719 30.527415572902232 210.3538930188273 0.716604735649833
2.0333672999996937 12.265493487150115 28.591764140383315 220.19933131030882 0.7337913689541574
2.040355121321378 12.216183888172452 26.809389503716964 230.597737511315 0.7517424194405922
2.0465623180906847 12.165263564466958 25.165993795571648 241.60306954743902 0.770556497509887
2.0519980538214533 12.112930330037006 23.650736693497 253.23367636620048 0.790188625071938
2.0566202044684623 12.059228060999033 22.258983131506174 265.56448389763364 0.8108088472420908
2.060439513346022 12.003844041861601 20.96805198109741 278.6160109709221 0.8323722217510352
2.063451652335943 11.947115761174107 19.78053191393272 292.4702708122027 0.8550291966460827
2.065625472531831 11.888848627708304 18.682639383539325 307.16721989688784 0.8787987852828724
2.066971881158081 11.829282701510282 17.67165942982949 322.78212358233236 0.9037729412456443
2.0674659294850697 11.76823592252733 16.736949269104784 339.3903801389985 0.930065414597564
