M[M_sun], R[km], Lambda[1], P_c[MeV/fm^3], rho_c[fm^-3]
0.23841724892012095 16.20908015294055 2780876.1263280716 3.453507347168396 0.169602847481901
0.24840794958176673 15.866495197410487 2282588.1911000987 3.6354564519763906 0.17197729440990694
0.2586843208147622 15.563195223432764 1882030.9220652673 3.8245767552392227 0.17437259370203745
0.2692426305264564 15.293961501322386 1558704.5220701385 4.019960329655697 0.17676274102348594
0.28008927831449115 15.054376342688823 1295992.8294779419 4.221958224754889 0.1791402594578537
0.2912111884236228 14.840411065931784 1081765.7366843366 4.43192871465419 0.18154159150715188
0.30262561008824235 14.649122624525967 906111.3426773712 4.650219046113313 0.1839706199271341
0.31431849008614693 14.477687776874374 761529.7367148745 4.877185437820747 0.1864287847925808
0.32629738163623767 14.323861177254466 642045.2376753328 5.110132276798012 0.18885622157883702
0.33855879310559894 14.185579508329797 542939.6637540399 5.35229890351168 0.19130605954488902
0.3510999379794178 14.061355710880141 460435.3814946971 5.60415556076302 0.19378583524454487
0.3639310913797098 13.949625302796195 391541.9423441414 5.866114169216268 0.19630121267681253
0.37704228517726995 13.848812049313096 333752.8052257119 6.135006968005231 0.19879120672978345
0.3904368883071957 13.758167841096583 285201.58410315856 6.414374348888714 0.20131237383430414
0.40411377607289817 13.676582779119919 244291.3550389076 6.7049710330203585 0.20386825613062237
0.41807506157604896 13.603110975278598 209692.37115188854 7.006809134875951 0.20644882692800673
0.4323237337882996 13.537119592261096 180385.1870780062 7.316674594591379 0.209007289929875
0.44684993616707147 13.477712688507307 155476.00953083325 7.639072436149788 0.21161023164853215
0.461662743894324 13.424477139553785 134276.18781086002 7.974536113699506 0.2142577319527134
0.47675934462082215 13.376745817171216 116171.72653845909 8.321020613327283 0.21691050544327178
0.49214117175783345 13.334131516341158 100692.64460460516 8.678698335065484 0.21956238861429883
0.5077910366029242 13.295962947915573 87428.32066209473 9.05096471422779 0.22226229386515084
0.5237332692774515 13.262045645533556 76023.8338039399 9.438423537773803 0.22501317847969213
0.5399513723795221 13.231982118000845 66222.5047661138 9.835514715894494 0.22773616176144384
0.5564452053640473 13.205489998252972 57772.444125828595 10.248688823541919 0.2305077541655907
0.5732189809769151 13.182115011591645 50468.6786933695 10.678772916958852 0.23333002338919107
0.590260317365169 13.161706716392468 44159.25013594106 11.122594345241602 0.23615380605761596
0.607582060893486 13.143952706850285 38687.05030272457 11.58134525726411 0.2389975440271132
0.6251669865667839 13.128687996806384 33940.04791857144 12.0589224758351 0.24190061648846178
0.6430276162196159 13.115655255682297 29813.3234091414 12.554765520793698 0.24484892276942025
0.6611446821210233 13.104558627388858 26220.67407933387 13.064316799090259 0.2477792335263976
0.6795299379772441 13.095394301044125 23089.107093182098 13.594805656032328 0.25076818173066784
0.6981616483389761 13.087892375113254 20357.14356164768 14.147136196826956 0.2538173639484015
0.7170631138362331 13.082046208338255 17969.02981580478 14.714976630451922 0.25685952208421503
0.7362141608904614 13.077576984940496 15878.182432916534 15.304557032166384 0.25995323688870736
0.7556033857103631 13.07427205228957 14046.836806953761 15.918366853261993 0.2631130276125869
0.7752342204396944 13.072095342188218 12439.5475182464 16.553092089810555 0.26629397433264407
0.7951062724056374 13.070977334813302 11027.990907766738 17.208643512263514 0.2694923464667407
0.815214328155985 13.070748788678612 9785.736891094946 17.891211764341694 0.2727624562731345
0.8355393832495869 13.071286200665847 8693.044358860747 18.601022022908374 0.27609903850445816
0.8560814707547618 13.072628077334551 7730.099785580972 19.330457782561773 0.2794292968032388
0.8768420917567261 13.07443542840119 6879.6180971042695 20.08988977030475 0.28283057772471387
0.8978027908326007 13.076800497141962 6129.389237283109 20.880567363387577 0.28630428023333027
0.9189699422028925 13.079676629714099 5465.381417660802 21.69657798082686 0.2897958638217074
0.9403224447336268 13.082794566559802 4878.044681173388 22.542212146226525 0.2933387996604114
0.9618563156204021 13.08617527400316 4357.557130684607 23.422609225145447 0.2969650518836596
0.9835643965597083 13.089877828706483 3896.2361732084278 24.337612174212772 0.3006642423459305
1.0054551778575753 13.093699068855207 3486.850933439115 25.27998813718917 0.304363136579924
1.0274850697466336 13.097552370651984 3122.662872721109 26.261149952812467 0.3081482098823071
1.0496569495468575 13.101378609546734 2799.3566210980734 27.28259155306832 0.31202144856880676
1.0719727995063724 13.10522774337557 2511.532855782954 28.33989594349577 0.31594513647499894
1.0943780693293768 13.108945963684606 2256.0748469751434 29.434546794902055 0.31992249224122155
1.1169617837666668 13.112418522877935 2016.5711069184258 30.574135726164585 0.3239892049408214
1.1396193267261179 13.115750200655391 1822.5814842669374 31.76051015551411 0.3281453537962536
1.1623655153481962 13.118793951816498 1640.5482533281622 32.98717039167318 0.33234690977172354
1.1851848153075102 13.121462257089409 1477.8232017281098 34.26033471899588 0.3366275102870765
1.208083739109908 13.123875634559877 1332.2913506715554 35.58588654021544 0.3410136129872852
1.2310221880929366 13.125776739297978 1202.0630667085954 36.96584267558103 0.34550461439976643
1.2539921810691423 13.127215021782586 1085.388843079469 38.39544231941107 0.3500501878340639
1.2769990242402245 13.128121440266549 980.757877601961 39.8789326773756 0.3546803435713775
1.3000081972372377 13.128530935918404 886.9761270002073 41.42374054287678 0.3594274141573601
1.3230175941212665 13.12832425256453 802.7226199683154 43.0323168845608 0.3642935958275913
1.3460155783142393 13.127518186392157 727.0343573263709 44.70670477946516 0.3692781439399442
1.368968937210903 13.126021019934505 658.9812964070555 46.43948089751524 0.37431539647973366
1.391866022023541 13.123722555417118 597.7848916525973 48.24450725770921 0.37948428513465443
1.414690788625225 13.120808134353126 542.6817598890927 50.124802088935354 0.3847882212961542
1.4374460338709594 13.117051320559323 493.018203037638 52.08354771283444 0.39023008396509234
1.4600843362258242 13.112427698522973 448.2575878655957 54.124120193722476 0.39581175744264385
1.4826003995070811 13.106991915199469 407.87340189406257 56.24337959457992 0.4014941368915465
1.5049919551698416 13.100727168187296 371.3994173737849 58.44925630898651 0.40731741661059184
1.5272171664533498 13.093416128133162 338.44851579995924 60.748767336385455 0.41330100402901
1.5492593619275838 13.085139796099451 308.65289661903955 63.14615099653832 0.41944811723687253
1.5711556005601612 13.076178111039436 281.7269202044732 65.64591096290131 0.42575974611324097
1.5927837131646736 13.065820246591066 257.31504156257466 68.25289389133974 0.4322406261107881
1.6142112812370364 13.054600127602576 235.21133055241472 70.97213442036634 0.43890611034544424
1.6353695670686212 13.042148145582715 215.1579426907734 73.80905388577443 0.445763509082715
1.6562781033850287 13.028822216997124 197.00414784885362 76.76437778700607 0.452794044836607
1.6768607167296135 13.014134984262698 180.50838567554882 79.84976938041414 0.4600245947226845
1.697178401731368 12.998444296720368 165.52404315624773 83.07210390664495 0.4674754139318356
1.7171227124985502 12.98143203550491 151.9108154372462 86.43841964094031 0.4751573893084329
1.7367733747348941 12.963390758095043 139.51598536451394 89.95621281242721 0.4830755590731473
1.756011210279554 12.943966110085665 128.2400165102488 93.63351013819785 0.491237371309888
1.7748725791250515 12.923425615347162 117.98715019164358 97.47893598299864 0.49966137037714764
1.7933269048098959 12.901435467890602 108.62675017626322 101.50169247169282 0.5083638631198478
1.8113457690887242 12.878195141727623 100.09841129811883 105.71162558215259 0.5173523941287411
1.8289185520073503 12.853768549971395 92.32792234550493 110.11930910040915 0.5266392527277888
1.846004869040455 12.827769742380042 85.22184985435669 114.73610636693876 0.5362476751673655
1.8626371612400427 12.800659471575461 78.73592042700166 119.57421143136904 0.5461976424512691
1.8787274994868852 12.771954668014184 72.80508098360835 124.64668894295464 0.5564976533155822
1.8942841382479283 12.74191794337897 67.38652505699721 129.96120854829707 0.5671471693482568
1.9093181383808437 12.710583833639488 62.426975005781465 135.53699743096396 0.578191009552154
1.9237565415478044 12.677678828151988 57.88373651206782 141.39128948609198 0.5896516545812249
1.9376258573192002 12.643400999170172 53.723633019148664 147.54160083580805 0.6015464729265728
1.950889741297213 12.607626268304363 49.90185840189413 154.0067885402675 0.6139107937843539
1.9635216929840569 12.570434097167098 46.401326955589305 160.8072365775023 0.6267767092547405
1.975516009461392 12.531770273683238 43.18838316132256 167.9530640285451 0.6401202621731217
1.9868537759772151 12.49163182694944 40.23837599992886 175.47442595148132 0.6540078983292229
1.9974849711710885 12.449790176931273 37.52372753370771 183.40065470519858 0.6684921926692282
2.0074547875982636 12.406708148681505 35.03473023266555 191.75806046035544 0.6835926756158779
2.016599879262439 12.362047207736444 32.7542678674034 200.63425359828787 0.7839699725473955
2.0224250410331224 12.319375524665935 31.011804558959874 210.66836502493047 1.1824367158973441
2.0235481267772246 12.275937089321095 29.810253968792264 222.28797823665388 1.5787116347940746
