M[M_sun], R[km], Lambda[1], P_c[MeV/fm^3], rho_c[fm^-3]
0.23841724892012095 16.20908015294055 2780876.1263280716 3.453507347168396 0.169602847481901
0.2484400290939277 15.865497495206439 2281151.7028171276 3.636011321241362 0.1719843525568104
0.25874646852516203 15.561460105086779 1879934.3740340986 3.8257181949530974 0.17438655705122308
0.2693386684661402 15.291788059116111 1556283.7240373623 4.021799410266926 0.17678523868537993
0.28022062595540076 15.051610247415676 1266984.5336062792 4.2244768083470925 0.1791697103854709
0.29138153649759196 14.83731843977944 1078867.785491875 4.435161603556864 0.18157796803717097
0.3028362271831175 14.6458145561472 903161.455942285 4.654202875360396 0.1840137668838771
0.31456946185551476 14.474238893203166 758800.835362079 4.881969063210796 0.1864787358730327
0.32659138322222175 14.320369806586111 639454.6935156893 5.1159728465767955 0.18891708095640491
0.3388967317706883 14.182131918801566 540507.8296458585 5.359039048279893 0.19137331346438086
0.35148716408256586 14.057758077536233 458154.3003785216 5.6118375983949615 0.19385966764844428
0.3643595918651795 13.94602156232271 389453.81423765124 5.874783505087444 0.19638149223379456
0.3775231245157966 13.8453673749633 331842.5770323577 6.145114831336848 0.19888480730107924
0.39096969181993363 13.754934512979746 283473.78475414426 6.425600075685955 0.20141242787080138
0.4046981676724476 13.673305995151402 242699.94965691227 6.717365014066435 0.20397421871571092
0.4187166515216655 13.599996894359808 205679.6358466095 7.020964657639565 0.2065696593952643
0.4330194839784422 13.534095504286276 179081.70674520105 7.332171449791961 0.20913503540849088
0.44760529956916545 13.474838818550316 154306.4761811731 7.655945528991638 0.21174438134674256
0.4624773928222251 13.42170256919619 133214.88459515502 7.992848600617004 0.21439793701208293
0.4776337021301088 13.374154208836957 115219.62361722582 8.34163272004044 0.21706831697692472
0.49307700687917877 13.331600309443596 99828.10831381544 8.700924232418874 0.21972590884251564
0.5087998007924974 13.293727483924451 86650.37047416066 9.074876632316519 0.22243210795171084
0.5247975146948335 13.259881923503011 75326.74574349794 9.46410036340206 0.22518925281920554
0.5410895477539928 13.230106724705308 65595.58532217883 9.864101680486078 0.22793219186976132
0.5576526888968715 13.203606314972902 57204.213717374965 10.27925259510132 0.23070972590936376
0.5744948981433786 13.180421331829622 49962.34849269561 10.71140155751129 0.2335376208232373
0.5916158644023396 13.160185307629964 43696.920941211385 11.158713889035765 0.23638361411837594
0.6090010541894605 13.142556710795217 38272.897513779324 11.61977363211939 0.23923385982759268
0.6266723324614669 13.12746956303706 33567.32040353143 12.099769490401318 0.24214349477591268
0.6446043499535128 13.114561920565917 29476.937886616357 12.599468038480564 0.24511300014374454
0.6628085115832958 13.103748436156225 25919.54674620767 13.11203234075536 0.24805291559428566
0.6812604096197995 13.094656593434085 22818.526582717164 13.64534809235525 0.2510478985362745
0.6999851211843994 13.08727983821486 20111.904772937938 14.200639725264853 0.25410400467472843
0.7189717050113322 13.081529541276224 17746.283511527792 14.77362624422263 0.25717373253688725
0.7381984366628379 13.077134175234749 15677.976511543662 15.366521126956048 0.2602747380427652
0.7576711333007976 13.073990990742411 13866.536128393764 15.983804738658835 0.2634409717605972
0.7773874213785857 13.07195896865958 12277.074931106532 16.624619657235243 0.2666524371255061
0.797346355798327 13.07088170743473 10880.565857430753 17.284051227131695 0.2698578547779059
0.8175390545122677 13.070790733765278 9653.289340233476 17.970691730102658 0.27313606518946626
0.8379426636709574 13.071373540314742 8573.175073883827 18.685585172837346 0.2764880731784895
0.8585871840710788 13.07281139418649 7621.419805939286 19.42169055523127 0.2798454037711585
0.879421874590854 13.074661309849052 6781.600365178976 20.185913136035097 0.28325429092725934
0.9004893542105149 13.07724220835772 6040.295866187148 20.98161924381084 0.2867366656456276
0.9217334685037732 13.080003996772309 5384.89709330947 21.806439241657802 0.29026594321420296
0.9431824713005945 13.083261838663946 4805.133497086669 22.65771190977667 0.29381905187184865
0.9648075110604297 13.086690050167393 4291.353540239618 23.544047236614745 0.29745600367156616
0.9865978927432568 13.09036021347043 3836.2299669717886 24.466764976713833 0.3011761918328768
1.0085670610911222 13.094176813398303 3432.1960438766846 25.418467104286368 0.3049058225709488
1.0306841798869824 13.098026098288708 3073.379468408809 26.40663551656587 0.30870257425684827
1.0529544925694663 13.101928467491334 2754.6348993993156 27.43546372986156 0.3125887617443762
1.075360679827153 13.105809209634288 2470.862595693495 28.505492187795543 0.3165596690419234
1.0978828252037758 13.109457171800747 2218.1222428123087 29.60845860186675 0.32055140046895114
1.120509883249666 13.112928362120389 1992.9237066199191 30.75681183845657 0.32463094123932873
1.1432581606031924 13.116228641580607 1792.0404923337458 31.9524264599352 0.3288027054180485
1.1660944163268512 13.119226871587584 1612.6259777550385 33.194721392671724 0.33305781334775425
1.188993857422033 13.121893113762374 1452.4502505538949 34.47830789355861 0.3373563049124261
1.211968419039556 13.124189678674648 1309.1368395869092 35.814878915839465 0.3417614141199815
1.2349715399260843 13.125993821046915 1180.9886041600685 37.206471588932374 0.3462697211908701
1.2580308470953878 13.127413366457793 1066.195639748036 38.655350369970584 0.35087659481806266
1.2811139334299286 13.128269966951482 963.2626248086979 40.151979332062915 0.3555291405304537
1.3041897001207752 13.128532692719608 870.9618853113204 41.71069737876421 0.36030018357127835
1.3272728842365367 13.128266443654699 788.1361904752009 43.334006028342486 0.3651917055527815
1.3503125096316595 13.127231625074975 713.7328588223592 45.02452348202541 0.3702032880080911
1.3733287631755466 13.125559274912312 646.8307374901993 46.78172846095736 0.3753100264874093
1.3962776979041458 13.12316430001151 586.6705858196106 48.60441728604445 0.3805093875863125
1.4191682541072383 13.12010241428831 532.5265595276894 50.50344630777774 0.38584573933364785
1.4419695110047133 13.116126085605632 483.68396505496656 52.48206650261904 0.3913215832830858
1.4646576480628808 13.111384542387885 439.73971447982444 54.543711276875904 0.39693680883884824
1.4872227349784988 13.10574708828874 400.0419070827445 56.692105498628216 0.40269007843638743
1.509649448862224 13.099242033522053 364.2312989579299 58.92548115365293 0.4085715226271267
1.5319247419866855 13.09190162939526 331.8858966626156 61.25045856015902 0.4145992228348145
1.553980404008676 13.083254465594218 302.6214095156367 63.67490652455432 0.4207923587188444
1.5758772477759808 13.073892381815552 276.1776037225385 66.20342087315434 0.4271508358223819
1.5975397097738475 13.063353305429526 252.21944579251965 68.84097407820161 0.43368460881924537
1.6189597516003875 13.05181758604344 230.55042487256216 71.5927492216683 0.44040635538014167
1.6401318482014444 13.039211684337383 210.89401371470984 74.46429915616314 0.44732229771468746
1.6610411725485557 13.025485487791345 193.05648787686266 77.46156186859591 0.4544357792277994
1.6816452349354336 13.010645111611531 176.88118687500773 80.59086835078398 0.46175146400770967
1.7019250743814407 12.994506405595503 162.17765176763388 83.85889360167117 0.469289028766135
1.7218677317175928 12.977300857192432 148.83749821485796 87.27108199795327 0.47705167641643825
1.7414731477580636 12.958822003069155 136.68464599198782 90.8369130352462 0.48505028535321953
1.760682118129973 12.939166328371122 125.6465713794458 94.56545784488618 0.49329701278398547
1.779527926179205 12.918233565763588 115.58362700278477 98.46559495422312 0.5018142053186783
1.797891796718498 12.895711361152305 106.41381265898488 102.54680595496286 0.510616011688688
1.8158561825538548 12.872104070991512 98.05623375489846 106.81920860055493 0.5197079389415592
1.833361251325802 12.847144269713192 90.43212275325733 111.29157270508063 0.5290974944981108
1.8504039342100231 12.821013395785844 83.48108846058732 115.97544750772671 0.538810431269756
1.8669036446034104 12.793130670972598 77.12461003937526 120.8844357098722 0.5488670727844323
1.8829101791165848 12.764087092958036 71.31575830452792 126.03199189548157 0.5592772499497131
1.8983960955192192 12.733637207789641 66.0014554535692 131.4325437728317 0.5700672992135516
1.9133187191496634 12.701829069749305 61.14788384643726 137.1016458595664 0.581265090760977
1.9276409554514076 12.668380550794119 56.698341465365736 143.0560470081851 0.5928865375918276
1.941396218900825 12.633681213773125 52.62301668652257 149.3138157295947 0.604955468554585
1.9545054505677277 12.597301882842398 48.88408751668024 155.8897082466863 0.6174919536694047
1.9669954398765002 12.559599106308971 45.46195574169883 162.79932508051098 0.6305059240025358
1.9788433495364495 12.520398840767637 42.31416857976987 170.07384931243107 0.6440478760446458
1.9899995163232365 12.479587581384717 39.42540817309831 177.73773084575998 0.6581634680240185
2.0004747767785163 12.437272709255087 36.77195908956674 185.81113713769562 0.6728702660310741
2.0102500422034413 12.39346891318998 34.3323362923711 194.31432074097185 0.6881646626170554
2.0193117651648755 12.348251939414572 32.09066357765374 203.2910219967641 0.7041474659970056
2.0276289711422133 12.301408457407577 30.02612178936583 212.76670889182984 0.7208387116676068
2.035201960445738 12.253151291957433 28.127117786049816 222.76801920708425 0.7382394190452869
2.042007740460277 12.203352139396303 26.378743032664428 233.35010277198765 0.756473301321706
2.0480346196583086 12.151979074162604 24.766033878842133 244.52999279072046 0.775509040887566
2.0532686874535493 12.099135566038544 23.278361128449166 256.3744032662396 0.795465488209604
2.057702933021845 12.044792048942767 21.90874264610133 268.9116956133398 0.8163542964272318
2.0600962593543763 11.99498782795442 20.836717175070024 285.09214474489085 2.6013523685275026
