M[M_sun], R[km], Lambda[1], P_c[MeV/fm^3], rho_c[fm^-3]
0.23841724892012095 16.20908015294055 2780876.1263280716 3.453507347168396 0.169602847481901
0.2484127250909522 15.866297130650535 2282179.699655896 3.635505983123955 0.17197792446483676
0.2586894885038526 15.563073860517925 1881799.568893456 3.8246786375888684 0.17437384003927864
0.269250657754466 15.293817779272063 1558415.4009702248 4.020124465102688 0.17676474890925706
0.2800994073970685 15.054236214912844 1295808.4480258655 4.222182984009216 0.179142887668627
0.2912266302540494 14.840114033575274 1081491.577254267 4.432217192726533 0.18154483746814046
0.3026447983473772 14.648804337743307 905839.5705037273 4.650574501155506 0.18397446969136302
0.3143423817095805 14.477371384946327 761313.7422147336 4.877621988917987 0.1864334388822044
0.3263229898777306 14.323593947162555 641890.5452159314 5.110653299667202 0.188861650694269
0.33858875042823977 14.185321349238487 542749.2836429313 5.352900125545115 0.1913120586056843
0.3511337915990521 14.061089733174356 460291.94009539153 5.604840744671024 0.19379242057742982
0.3639667318301483 13.949231700547834 391359.7552471805 5.866887352546374 0.1963083724888361
0.37708503374777125 13.84853508417571 333582.150165597 6.135908351451575 0.19879955369716582
0.3904835037834294 13.757889343828554 285045.35918417404 6.415375342997854 0.20132129561753817
0.4041660135097473 13.676284763196664 244144.59083016886 6.706076117638875 0.20387770407333622
0.418132732143334 13.60288628742724 206972.50777957024 7.008073452625048 0.20645963623750702
0.43238470537527596 13.53680930562382 180259.34184218026 7.3180560892976025 0.20901867802766436
0.4469210057421184 13.477468236056204 155373.2801913985 7.64057651120389 0.21162218981272202
0.46173572022778514 13.424271885190024 134181.81553890943 7.976168383448919 0.2142702290252385
0.4768369489194176 13.376504744236689 116085.44678900666 8.322857652393933 0.21692457028179232
0.49221980663662324 13.333821886965929 100614.12635913058 8.680679067643696 0.21957696124720882
0.5078812639187072 13.29571147743567 87355.35236695851 9.053095560212647 0.2222774263887391
0.5238277300531932 13.261846591997452 75962.92278298057 9.440711509009363 0.22502886784215304
0.540051730361901 13.231784099026964 66165.17465337674 9.838061708252845 0.22775362731593782
0.5565521938378364 13.20531293770288 57722.88194162927 10.2514117673955 0.23052574794352595
0.5733248432054229 13.181951048211799 50427.97897627318 10.681679637964 0.23334851719745092
0.590377533794449 13.161495128432888 44116.52863065767 11.125811676979435 0.23617427610484876
0.6077152888646636 13.143944811311743 38649.08895137866 11.584768035287839 0.2390185924459336
0.6253017659994808 13.128574473717881 33906.33862814769 12.062560457246994 0.24192224809861695
0.64316815281607 13.115590308487358 29783.60645305098 12.558773957842321 0.2448727571263754
0.6612931703044127 13.104524232377313 26195.02179911158 13.068565751801847 0.24780360424763195
0.6796837518071431 13.095332047930968 23064.37539920941 13.599306069247612 0.2507930883497403
0.6983244027860104 13.087840912580308 20334.90715536344 14.15189999189936 0.25384288558631013
0.7172372802969137 13.082068707381262 17949.921576541863 14.720197979262482 0.25688749502841446
0.7363928094938118 13.077510231056603 15746.587411229277 15.310073134494088 0.25998185722553757
0.7557869732756048 13.07422466282152 14030.769960837595 15.924191858183972 0.26314221981928354
0.7754270516201587 13.072070252082188 12424.691745016235 16.55945837560193 0.2663258791864941
0.7953039075573294 13.070924710971463 11014.245304844999 17.21535476412645 0.26952487653794777
0.8154190253124727 13.070760470648986 9774.415610785683 17.898285040201262 0.27279570539325565
0.8357561706701103 13.071296850839316 8682.177090613413 18.60873413868816 0.2761352905988259
0.8562987452446524 13.072528640791733 7720.080161705993 19.33857548867963 0.27946632115293607
0.8770755305729632 13.074478778812589 6870.802448741405 20.098433246655873 0.28286827671285153
0.8980429020095574 13.076799722389643 6120.82859382853 20.889557729666798 0.2863427486241614
0.9192187424337354 13.07969947382117 5458.401740525031 21.706350814649806 0.2898376802704875
0.9405776564937492 13.082806045645688 4871.284696933592 22.552485973333134 0.2933815186066344
0.9621188712287553 13.086241164345982 4351.497330927694 23.433410645769662 0.2970087200622079
0.983837233956425 13.089935744912374 3890.818988623034 24.349335316883582 0.30071163687902996
1.005732958020835 13.09376495077385 3481.6555275570645 25.292302911764164 0.3044113970182025
1.0277682539405222 13.097628756860578 3118.536013715538 26.274087066396934 0.30819750600967255
1.0499705165137487 13.101571324396067 2795.239717670327 27.296184716704637 0.3120718932016387
1.0722762480787325 13.105258803497927 2507.738915020393 28.354618472474055 0.31599977221606246
1.0947219343524797 13.108950111888467 2251.72661739568 29.45000771165924 0.31997840275084444
1.1172791283449974 13.112516790468803 2023.578981511645 30.59037482529594 0.3240462524619061
1.139942621424761 13.115807197912378 1819.867990535755 31.777569635322582 0.32820378591723937
1.1626913555979939 13.118819676271716 1638.0295479951828 33.00561701006655 0.33241009311903785
1.1855251660498674 13.121535620965854 1475.5693445236072 34.279706439901396 0.3366922797528974
1.2084226989785296 13.123868081216564 1330.1680391793527 35.60623628436222 0.34108006743443253
1.2313686034161513 13.125779028264718 1200.026484128198 36.98722515888769 0.3455726024189979
1.2543601105574755 13.127216876390927 1083.5900743968702 38.41853455807702 0.3501236122134497
1.2773718986364044 13.12814388730974 979.169583351033 39.90319067589801 0.3547557523523519
1.3003710780110243 13.128468122781639 885.516456012258 41.44923266127841 0.359504947564669
1.323394439414705 13.128303251099087 801.4252424730761 43.05911595332898 0.36437337498034783
1.3463940754143775 13.12748935220472 725.8419055017522 44.7354276672571 0.36936312608094674
1.3693593985949772 13.125984071472299 657.899507669276 46.46987602271378 0.37440372991680904
1.3922677383871946 13.123735815487011 596.7895008381357 48.27646873347556 0.3795753184057145
1.4150877434314124 13.120669806244695 541.7627601130831 50.158424806867295 0.38488212641582376
1.437850490064654 13.117065414645749 492.2122256174159 52.11893263093505 0.39032699938028503
1.4604918574143526 13.112357969520321 447.4912185804366 54.1613733340927 0.3959116444499452
1.4830298407251883 13.10696561448895 407.1656675481089 56.28352665942105 0.40160178339111835
1.5054006790179129 13.100506115033717 370.7555732520256 58.49152756459108 0.407428735111871
1.5276350336890974 13.09325917294692 337.84511350245447 60.793295512218336 0.4134162289173778
1.5496966079730037 13.085016913651433 308.0967381671149 63.19307745570036 0.41956741715841545
1.5715656505229356 13.075849853797434 281.20095045277975 65.69538520127877 0.4258831934324881
1.5931949833969246 13.065532004101307 256.8589242341086 68.3050765114986 0.43236875625847
1.6146286690500462 13.054271034834962 234.7716031033285 71.02719912766493 0.43903922117931166
1.6358033479524534 13.041901175148144 214.76482789092154 73.86718598861846 0.4459018018185209
1.6567000382158945 13.028497159053789 196.64471462702681 76.82698079772452 0.4529429735902282
1.677301440742173 13.01386304441424 180.17504772673752 79.91588186740583 0.46017930928993883
1.6975915603517027 12.99801405307907 165.21155432420693 83.14195528037425 0.4676365537173805
1.7175532069620003 12.981059512071004 151.6218606430409 86.51225783004261 0.475325369436893
1.73717715031469 12.962892946409573 139.25837011062893 90.0343029895805 0.48325065466304795
1.7564652228103992 12.943748576506787 128.0109824798772 93.71613580249169 0.49141997731211656
1.775286421612369 12.922887151720955 117.7652655940548 97.56640303179107 0.49985221860775686
1.7937389468762235 12.900994149305438 108.43041912791261 101.59433142553095 0.508563493773021
1.8117550991054534 12.877738739056111 99.91844596237935 105.8097908976889 0.5175611665602142
1.8293193269920751 12.85316192189632 92.15499775979143 110.22338134467739 0.52685778019805
1.8464118104877398 12.827284253012127 85.07115891765935 114.84649702260793 0.5364768246574612
1.8630044229857823 12.799936912997124 78.5899279769387 119.6913654783296 0.5464381254904541
1.8791062096895341 12.771385874616966 72.6766802014134 124.77031290584931 0.5567471524209209
1.8946873119439958 12.741380526542953 67.26651761741779 130.09154421444728 0.5674058439622346
1.9096778374351286 12.709847251303973 62.31273349930345 135.6755810272486 0.578463286199995
1.924111543133022 12.676796918315617 57.772918713418996 141.5387202219818 0.589938135450926
1.9379567897776682 12.642512205508364 53.62060072070169 147.69852649575523 0.6018483318549446
1.9511994129281582 12.606670224031443 49.80914050610944 154.17391233668775 0.6142292580004632
1.9638274204708663 12.569434446972789 46.31606917912331 160.98532135494636 0.627112950049059
1.9758067448197292 12.530712418885283 43.110766450129205 168.14078591563373 0.6404679159848112
1.9871095088054758 12.490397234225977 40.1631161410398 175.67473256611706 0.6543756738328907
1.9977561773515675 12.44871615758445 37.459508976593035 183.6145143793665 0.668881548071285
2.0076913038726607 12.40544185011854 34.972546558246826 191.98426884423776 0.6839973531207115
2.016920804844175 12.360722278440281 32.68299332798134 200.79945421690687 0.6997266356557098
2.025427264452989 12.3145116788586 30.577117718739146 210.10892276029145 0.7161734674461814
2.0331699685370044 12.266711808452207 28.64017461565257 219.9394419616975 0.7333413334156923
2.0401770080499744 12.217367953274778 26.851699717987312 230.3193138022636 0.7512638529874964
2.0464118698943548 12.16669988598733 25.208768353532726 241.30631107029396 0.7700531221367898
2.051864939550851 12.114454893837998 23.693105552617688 252.91606651170295 0.7896549958240919
2.0565141095247177 12.060637351537492 22.29266498407731 265.2238877637679 0.8102411688161782
2.0603530026036814 12.00535835362957 21.001360300534415 278.2523798044888 0.8317744223569945
2.0633783096647758 11.948661744152536 19.81104989095241 292.0819642944143 0.85439925307278
2.065580192461738 11.890543970875704 18.71315640166755 306.7493839336859 0.8781255281794947
2.066949022191305 11.83095582394933 17.698574096813683 322.33499606262444 0.903062225871947
2.0674569898724875 11.7699564154435 16.762205694764454 338.9105620098655 0.9293111780072976
