M[M_sun], R[km], Lambda[1], P_c[MeV/fm^3], rho_c[fm^-3]
0.23841724892012095 16.20908015294055 2780876.1263280716 3.453507347168396 0.169602847481901
0.24842664663474937 15.865913450136155 2281691.201671776 3.6357976314288365 0.17198163434157704
0.2587241472446834 15.562104136730015 1880661.3549659934 3.8252785781217007 0.1743811791733991
0.26930132680388674 15.292716426871806 1557069.3508868844 4.0210910535075195 0.17677657328443114
0.2801720669020271 15.0526606941405 1294292.8718967505 4.223506667212453 0.17915836609004104
0.29131599949530296 14.838531208642326 1080001.403668603 4.433916241070854 0.18156395519379132
0.3027552319665741 14.647057563271332 904341.5733845893 4.652668147403232 0.18399714497649278
0.3144747311919078 14.475525725677894 759791.9128991646 4.880130249440614 0.18645957523190435
0.32647722527982076 14.321733251204456 640458.5860218421 5.113722540930378 0.18889363252480224
0.3387673066047305 14.183378741358986 541440.5799355314 5.356442001655952 0.19134739984226004
0.35133914008336636 14.059260511533903 459047.55982447456 5.608877470147232 0.19383121772475845
0.3641907326585007 13.947396685814102 390258.6489268213 5.871442763263321 0.19635055638384974
0.3773380511889496 13.846702788044341 332584.1934862748 6.141219469769679 0.1988487355759155
0.39076604637014156 13.756118704861178 284125.4810952278 6.421273689777262 0.20137386712712502
0.404474533051839 13.67456238143997 243309.95752954305 6.7125881439244015 0.2039333787703374
0.4184688000602264 13.601222637708721 208811.64510594978 7.015524356248347 0.2065233378848014
0.4327494220556211 13.53521309464812 179580.45581266083 7.32619794099546 0.20908579388623696
0.44731312303089804 13.47593518421751 154755.27912473775 7.649441216058896 0.21169266873986178
0.46216677995900735 13.422720829561328 133613.84676199188 7.985789092662188 0.2143438876229211
0.47730020628429887 13.375258872101544 115584.62726289484 8.333686103492619 0.21700747565865408
0.49271664045478303 13.332569692082048 100158.94007584717 8.692355056631554 0.21966286375785188
0.5084130575434731 13.294568240313374 86944.52673251023 9.065656999058834 0.2223666333379947
0.5243878037294443 13.260710365350091 75597.47393837811 9.454199804201224 0.2251213614666163
0.5406485579234764 13.230690717631493 65831.49903033643 9.853078170544903 0.22785660007893357
0.5571879128785795 13.204346607271592 57420.84432514081 10.26746629267796 0.23063183957755237
0.5739992363545073 13.181081568585212 50158.503541014696 10.69881844533227 0.23345756165569453
0.5910948793764169 13.160848200056002 43876.203146889304 11.144783425202835 0.23629498252055797
0.6084513544320741 13.14306649101889 38431.45164661048 11.60495208796822 0.2391427145453991
0.6260937872741097 13.127915252313203 33709.42864190095 12.084014445057413 0.24204981452847046
0.6439923745294177 13.114932485091614 29606.35820877516 12.58241451314289 0.24501332499031275
0.662167468095679 13.104007319766831 26033.741401309955 13.093625814134544 0.24794734126582937
0.6805965581490933 13.09493726515907 22922.3245199432 13.625850294689862 0.250939991951707
0.6992816602452931 13.08754333936107 20206.925792830778 14.179998805604964 0.25399342265563346
0.7182365797951853 13.081698716579902 17832.04698692518 14.75099817213559 0.2570525045130956
0.7374313474722577 13.077303898187749 15755.402660091786 15.342613328513751 0.2601506922576009
0.756874066924419 13.074099893312951 13935.805329723478 15.958555651067705 0.2633144351149233
0.776556926301508 13.071946650284561 12338.647724842407 16.597018549470132 0.26651411325218294
0.7964752234649471 13.070864946109912 10936.84380337276 17.254951720529732 0.26971680672291026
0.8166434360430571 13.070796036105264 9704.343925863977 17.94001957823348 0.272991885592612
0.8370226355038314 13.071421855831888 8619.458683809738 18.653259939351468 0.2763406398110763
0.8576170338628987 13.07267542232763 7662.823858404279 19.38647847731875 0.27968480368693865
0.8784259881778518 13.074575097682327 6819.587952003852 20.14885066440879 0.2830907488723898
0.8994487189405336 13.076940855793554 6074.009368584671 20.942614404127642 0.28656976995187733
0.9206720835978732 13.079902875554714 5415.767059076107 21.764030333018685 0.2900844820343595
0.9420773733267063 13.083033972579647 4832.901167826177 22.613124699630475 0.2936336566327906
0.9636709838464613 13.086534750342908 4316.813640867191 23.497165829622876 0.2972664706719415
0.9854353672475171 13.090174720677217 3859.230350426668 24.41747027906399 0.30098301056927307
1.0073691182223692 13.094036911129106 3453.1559559227708 25.36500007172873 0.3046962903209694
1.029458931115686 13.097903356709562 3092.4243773985363 26.3504610304658 0.3084885246078754
1.0516905001586203 13.101729000853393 2771.6827023788974 27.376434821192277 0.3123697037160938
1.0740552600211912 13.10557697050415 2486.3679883908926 28.441544141044673 0.31632235594653413
1.0965504331750024 13.109276582375175 2232.269400511637 29.541296665336848 0.3203085262489019
1.1191410382921598 13.112783106020967 2005.845722199033 30.67527732606796 0.3243132962036661
1.1418690757879444 13.11604812784377 1803.655171344772 31.85354896176913 0.3283938844487753
1.1646949277931564 13.119244634736699 1623.2167724749909 33.10433087710992 0.33272559016610564
1.1773087457494609 13.115429939643686 1526.3116103299863 34.88209916327778 1.249731419767791
1.1690866513289397 13.092699123277914 1560.9424556498025 37.33538930583193 2.626706942045902
1.1513942224901363 13.059523778451714 1657.1410453758322 41.97529210350591 3.904653533793634
1.129075794763368 13.01731812131766 1788.9233732705195 47.985823860406725 4.852264819612999
1.1020400447535164 12.96166279577912 1960.5406717768872 55.23971492898152 5.358255977226657
1.0707118003799394 12.88919038257671 2174.443654411895 63.04221874703592 5.390878967191222
1.0369246585794636 12.799906336147867 2421.975748643162 70.97025821645553 5.420668587955514
1.002263547585083 12.695532507454429 2693.2655627627882 79.223196237447 5.451239361625948
0.9676229515445205 12.576839450353857 2978.7367708881047 87.7863560923347 5.482890751864354
0.9335325218157081 12.443979234577975 3268.943237380024 96.6556842495812 5.515600782324263
0.9005074500870023 12.297415601182136 3551.174123291039 105.7936882531657 5.549220306985921
0.8688884061765091 12.137222310201537 3810.443777126936 115.1187147913103 5.583432037717793
0.8389844471869089 11.96366421322113 4030.0196805159903 124.79010295664503 5.618831764233742
0.8111225607902812 11.777262240046408 4192.316553544782 134.81003846509594 5.655419382194334
0.7854857800704738 11.578757076674682 4282.789622084571 145.18426893814242 5.693207730139979
0.762351548635006 11.369555950633108 4289.206391312351 155.9207519633419 5.732217439345597
0.7417110002256524 11.150357623266752 4208.62157864743 167.0295219691704 5.772476393076953
0.7237852681892529 10.92379219085392 4041.57031364588 178.4768738799422 5.813845950578644
0.7085995491168042 10.69186866579638 3799.136170174245 190.28806953076335 5.856406149890425
0.6960563826490749 10.456479852251716 3497.986012551613 202.52476803010066 5.900370267549039
0.686138082555569 10.220500642019122 3158.0723690035106 215.20174659430816 5.945789338670094
0.6787412581357831 9.986215086358515 2800.002986166899 228.33505991534938 5.992712804296111
0.6737129631214905 9.75606441648602 2442.9900046560238 241.94247367814077 6.041193142893483
0.6709022104633929 9.531851155944198 2102.178146003443 256.0431368987017 6.091275261168414
0.6701200615898633 9.315457635074951 1788.476232281472 270.6586300869412 6.14302042804272
0.6711767173713189 9.10782916500657 1507.5425106645575 285.8115691408791 6.196508072617854
0.6739069673714795 8.910153278901333 1261.9568865294484 301.52629523835077 6.251804836555122
0.6781044845349318 8.722887601283974 1051.6077323813863 317.82936383840837 6.308979483762132
0.6836032139835545 8.546192375255892 873.5198931110608 334.7491643595453 6.3681255700296475
0.6902377468140576 8.380344721396003 725.2682173080102 352.31581561399213 6.429328340580571
0.6978450529760475 8.224555572992633 602.0231668536045 370.5622086504759 6.492676241787188
0.7063210160001304 8.07885094180942 500.43548133271594 389.5229803961685 6.558282994871246
0.7154974746217326 7.942700993594673 416.9596755591199 409.2355126458407 6.626246483176699
0.7252773879850615 7.815636028609548 348.5536004041132 429.7402090170123 6.696696258278203
0.7355504217915545 7.696934094195029 292.38454561551765 451.0795440834164 6.769736905853242
0.7462168251624222 7.586097729370748 246.22511162400818 473.29999212042424 6.845531514886677
0.7572033959734641 7.48251316720889 208.27110063419144 496.38345176988975 6.923926120266429
0.7684187576715921 7.385535561450752 176.93436171098384 520.4316430557802 7.005299100217835
0.7797979373839492 7.294644771048787 151.010259680268 545.5115680112809 7.089826450490026
0.7912888430408263 7.209398063596019 129.48022526906442 571.6835118900754 7.177695023056728
0.8028139135194153 7.1292120101676115 111.50698834899607 599.0130132823655 7.269091346341203
0.8143336505851748 7.053689123988853 96.25774466121737 627.4650388755632 7.363808456591148
0.8258026170332601 6.982431407264148 83.78693489179948 657.1971782188302 7.462379071916879
0.8371654680897461 6.915003845221588 72.99281707377072 688.3032116739795 7.565083609522285
0.8483907021549018 6.850995796346436 64.04349213366457 720.7964373274965 7.671884308513394
0.8594330392681319 6.790154564032205 56.33143468733569 754.7652409892462 7.78302914299759
0.8702802883936375 6.732131681564359 49.726904344078996 790.3780429088317 7.899056465022174
0.8808847000909854 6.676676582393585 43.99272754856863 827.6022907877685 8.019736340704744
0.8912235189446975 6.6235359441356 39.12755951930558 866.6576096232235 8.145780629187497
0.9012585046401388 6.572473283380321 34.9681742848179 907.5871693160179 8.277234020181634
0.9109884757848951 6.523236053146413 31.29696923410301 950.5489499159352 8.414554088040406
0.9203815731204565 6.475631590477862 28.103557352957917 995.6377822750699 8.557935360190642
0.9294061907980249 6.429552629959541 25.31822985724402 1043.0492255407194 8.7079836201354
0.9380469729117533 6.384751725693812 22.881512997620387 1092.8408942072754 8.864702763771481
0.946292656157761 6.341141458103762 20.731366975381654 1145.2797987696204 9.028923234094899
0.9541249317030376 6.298543405977475 18.84378277491474 1200.482745355465 9.200869843564396
0.9615471824933401 6.256856837342805 17.165816516761783 1258.6308393868528 9.380982533796008
0.9685129607340682 6.215910475508587 15.682118905533146 1319.9789380848913 9.569979416033933
0.9750242083788859 6.175674336826995 14.36588310274293 1384.7434558707944 9.768382658857325
0.9810608816794164 6.135993519096815 13.18332084602413 1453.1596767814551 9.97676053731934
0.9866271365111725 6.0968212214516155 12.13848703030256 1525.4642712465209 10.1956468055497
0.9917104755215551 6.058091085592272 11.211681559481994 1601.9894226049012 10.42592913479072
0.9962805805502916 6.019682750531255 10.375440358588737 1683.052108715423 10.668377183694174
1.0003609496696475 5.98158326073303 9.614898067455169 1769.0014772091183 10.923837181724888
1.0039041403910318 5.943692360048497 8.941506637794111 1860.2216560163854 11.193233904555319
1.0069364100876788 5.905927835697833 8.339674132139352 1957.1358066300172 11.47757651761184
1.0094547915986019 5.868331635692337 7.785574865673272 2060.1718657423885 11.777810700966288
1.0114403096248685 5.830836652892571 7.291271798381255 2169.8694774525393 12.095281668797828
1.0128823605653015 5.79338549810312 6.844511603285931 2286.798209778582 12.43133313910076
1.0137870672180103 5.755953539186567 6.441420636963248 2411.5843337522565 12.787437483810967
