M[M_sun], R[km], Lambda[1], P_c[MeV/fm^3], rho_c[fm^-3]
0.23841724892012095 16.20908015294055 2780876.1263280716 3.453507347168396 0.169602847481901
0.24842017257020005 15.866077078014541 2281900.3258817787 3.635650561763909 0.171979763559817
0.2587062929488725 15.562625766756621 1881299.7206784927 3.824976037430707 0.17437747816207116
0.26927692173101725 15.293168903466363 1557669.4459369925 4.020603603748019 0.17677061026148772
0.28013615492772354 15.05338451877068 1294972.3228520856 4.22283911706685 0.17915056012676872
0.2912730882259662 14.839411228787927 1080764.1682080992 4.433059367432579 0.18155431363462746
0.3026994537292778 14.648017950003064 905102.3441867299 4.651612241457103 0.18398570896220684
0.31440870363443735 14.47643425559556 760582.737253042 4.87886520681349 0.18644639334900598
0.32639921486018986 14.322672982154879 641190.491340736 5.11217452108253 0.18887750198823283
0.33867737259450953 14.18442401458278 542104.6558631246 5.3546555587934686 0.19132957451527052
0.3512369966875915 14.06017776085428 459676.4678443773 5.606841389526399 0.19381164886373856
0.36407668769463203 13.94834116515774 390825.8075458492 5.869145011881117 0.19632927880667897
0.3772108214425583 13.847650290232206 333104.6958009294 6.138540457207633 0.1988239274539525
0.3906242956679702 13.757076362709439 284601.30235204054 6.418298404884125 0.20134734864251688
0.4043174001120107 13.675442950875015 243728.20295463226 6.709303232625285 0.20390529435647983
0.4182993031168414 13.602009653489949 206598.34438808064 7.011765722187731 0.20649120336886306
0.43256576877980596 13.536076047928798 179930.38682685222 7.322090670663089 0.20905193635787894
0.44711432191848716 13.476672622418132 155063.0973712651 7.644969201635699 0.21165711394318715
0.46195117037156036 13.423501919086135 133893.9600788147 7.980935597098778 0.21430672802593773
0.4770665651888945 13.37578297257903 115838.02997600532 8.328223146563667 0.21696564987038144
0.49246482684757337 13.33318033946948 100387.4337805683 8.686464402346505 0.2196195250742558
0.5081452708785947 13.295106699780089 87151.36251506403 9.059319505894742 0.22232162667609714
0.5241107190943718 13.261324201985191 75779.13031242462 9.447394566523334 0.22507469573983552
0.5403478621621006 13.231267360306875 65998.83910589608 9.84550168067677 0.22780464562519093
0.5568620733947056 13.204716429819712 57571.3602500385 10.259365904252284 0.23057831053018357
0.5736622983666659 13.181488098836736 50291.591913437376 10.690170821418802 0.2334025417558569
0.590736670749874 13.161197987352848 43996.57805895292 11.135210645679011 0.236234076383122
0.608081038660227 13.14355279813034 38541.29175205261 11.594767422907953 0.23908008381262946
0.6256944078188015 13.128180651169508 33806.78763205953 12.073188794687109 0.24198544469751943
0.6435749691560856 13.115212523041007 29698.417914158206 12.570485116392188 0.24494239223099357
0.6617319757836854 13.10430071849047 25910.24732791522 13.080979894237624 0.24787480805365236
0.6801405561671797 13.095135197923627 22992.421217815583 13.612455202363025 0.25086585954517776
0.6987961734842855 13.08767146471451 20271.25463467363 14.165818978281393 0.2539174554040916
0.7177291888602275 13.081838545090015 17890.87757865976 14.735454574106607 0.25696923097284796
0.7369072381633482 13.077404415239714 15808.317390118375 15.32619134936819 0.2600654867000093
0.7563269801170183 13.074145246801802 13982.626498304731 15.941213073858652 0.2632275222100726
0.7759888632820515 13.072008724248215 12381.904910366698 16.578062158362517 0.26641911266508517
0.7958881586271159 13.070914905854822 10975.3729766692 17.234967050300863 0.2696199391400997
0.8160191658305683 13.070709416998863 9739.388343285587 17.91895572204117 0.2728928714019234
0.8363808887060916 13.071336725358957 8651.042864514762 18.631061748278256 0.2762393952504814
0.8569504530952002 13.072588089657796 7691.864400348273 19.3623000608813 0.27957452744235567
0.8777538313753321 13.074553686133362 6845.287545586986 20.123402708234174 0.2829784570887497
0.8987408140031495 13.07686523736937 6097.812059591547 20.91583386051248 0.28645518013579385
0.9199407622925819 13.079770117481978 5405.34115082937 21.734915301001333 0.2899599033024235
0.9413159616980731 13.082927943674827 4852.489623290404 22.582515442569157 0.2935063822302957
0.9628890047826046 13.086441081880464 4334.520469614206 23.464982917870824 0.29713636101456536
0.984639563894989 13.090102348847209 3875.077721395666 24.383603529216167 0.3008501770272874
1.0065444757335094 13.093896527579286 3467.5334859125082 25.32830133392129 0.3045524714341459
1.028600446875402 13.097726525026882 3105.538836897708 26.311905543311607 0.308341611141206
1.0508123067504005 13.101565814462123 2783.5210665216846 27.335921885502632 0.31221935901191117
1.0731579340451198 13.105379354915911 2497.0516144711373 28.397659423031282 0.3161594984582888
1.095615069622252 13.109066138167426 2230.9860493959723 29.49520834816244 0.320141859463138
1.1182047042746375 13.112611904412795 2014.6857217581883 30.637851599791034 0.32421303710138244
1.140895985663083 13.115917233139234 1811.8433503687547 31.827446037748715 0.3283746225437731
1.1636740539764898 13.11899445284005 1630.7420395183879 33.05955190706654 0.33259483089898434
1.1865210562059092 13.121662457084096 1468.9059172952072 34.33634752354601 0.336881659558082
1.2094292601464673 13.12389110509167 1324.1713654614928 35.66573844474108 0.3412743786328204
1.2324050492145484 13.125820841723693 1194.6290152435774 37.04974854593276 0.3457714025854648
1.255416202773778 13.127316310099031 1078.587185798792 38.48606116473791 0.35033832068142584
1.2784428735615836 13.12818084209499 974.5855277852384 39.97412797639067 0.3549762691171963
1.301469106648166 13.12851853330927 881.3464244063847 41.52378077071085 0.35973168309294745
1.3245088908289595 13.128308894307686 797.5799426349756 43.13748808261598 0.36460668391090534
1.3475209189386907 13.127415631405603 722.3368752111662 44.817845856401306 0.3696026474475173
1.3704859827141145 13.125851590008313 654.7376599889207 46.55877214720698 0.3746620772724418
1.3934140335057819 13.123587908898884 593.876157043993 48.369948468365095 0.37984156912914907
1.416251564264806 13.120508290348244 539.1095882110747 50.25676600326553 0.3851567842181739
1.4390077948021005 13.116631042980117 489.7318903530516 52.222430916781725 0.3906104698497106
1.4616863151484063 13.112111679664011 445.2656578654965 54.2703391800397 0.3962038150466126
1.4842214633366166 13.106594996018863 405.112335018135 56.400964481825085 0.40191666993510755
1.506605287172981 13.100129620441457 368.87627720643457 58.61518274284508 0.4077543726857205
1.5288618785911416 13.09283610215022 336.118493481415 60.92355679494316 0.4137533040721505
1.550928080166043 13.084600511619701 306.5251926634781 63.33035889971339 0.419916424217386
1.5727995060972564 13.075286094439308 279.758751477195 65.8401247066095 0.4262443451047164
1.594442362812802 13.06494308487028 255.52978903809455 68.4577445367356 0.4327436200840189
1.6158606217102112 13.053570881101923 233.5693202255014 71.18830454294316 0.43942866983381845
1.6370447735076963 13.041198124224616 213.67041659538577 74.0372716853799 0.44630642534280146
1.6579469278870949 13.027675299620224 195.60541877371486 77.0101598084426 0.45337874531179123
1.6785504136141511 13.012897838048971 179.21865658990353 80.109336679883 0.46063202675614817
1.6988375558628739 12.99704716232489 164.33629096396066 83.34635812423546 0.4681080896180518
1.7188055388010735 12.980054830114247 150.81736380959842 86.72833524278838 0.4758169404246386
1.738417192439221 12.961842332680492 138.51783605020208 90.26283208859995 0.4837630678609809
1.7576481176821865 12.94222676324353 127.31820624980818 93.95794746368367 0.49195439069468844
1.7765094827111023 12.921619141492727 117.14062591400418 97.82239383325565 0.5004107762838903
1.794925020595546 12.899422038241035 107.84656650183534 101.86547017971327 0.509147779371632
1.812932213888009 12.876172613001286 99.38392875832311 106.09711664631148 0.5181722346837877
1.83045849681619 12.851425148003251 91.67686175115584 110.52800974290102 0.5274974288738483
1.8475551080877215 12.825475854790371 84.61137427347305 115.16963444049243 0.5371475949694065
1.8641326152083804 12.798038968428415 78.16886829330888 120.03431658483476 0.5471421039404001
1.8801955780247581 12.76922946768935 72.28163860167813 125.12934019835922 0.5574671248330897
1.895739573658418 12.739074675868322 66.90022563883716 130.4731085753767 0.5681631271885873
1.910712068514442 12.707489208351493 61.976405598505664 136.08131184980274 0.5792604298104406
1.9251349796750252 12.674456477471601 57.460163722731046 141.97037484692046 0.5907769075808795
1.9389373830174328 12.639901770279218 53.331492753674034 148.15800486901287 0.6027321748759535
1.9521588602248823 12.603988530235988 49.54264861562234 154.6632771381832 0.6151617713901655
1.9647386996531386 12.566608729292621 46.06846093544668 161.4764888393316 0.6279965412420703
1.9741656777869812 12.531862073762326 43.39097984907151 169.73036345176723 1.7353452570475816
