M[M_sun], R[km], Lambda[1], P_c[MeV/fm^3], rho_c[fm^-3]
0.23841724892012095 16.20908015294055 2780876.1263280716 3.453507347168396 0.169602847481901
0.24840479568748938 15.866557963704805 2282436.655859837 3.635395888309081 0.1719765240171534
0.25867714919489526 15.5634236969908 1882192.723948151 3.8244521823228004 0.1743710697887638
0.269230536904366 15.29432358497308 1558996.540815578 4.01975964350694 0.1767602860092283
0.2800749778898795 15.054684544096002 1296346.4954397087 4.221683420281636 0.17913704604588845
0.29119295226628694 14.84074961581922 1082104.6273936168 4.431576010571152 0.1815376228738178
0.3026024340733519 14.64948769070927 906445.5325770522 4.649784461777297 0.18396591315121968
0.31429085945645074 14.47807418482961 761872.5488443839 4.876642086525145 0.18642290001354195
0.3262650394988915 14.324237373507904 642379.7781255055 5.109495293226118 0.1888495841401667
0.3385219685583621 14.186041917777663 543232.5052686991 5.351563884597179 0.1912987254438273
0.3510581315503045 14.061736257788004 460681.5088193952 5.603317909642059 0.19377778454252378
0.3638808312201244 13.95006792525591 391771.3704454541 5.865168953175764 0.1962924598119897
0.37698767022583013 13.849256407933744 333972.3933998841 6.133905053070889 0.19878100280596792
0.3903803210266045 13.758646717479701 285407.7685811109 6.413150683170718 0.20130146739620708
0.40404879165527935 13.676945555458685 244460.85878469364 6.7036201437127785 0.20385670667587757
0.41800578747864736 13.603478173885803 207248.05868537654 7.005263630955198 0.2064356136117931
0.43224422782255734 13.53742480874355 180529.4302619951 7.314985880033393 0.208993369321683
0.44676743405002217 13.478019040434292 155607.18220290655 7.637233909966874 0.21159561442720223
0.46157734216525004 13.424741409155054 134382.09895852854 7.97254091722404 0.21424245622082855
0.47665683912563356 13.376949895311094 116282.20496099527 8.318775172815672 0.21689331377937274
0.4920352346502545 13.334358417847673 100787.37662813303 8.676277291557685 0.21954457652866632
0.507685076875144 13.296261335692064 87511.6066712658 9.048360225254287 0.22224379769456554
0.5236151558076398 13.262302997029556 76106.46634445571 9.435627037668397 0.2249940019694748
0.5398251273990935 13.232218147692333 66291.90239905086 9.83240170153693 0.2277148148101174
0.5563121895291987 13.205679375392354 57834.19559973807 10.24536080215676 0.23048576190978654
0.5730776095929107 13.182293186002028 50527.79924626842 10.675220329184231 0.23330742029896884
0.5901143503661926 13.16180404507874 44205.15292150318 11.118662229758488 0.2361287882490022
0.6074274382082313 13.144061043246126 38731.246210876605 11.577162108476646 0.23897181969820372
0.6250044907195609 13.128773172210805 33979.82900807732 12.054476375324136 0.24187417976378545
0.6428543399242921 13.115687499819217 29849.287253332932 12.549866801354138 0.24481979475111051
0.6609570391803641 13.104686161287319 26048.544994764106 13.059124212949373 0.2477494504061996
0.6793399427588215 13.095510323323158 23120.376708058 13.589305834598356 0.2507377440906402
0.6979613541782688 13.087979645169572 20384.238403664192 14.141314578770452 0.2537861751113876
0.7168581082109022 13.082056675428005 17992.799562499386 14.70859602633627 0.256825338525644
0.7359930570315837 13.07757178940749 15900.651981608655 15.297816318233549 0.2599182626457053
0.755377640854438 13.074295321884566 14066.290541124125 15.911248747951383 0.2630773549901087
0.7749987410693595 13.07211366070819 12457.636965954667 16.545312755702557 0.2662549879399655
0.794863743573912 13.070981639205213 11043.590738302688 17.20044274635876 0.2694525965803882
0.8149593716828742 13.070707796799606 9800.453045524408 17.882568733228464 0.27272182825502805
0.8352749435893713 13.0712982491288 8706.40215976906 18.59159863827389 0.27605474230367655
0.8558040664392941 13.072568647655112 7742.251084666634 19.320538932750054 0.2793840575498473
0.876557014308223 13.074418773478804 6891.007211049238 20.079450810327728 0.2827845147156799
0.8975094812139552 13.076751574520504 6138.807596684869 20.8695825008283 0.28625727770050424
0.9186686411178087 13.079632195401032 5474.452179865531 21.684637402616424 0.28974477192899883
0.9400108287369444 13.082753712402516 4886.114994252833 22.52965960334928 0.2932866057312581
0.9615317846365933 13.086142469813542 4364.908840212038 23.409412234035603 0.29691169884944923
0.9832319884187091 13.08986769468922 3903.0629477758202 24.32328945829696 0.30060633821112565
1.0051108505991022 13.093642822643371 3492.605866227573 25.264942785165204 0.3043041752665592
1.0271321403571838 13.097502061504661 3128.3171778339124 26.245344468300953 0.30808798399246967
1.0492968604909236 13.101281362971216 2804.2230123945465 27.265984772315303 0.3119598203136029
1.0716083521322364 13.105221728365754 2516.0663454244623 28.321909957276553 0.31587838994746326
1.0940309023042256 13.108861921875672 2259.272594678103 29.415658990074796 0.31985418925439774
1.1165602807170392 13.112326304133648 2030.3087835980893 30.554297513967036 0.32391951383176
1.1392236557966868 13.11567103020151 1825.9552934807912 31.739670013194534 0.3280739721520856
1.1619625504254438 13.118769509764553 1643.6227175567958 32.964636396388165 0.3322697263432972
1.1847625604800802 13.12141949597449 1480.6649554564663 34.236670954986934 0.3365483903492224
1.2076494130820794 13.123741996447983 1334.8304930413187 35.56102839815981 0.34093243584444255
1.230575028212258 13.125661755404588 1204.3708650526714 36.939723355791685 0.3454215650742656
1.2535557316467787 13.127195279265361 1087.5106271181396 38.367235387071965 0.3499605007088208
1.2765482222752074 13.12813019527857 982.7332875336015 39.84930219895155 0.35458823381815197
1.2995503736205298 13.128503435362 888.7501976106107 41.39260306837184 0.35933271059230815
1.322549644123318 13.128341688173913 804.3669911138255 42.999583508842896 0.36419615061394506
1.3455445702983773 13.12754848502569 728.5011564910418 44.67138710492384 0.3691730054302217
1.3684798017746953 13.126009661036964 660.3584490333177 46.40235695470777 0.374207507946801
1.391377001938618 13.123790507514979 599.0350572891599 48.20547080716442 0.3793731007885483
1.4142084906886156 13.120866318670519 543.8028709797039 50.08373730855498 0.38467353118919645
1.436931528834546 13.117071689889329 494.07341538422617 52.0403313793017 0.3901117191607561
1.4595907409532556 13.112584589918606 449.19770219224034 54.0786229060626 0.39568976536735817
1.482089608380606 13.107076040873217 408.73933893441614 56.1943496616007 0.4013626727190014
1.504486904815788 13.1008435121168 372.1761520730944 58.397633063871716 0.40718147027554313
1.5267129087421567 13.093637602119507 339.16756438928405 60.694388797919764 0.4131602895059666
1.5487415101059798 13.085356443448788 309.3277344826167 63.0888446521664 0.41930242880204155
1.57062351509757 13.076252759662523 282.3142267765416 65.58549438041794 0.4256089956339967
1.5922623035739274 13.066040685157873 257.8744843461201 68.18917109081043 0.4320841599958697
1.613684834587691 13.054831977815654 235.71583388893214 70.90489343966014 0.4387435651608611
1.6348490603552301 13.042445654387906 215.63028504776352 73.73686546739921 0.44558944116011956
1.6557438618556424 13.029125811255206 197.44019914173072 76.68793593891054 0.45261219433084515
1.6763604353468893 13.014510862863077 180.89074284992546 79.76904389908702 0.45983568324047847
1.6966574632701383 12.998874994852484 165.88998409234762 82.98681489679005 0.46727866114053584
1.716633735779528 12.981961879644356 152.237828217656 86.3482646245433 0.47495228878498
1.7362464016620964 12.96387029282074 139.82951869288573 89.86086828457228 0.4828617753815598
1.755503072066617 12.9445634686612 128.53497136920066 93.5326302481577 0.4910144227432056
1.7743824521339506 12.923995106586277 118.24686242353573 97.37214756917845 0.49942836400379315
1.7928277571772075 12.902051367257764 108.8692475526577 101.37347118567698 0.508059172531886
1.8108439687852746 12.87887614075167 100.33250784457627 105.59826686635849 0.5205137052159134
1.8270365477424355 12.854590237235188 93.00154579826498 110.13173783353163 0.6774776640533613
1.8400495683922649 12.82761577177483 87.00823672399471 115.09772788737718 0.8324955282810594
1.8501318924945431 12.796749910764337 82.00747597022954 120.53049565013171 0.9834795065188423
1.8576384239540207 12.76176249694626 77.74379975740234 126.4463213335787 1.1322445941472434
1.862805585509381 12.722223320378129 74.04381914235181 132.86590179994883 1.2765595437174273
1.865996755767295 12.678546952657321 70.78045833613866 139.8040106911801 1.4191724000610895
1.8674027281025525 12.630489033026914 67.84200088915948 147.27990352517864 1.559478474520995
