M[M_sun], R[km], Lambda[1], P_c[MeV/fm^3], rho_c[fm^-3]
0.23841724892012095 16.20908015294055 2780876.1263280716 3.453507347168396 0.169602847481901
0.2484107831398649 15.866440054657282 2282415.347679237 3.6354870378555395 0.17197768347385736
0.25868667771896814 15.563215897566279 1881999.2043828305 3.8246396681769834 0.17437336332246292
0.2692479123018623 15.293866856171537 1558457.7431852757 4.0200616838515675 0.17676398089976778
0.28009669176260005 15.054247345622155 1295859.5296590156 4.222097013873632 0.17914188238127096
0.2912208832471566 14.840248452392627 1081583.055758812 4.432106849619736 0.18154359588531543
0.3026378289221998 14.648916654350773 905903.5072295858 4.650438538580033 0.18397299714547846
0.3143327689556347 14.47751203086214 761400.5236439283 4.877459109586071 0.1864317416617046
0.3263129668142211 14.323692252871144 641960.730670078 5.110454004634336 0.188859574018172
0.33857755991133087 14.18539080359805 542818.2682203423 5.352670152599037 0.191309763909868
0.3511220141199069 14.061184052148036 460345.88507392356 5.604578654261799 0.19378990161489942
0.36395282794320155 13.949383178882679 391418.55399755 5.866591599983218 0.19630563376869659
0.377067567616039 13.848691513336037 333666.10691928316 6.135563558466029 0.19879636085419128
0.39046516392959885 13.758039678361259 285115.16015530226 6.41499244563851 0.2013178828829279
0.40414567882954444 13.67637798532422 244201.04331887586 6.70565340197616 0.20387409005745122
0.4181116368562503 13.602992891940211 209617.76618255058 7.007589824090139 0.20645550144582137
0.4323613622604676 13.536925181962586 180313.05918017268 7.317527635757597 0.20901432181799984
0.44689491264080683 13.477555584829071 155412.41356521548 7.6400011653877575 0.21161761551989236
0.46170838813414505 13.4243083511647 132712.11289003227 7.975543997373284 0.21426544856657126
0.4768073244647605 13.376586867096616 116123.66527195572 8.32215493191919 0.21691919007503366
0.4921889206557057 13.333880384980988 100640.916426828 8.679921377144577 0.21957138677157062
0.5078476304068577 13.295784461617822 87376.759409333 9.052280443488335 0.2222716377145949
0.5237910425363119 13.261912116908933 75987.53114608214 9.43983628339082 0.22502286613559705
0.5400140771849886 13.231901556902981 66186.07066112659 9.837087391650433 0.2277469461102962
0.5565092415796757 13.20540474578588 57740.99866014745 10.250370138950965 0.23051886464664956
0.5732865191760097 13.181997031832486 50444.86148201186 10.680567703611231 0.2333414425932212
0.5903361780903555 13.161566016356648 44131.16061718134 11.124580913188133 0.2361664454566616
0.6076623540106907 13.143868815429826 38662.77010790536 11.58345867481481 0.23901054051635123
0.6252506597181384 13.128612585283177 33919.36237173437 12.061168767037556 0.2419139730425738
0.6431145702156831 13.115573246205958 29794.796604863688 12.557240540737345 0.2448636393554842
0.6612331278770863 13.104557677952657 26205.53573274672 13.066940320145394 0.24779428125806868
0.6796252052822335 13.095391714865038 23074.986532921106 13.59758443550004 0.2507835603188947
0.6982604833622006 13.087881487615151 20343.939849017865 14.150077594901216 0.2538331222451912
0.7171686938658614 13.082028951577142 17956.432171867913 14.718200529638302 0.25687679385733675
0.7363201587206479 13.07749554937139 15867.136110828611 15.307962918195743 0.2599709083530085
0.7557180980168401 13.074250872452376 14036.848878563052 15.921963461644252 0.2631310521356059
0.7753531215525427 13.072079273650422 12430.470723928305 16.5570228898503 0.26631367366831504
0.7952306115280092 13.070966423974962 11019.731411868644 17.21278729928832 0.26951243179355255
0.8153417255447316 13.070752380017344 9778.414091492352 17.895579069671204 0.27278298552469904
0.8356698252951441 13.071319202147404 8686.335036993516 18.60578374907849 0.2761214217973705
0.8562188577874995 13.072578413844841 7723.761446934349 19.335469923486414 0.2794521568643979
0.8769878028476149 13.074458931907683 6832.292738597806 20.095164784642364 0.2828538542803883
0.8979509966687518 13.076820594338331 6087.854902158845 20.88611828998245 0.2863280317921761
0.9191231070843521 13.079701323314291 5461.271552043293 21.702611997116545 0.2898216824468562
0.9404729315086459 13.082781063121946 4874.042317413658 22.548555476008374 0.29336517545601454
0.962016923783268 13.086223306449646 4354.04525656408 23.42927829066005 0.29699201370227346
0.9837363278550535 13.089897361937583 3892.7989906117964 24.344850297334634 0.3006935047609253
1.0056239350901477 13.093731853308844 3483.5950359102576 25.287591530311918 0.30439293355933866
1.027654359843517 13.0975173839118 3120.116218310897 26.26913757343546 0.3081786462513632
1.049856507785059 13.101542719773036 2796.9242931709528 27.290984213154033 0.31205259397894336
1.0721619385719066 13.105236801923379 2509.212494637212 28.348985846665308 0.3159788693748693
1.0945959970013683 13.108902415072698 2252.9920442385123 29.44409256823943 0.3199570121251598
1.1171592812357225 13.112472793892321 2024.6713821437181 30.584161937092386 0.32402442675175297
1.1398245747522886 13.115790570684062 1820.8796559202556 31.77104285531852 0.32818143039391
1.1625704807359998 13.11880853261567 1638.941269066323 32.99855946445659 0.3323859196176431
1.1853906124876372 13.121468624171861 1476.3833549746926 34.27229492905535 0.3366674993216303
1.2082862719929925 13.123823506445705 1331.0276808053243 35.598450557919186 0.3410546422427112
1.2312347010626792 13.125726679778772 1200.7802258138815 36.97904427943355 0.3455465903893528
1.2542165738828432 13.127224099361793 1084.2885336731106 38.40969945234081 0.35009551999749466
1.277237829924486 13.12819342469817 979.7680021890435 39.893909513329234 0.3547269007900645
1.3002395978553871 13.128482222036178 886.0448084927752 41.43947928284215 0.3594752829973301
1.3232496722660527 13.128268544770455 801.9019528725809 43.04886248910969 0.3643428510582179
1.3462548861889136 13.127527527380058 726.2963245262243 44.72455714882748 0.3693312893277464
1.3692010267694215 13.125932696740811 658.3213979668169 46.4582465327075 0.374369932628034
1.392104382575514 13.12370472951227 597.1841027653712 48.26423988939661 0.3795404879840554
1.4149405462104512 13.120775023945045 542.1099212172245 50.14556029555348 0.38484619703388445
1.437687794552877 13.116959131679565 492.5068174016985 52.10539381744412 0.39028991805295343
1.460326210759023 13.112327420769873 447.7811453860272 54.14711964525153 0.3958734259720612
1.4828659340346773 13.106953752145387 407.4239154851841 56.268165557007094 0.40156059560040513
1.5052497528582782 13.10057606708954 370.98023005789327 58.47535362657035 0.4073861421367039
1.5274755090651517 13.09331215590834 338.080272569226 60.77625794345916 0.4133721410579132
1.5495159452617506 13.085034129996378 308.3329849371228 63.17512215656901 0.41952176986654854
1.5713854522537287 13.075837449604874 281.3963571813905 65.67645495927266 0.4258359589988719
1.5930405702142163 13.065624288484743 257.02560778893553 68.28510986304084 0.4323197297893541
1.6144682168736177 13.054464876940722 234.95681230750267 71.00612959406217 0.4389882886796281
1.6356394176301823 13.042023796680017 214.92574483434393 73.84494264996084 0.4458488862691785
1.656533173535076 13.028544710435137 196.77502415219374 76.80302648681027 0.4528859877419859
1.677132322172038 13.013935762116429 180.30131273818418 79.89058455380686 0.46012010923403024
1.697434065859912 12.998117064546173 165.32226280874468 83.10164499676249 0.46752001881935523
1.7172313381668318 12.981496657960811 151.85339127815138 86.51437046580706 0.5420060475382675
1.7321368810729985 12.962176445450634 141.7496803674917 90.37088294690146 0.8078568336886129
1.7412311073932394 12.937466596077565 134.61151450938576 94.78929047816065 1.060874672964858
1.7457046250144492 12.90617750024522 129.3412529291344 99.7984594373583 1.29836435779483
1.7465237428393685 12.86822555964901 125.29936987614397 105.39715602774308 1.5239504763520884
