M[M_sun], R[km], Lambda[1], P_c[MeV/fm^3], rho_c[fm^-3]
0.23841724892012095 16.20908015294055 2780876.1263280716 3.453507347168396 0.169602847481901
0.24840056397487645 15.866735316371285 2282966.659132665 3.6352907251864943 0.17197518630246114
0.25866457976838353 15.56370532616999 1882696.055555868 3.8242358799674263 0.17436842373984762
0.26921279320899333 15.294699294316558 1559407.5388401002 4.019411193506552 0.17675602338460608
0.2800498015579394 15.055181399929918 1296836.0910476511 4.221206293691767 0.17913146679066502
0.2911622080920226 14.841283245296156 1082572.7783101993 4.430963649658735 0.18153073257669236
0.30256333755664455 14.650034499309065 906976.0989329992 4.649029962958761 0.18395774153394723
0.31424436699357644 14.478779648668132 762425.1277788876 4.875698785516507 0.18641268356969082
0.3262087294625404 14.324924704211055 642842.9574429195 5.10838946997354 0.18883806134061099
0.33845798764997875 14.186707693121638 543679.2018772155 5.350287903523715 0.19128599356174777
0.3509884792997091 14.06249833737687 461128.419788715 5.601863799040667 0.19376380902113477
0.3637978841464989 13.950599843970666 392177.3551833702 5.863528158703182 0.19627726576998755
0.3768976141364252 13.849925315291308 334329.2023108523 6.131992313011915 0.19876329050056898
0.3902770310414542 13.75926600855456 285738.87371756474 6.411026657255319 0.20128253611716396
0.4039386877283588 13.677603950473378 244759.23473748396 6.701275341664682 0.20383665974457973
0.4178850387757048 13.60418609971299 210138.16139028192 7.002581123433128 0.20641267946089348
0.43211174593354773 13.538056663605877 180781.70243358274 7.312054873617564 0.20896920810880656
0.44662831529054686 13.478559072605245 155820.3631634549 7.634042958196242 0.21157024473232494
0.46142065509488644 13.425299296108456 134594.27729433792 7.969078126891923 0.21421594421695456
0.47649438011144396 13.377476125668226 116462.45919499642 8.314878210866285 0.21686347764712396
0.4918568423195653 13.334742279458247 100946.23411691864 8.672075663975487 0.21951366434140124
0.5074939973145329 13.296697018301614 87659.89190987218 9.043840333612245 0.2222116990035406
0.5234126409995524 13.26267215776061 76233.89635003453 9.43058647354144 0.2249582349459517
0.5396099145350178 13.232553521305718 66412.49816616323 9.826999620820747 0.2276777709867153
0.55608419265845 13.20599480083176 57943.88101736986 10.239585736389166 0.2304475990769955
0.5728315890439662 13.182570089639523 50625.60235477436 10.669055703899907 0.23326819830353124
0.5898513611325468 13.162056477604722 44296.338964997965 11.111839290479509 0.2360853777770062
0.6071571397162452 13.144315197344651 38809.24585737296 11.569903727494713 0.23892718418815706
0.6247212880986993 13.128999005720205 34049.23281894513 12.046761888669138 0.2418283090599598
0.6425585271887538 13.116038678399738 29914.09644426276 12.5413673025567 0.24476925632782462
0.660647575711325 13.10490914528399 26313.138066698302 13.050115019728205 0.24769777636992693
0.6790188851698363 13.095835469663564 23173.31890599445 13.579763770428988 0.2506849354826163
0.6976171972847485 13.088087735274083 20431.70133064067 14.131214399397656 0.2537320642361617
0.7164959019941333 13.082171268158133 18035.041943896944 14.697526480470192 0.25676603434964285
0.7356163220574495 13.077588046510686 15938.440956561446 15.286122250354897 0.25985758788992325
0.7549843976947544 13.074347624096236 14101.533101341163 15.898900200014882 0.2630154698297365
0.7745935308494294 13.072165948560288 12488.687210448279 16.531817655219122 0.2661873567932144
0.7944390768276286 13.070984183200252 10998.2588937223 17.186216839371422 0.2693836422665382
0.8145209465250633 13.070777363702845 9826.364218735924 17.867575907045286 0.27265135195965706
0.8348177664912347 13.071333703338423 8729.934827454887 18.575252839937765 0.27597790613566275
0.8553345694536548 13.072550193980689 7763.108362099619 19.30333402187874 0.27930558702783514
0.8760643532782305 13.074307054605699 6909.506100794511 20.061344070855867 0.28270461682300635
0.8969987452853984 13.076660764827272 6156.180552617545 20.85052922872432 0.2861757516875316
0.9181450089271039 13.079541019886822 5489.55793445223 21.66392732886329 0.2896561567172784
0.9394698238162049 13.082674416735697 4900.032416009478 22.507888526882518 0.2931960808046508
0.9609748185674718 13.086059683813792 4377.6888992918175 23.386523858667722 0.296819165311777
0.9826558865376293 13.089682665071289 3914.261510326951 24.29844976173986 0.30050591583687714
1.0045215107557255 13.093517383543336 3502.9116055445816 25.238850322102998 0.3042019213685701
1.0265134441237576 13.097272421929327 3137.708820111037 26.21793426125809 0.30798353897475567
1.048678416986857 13.10127643822006 2812.801084440422 27.237185490517813 0.3118529453259278
1.0709669463461837 13.105065321458756 2523.832759424022 28.29072028580462 0.31576264415291205
1.093366851017005 13.10872572412398 2266.274642058427 29.38290610094053 0.31973574668389054
1.11589537554443 13.112233707835733 2036.705840277989 30.519897218995002 0.3237986665152393
1.1385263384406938 13.115581921493826 1831.91391040024 31.703533042955947 0.32795019582122753
1.1612468485439953 13.118601497897782 1648.936791158904 32.925564093763654 0.33213589591354314
1.1840507783233196 13.121458208408292 1485.6086182873134 34.195640542057184 0.33641120491583565
1.2069100803437682 13.123718075473517 1339.2977915428974 35.51792794487526 0.3407916863208041
1.2298384695450304 13.125680367852853 1208.4140069756834 36.894437140947204 0.3452775724424645
1.252783874254551 13.127098926464564 1091.1528107340328 38.318331981527145 0.3498050068108959
1.2757807806343486 13.128157684794528 986.0610485544474 39.79793182776189 0.3544285431055801
1.2987645572270332 13.12852848019953 891.7576144421503 41.338621184312935 0.3591685265359619
1.3217601811816604 13.128398092999532 807.1314374762107 42.94283612122491 0.36402721718777004
1.3447295634806435 13.127575958121957 731.0497183536393 44.61016256647073 0.3689907438058365
1.3676490981806257 13.126051799130174 662.6802126920898 46.33800263801009 0.374020483285859
1.3905256703463704 13.12386152876709 601.1853697820984 48.13780272120557 0.3791803672847438
1.413368068331491 13.12110958047672 545.7839946867892 50.012554875044245 0.3844747252821092
1.4360831186028513 13.11727887109132 495.8391239939286 51.96542121119261 0.38990654841473926
1.4587124450777236 13.112808570897933 450.8597769582346 53.9997609269312 0.3954783123997155
1.4812200752300193 13.107364693794114 410.22994963482313 56.109368879276786 0.4011348133777458
1.5036000294738803 13.101123075462626 373.5729888773307 58.30815971825272 0.40694584825305313
1.5258260889229898 13.093951806897971 340.43791039755763 60.60014243778892 0.41291640962267867
1.547873164527673 13.085811334248685 310.47760228514085 62.98952660564613 0.4190499351051115
1.569710020984218 13.076633913383317 283.38445420747814 65.48078881522784 0.42534773600157216
1.5913985429735298 13.06675125760286 258.85613988454145 68.0787387358623 0.43181300239770226
1.6127729697561712 13.055311508111455 236.61853805544638 70.78836737413428 0.4384618805299898
1.6339545219146259 13.043065279888305 216.36226207074296 73.6113746259362 0.44528608550148885
1.6548347442754543 13.029644688124737 198.18618965314997 76.5554764715649 0.45229708131709834
1.6754544216093143 13.015256325109956 181.5981493761843 79.6291659615035 0.4595083448575738
1.6957423319230505 12.999506295251534 166.52919330196755 82.83903407641077 0.4669377463033294
1.7157261511437054 12.982682975481461 152.8221017511494 86.1920574527379 0.4745969211750037
1.7353528027177374 12.964703481725817 140.36950229068995 89.69567493264981 0.4824913750513653
1.7546253207960727 12.945423526295523 129.03026145187494 93.35785224903341 0.49062815641820406
1.7734857086748848 12.924882702324133 118.70311635189861 97.1871392318461 0.49902468611234374
1.7919692214618168 12.903255089700101 109.30458695294008 101.19265607437141 0.507697910674407
1.8099978429539814 12.8800184079248 100.72005626855191 105.38416912234396 0.5166559782822444
1.827610067847814 12.855784787125616 92.89755998267526 109.77216530211642 0.5259103316154289
1.8446996635386304 12.82991534716102 85.75807882110341 114.36790511146202 0.5354833611098612
1.8613445138498723 12.80283264064505 79.22587499361742 119.1834711806885 0.5453955668469397
1.8774568990998017 12.774321437821229 73.26546796961416 124.23181625155145 0.5556562108911091
1.8930688444183548 12.744503477557338 67.80841279241902 129.5265368373627 0.5662844850166833
1.9081143661301923 12.713141948179507 62.80734600076884 135.07484420968265 0.577283012262049
1.9226056969994272 12.680434684262819 58.240981969781714 140.89966031311008 0.5886963425684604
1.936494870586554 12.646295651800564 54.052132964919174 147.01833977357524 0.6005399388545962
1.9497849074050555 12.610692934351215 50.21165656404491 153.44955538362214 0.6128489532552232
1.9624689053083257 12.573657427545868 46.68926530912359 160.21349290009127 0.6256556653981035
1.974498070268461 12.535059320438714 43.45322884543514 167.3272115732054 0.6389612071741094
1.9858813434780687 12.495075745817354 40.48334010313143 174.80665974726844 0.6527818377094404
1.9965863515274112 12.453595984952196 37.75507906638612 182.68775336395115 0.6671942762227168
2.0065850420745486 12.410515951106584 35.24543135929461 190.99791147023495 0.6822239289531853
2.0158834774000867 12.365998190779948 32.93997701936925 199.7516710322724 0.6978675364446913
2.0244550121091005 12.319989309440423 30.817116494351506 208.98808627978838 0.7142002436825179
2.0322921343532387 12.272417882260035 28.861480682236934 218.7482156979927 0.7312752996961281
2.0393773780840188 12.223405078250432 27.06013902852274 229.04560623172563 0.7490745505161294
2.045696372301254 12.172890416398308 25.400374479701547 239.94100979643233 0.7677236533878132
2.0512212476222764 12.120789628848351 23.869839687750922 251.463328594456 0.7872141917019269
2.0559843581773776 12.067362717810985 22.458895829081207 263.6644227006606 0.8076392441780675
2.059912711182014 12.012410302972068 21.15857337075248 276.6083045195401 0.85246166164138
2.0624625138182955 11.957534224915996 20.023912112887153 290.6274856568362 1.0716927951115534
2.0629870998545856 11.902324477824397 19.069531692523647 306.0266886243753 1.2905425759466103
