M[M_sun], R[km], Lambda[1], P_c[MeV/fm^3], rho_c[fm^-3]
0.23841724892012095 16.20908015294055 2780876.1263280716 3.453507347168396 0.169602847481901
0.2483773395952725 15.867440249624822 2283884.3272246732 3.634882427807604 0.17196999260538248
0.25861738946716434 15.565062991544591 1884240.5165093357 3.82339616489716 0.1743581514191985
0.2691410956051301 15.296402607241435 1561415.7691287603 4.018058603723944 0.17673947701495563
0.2799505253307935 15.05715897289374 1298979.865363286 4.219354390799655 0.17910981165950382
0.29103798609807735 14.843542228343233 1064031.1782000016 4.428587070686644 0.181503991262987
0.3024091234547098 14.65254258542385 909092.3585706172 4.646102005942306 0.1839260302263336
0.3140580566713009 14.4812379270017 764458.2905694188 4.87203853958256 0.1863730411896625
0.3259929139321396 14.32749960904189 644816.0134926136 5.10409896718009 0.1887933538310096
0.33820998126689944 14.189327432656073 545513.4597302143 5.345337617945253 0.19123659905774162
0.3507022724613802 14.06508757095594 462837.5347311033 5.596222904276704 0.19370959413173677
0.3634818615549085 13.953256503758164 393726.42244616593 5.85706370328005 0.19621654660296423
0.3765415618018277 13.85250991928607 335765.52355818835 6.124573664320327 0.19869459252425153
0.3898874711885086 13.761697597153642 287027.3719823588 6.402789165091237 0.20120911598530813
0.40350688904395693 13.680023506780682 245939.87117147335 6.692182312754793 0.20375891871480128
0.4174135416565784 13.606510314462254 211210.27644476155 6.992179644793469 0.20632375181437665
0.43160159628798533 13.540250249005071 181742.20321561964 7.300690671145491 0.20887552939366777
0.4460740108124977 13.48076167895074 156703.5751016462 7.621671777201779 0.21147188753056775
0.4608209558435526 13.42725888846431 135374.15847084313 7.955653986464107 0.21411316558212762
0.4758443950015206 13.379379597217422 117174.239059609 8.299772638721453 0.21674782554323888
0.4911676625139626 13.33665391812026 101592.69311756105 8.655790254009736 0.21939384942856047
0.5067533425061723 13.298306528845952 88239.7534358874 9.026322520993645 0.22208729361969315
0.5226220198093539 13.26422175912136 76758.27617603003 9.41103452839467 0.22481938386369013
0.5387762725037816 13.234001290430292 66876.48325961281 9.80606650787042 0.22753422582696503
0.5551960848100357 13.207313272329447 58364.44568192917 10.217208757230663 0.23029972735598644
0.5718922455131089 13.183813415258816 51006.0188869039 10.645170801248884 0.23311623228782097
0.5888678126947483 13.163342835003796 44639.555262529335 11.085406875524107 0.23591720339316793
0.6061067708185242 13.145329775548623 39119.34214385914 11.54178615118425 0.23875427477998215
0.6236155428849278 13.129911787698969 34328.51503010767 12.016879297310712 0.24165062575333862
0.6413925563937319 13.116667609240183 30164.03210182212 12.50844790265606 0.24457351601346658
0.6594329864162513 13.105547336984545 26537.819211500555 13.015223650435166 0.2474976499170704
0.6777302632220485 13.096266135036954 23377.178149304465 13.542810889219803 0.2504804272981719
0.6962822691710223 13.088654309291 20616.40210664067 14.091652413278307 0.2535178787758389
0.7151001735064755 13.08257646642445 18200.190537133523 14.654666088969156 0.256536413348763
0.734159004021784 13.077998615390976 16088.758678315999 15.240846433848773 0.2596226739884608
0.753467513567002 13.074629194324876 14235.853942107513 15.851093242010661 0.2627758836631515
0.7730092178978022 13.07233989962294 12610.370202267944 16.479578479482534 0.26592555841944665
0.792790824655762 13.070988521250548 11107.286124039509 17.13115192706762 0.2691167374394153
0.812804556752281 13.07069413380509 9925.574152176943 17.809545799438478 0.27237857170100926
0.8330385518030446 13.0711884145014 8819.318138770861 18.511994226659933 0.27568054840872996
0.8534945151564559 13.072383859364376 7844.020621695408 19.23675446688563 0.27900192184324196
0.8741589608559232 13.074117494667275 6983.159350686453 19.991278657961043 0.28239544581801673
0.8950323438351236 13.076478967362776 6222.575495113491 20.776805376486223 0.2858602986933607
0.9161093670352544 13.07927286798555 5550.345449030793 21.58380337089996 0.28931331865772164
0.9373683485332103 13.082348522786647 4954.781782022843 22.423664576108962 0.2928458745585798
0.9588182286358958 13.085752044294734 4427.100459320621 23.29798264263111 0.29646120928309494
0.9804246629895251 13.089309407525372 3959.2755686303376 24.20237316293195 0.3001174956265162
1.0022130433020713 13.093111905772275 3544.095049746333 25.137934071720608 0.30380644011609337
1.0241467573283698 13.096881469039513 3174.9250036593044 26.11192765635561 0.3075796069026801
1.0462482322132833 13.100819452707444 2846.581386282534 27.125813337823867 0.3114396399688629
1.0684664084572324 13.104629946943115 2554.4551429607804 28.170120938628855 0.3153150964038509
1.0908060894284772 13.108243759948836 2294.0683109547995 29.256269933980313 0.31927779889575914
1.113299114689507 13.112022772588416 2062.0616139287863 30.386899543176533 0.3233314492358755
1.1358512133663707 13.115174629726226 1854.7918402624505 31.56188960636787 0.3274591579136805
1.1585116306064223 13.118252046158801 1669.8913039933298 32.774534601469874 0.331618589778467
1.1812417413801086 13.121018980406214 1504.613001938109 34.037052070089274 0.3358809634021977
1.2040578439512222 13.123452136277729 1356.6830760215184 35.352514367987816 0.34024911462714
1.2268974491431472 13.12547016200192 1224.375434439601 36.7163580687195 0.35127784227664255
1.2492945346585116 13.12656623288098 1107.8991225144894 38.14280295187864 0.38286246757497855
1.2710660463404873 13.126233861736806 1005.4182943117154 39.64152412988992 0.41377432917596946
1.292261320575994 13.124238058184268 914.696155262635 41.21474311821812 0.44384004899587887
1.3129804648794277 13.12059895555762 833.7575421145178 42.86585651972679 0.4731511825296954
1.3332698786221087 13.11520755669914 761.0865738535875 44.59028543518891 0.5010753611870169
1.353192487652026 13.108148381404751 695.6374680966211 46.39448375088204 0.5282094881823491
1.3727967969492276 13.099504811947103 636.5053630532974 48.28338811504045 0.5547680862196838
1.3921185746901745 13.089206940123558 582.8427736515941 50.259959056977195 0.5807630065842295
1.411226691919283 13.07746625442659 534.0047465087239 52.32721036688984 0.6062143382616203
1.430104861191622 13.064202023682046 489.5362821433102 54.48200416851142 0.6308461070266226
1.4487941694974156 13.049514492972346 448.9627918860815 56.729697454956536 0.6548833015670206
1.467310651436721 13.033442123003642 411.8773570993679 59.077774979121166 0.6785577340518361
1.4856960201689386 13.01617981215066 377.97274505345285 61.53002128402027 0.7018934193075403
1.503935572339743 12.997523417070234 346.8858494516273 64.09041598887599 0.7249182258381068
1.5220485968275375 12.977795642685896 318.44454095037105 66.76315991529975 0.7476544938503521
1.5400279960304015 12.956943704701228 292.41187832532034 69.55272011440023 0.7701003309381362
1.5578749057111168 12.934789226425728 268.52281618713545 72.46045804642563 0.7921267418853324
1.5756092417086565 12.911707549663511 246.6261460398222 75.49120872839008 0.8139144849594212
1.5932116085217993 12.887545213453159 226.55506388678972 78.65471361177482 0.835609071001203
1.6106760271172627 12.862373523310858 208.16143201464993 81.95691243673132 0.8572404299598111
1.6279936385796612 12.836178232660004 191.29048441880573 85.40403096166061 0.8787324428774127
1.6451633372480927 12.809191449734865 175.8499246145729 89.00289984372355 0.9001723144852328
1.66216485425113 12.781177271570101 161.67887066968115 92.76077498118822 0.9216486034720831
1.6789597641481593 12.752124989788708 148.70683037994098 96.6854221146986 0.9431442748891791
1.695583208765285 12.722290731514894 136.80484629209084 100.78523605244342 0.9646741878321173
1.711938684930604 12.69138602016661 125.92192355044816 105.0692395744601 0.9863274124266337
1.7280658420184378 12.659531003602705 115.943149221178 109.54705164885661 1.0080942672735382
1.743956556173649 12.626949920644096 106.8020565003569 114.2291548561632 1.0300182369164868
1.7595650207550628 12.593373041154331 98.43448692771557 119.12671355171418 1.0521641865336133
1.7748458027126477 12.558685167353499 90.75325176568107 124.25177668723836 1.0745269641297452
1.78982916094365 12.523364156598248 83.7348341015941 129.61742998460724 1.0972028361702626
1.8044353477650237 12.486855373512595 77.29965941927196 135.236785104926 1.1201377552397584
1.8186789282446425 12.449429428232811 71.40300205871961 141.11585909136062 1.1433767608602243
1.832524381162187 12.41110960199337 66.00497148348629 147.27932630156158 1.1669647464998691
1.8459280198117485 12.371793554525407 61.06286629468597 153.74454621345063 1.191014056933119
1.858909763860086 12.331475581671981 56.530153053410714 160.53054452168456 1.2155380185228108
1.8714059935650897 12.290054211800186 52.37443345266923 167.65763827914435 1.2405902600707666
1.8834050198892127 12.247766389345152 48.56935716407679 175.13834618932114 1.2661454528284568
1.8948617617079502 12.204230451416521 45.07991424227151 182.99545313166198 1.292243067382181
1.9057788784357956 12.159679411312709 41.876669295432634 191.26350299114696 1.3190286309518207
1.9161443592990002 12.114014734098657 38.93857693017363 199.97031557697207 1.3465471630845285
1.925916077400284 12.067375487027137 36.2455028673019 209.12196123122973 1.3746803158076197
1.9350506863373558 12.019634131527914 33.775301595395156 218.7720961787967 1.4036660788658288
1.9435466672543533 11.97065284779953 31.504642784797614 228.95152784087986 1.4335352099850185
1.9513892532158863 11.920597410489231 29.419532522707506 239.67953934383587 1.4642336374444551
1.9585522925404653 11.869303225593153 27.50227647223394 251.02016639783392 1.4959971517861181
1.9649909025925403 11.816883390227089 25.74416350970738 262.9890147409961 1.528714930664107
1.970727952365342 11.763337848392512 24.128601563383114 275.6585561973304 1.5626422643284006
1.975710643488229 11.708598295928923 22.64188971898653 289.0538477144445 1.5976722071819134
1.9799426343661153 11.652545615495603 21.271740133853125 303.2549236199072 1.6340906405954518
1.9834110331669599 11.59546011016249 20.013522190303693 318.2958407050969 1.6717924073070929
1.9860698333733484 11.53709445462565 18.85557459428828 334.26076600065625 1.7110069002528685
1.9879337091030893 11.477693625345616 17.792297007614053 351.2196152744907 1.7518449970646972
1.988984885853049 11.41704410915349 16.81221334690755 369.2330020579951 1.7942982359691477
1.9892007751098217 11.355154095804059 15.90982666939071 388.4028121382879 1.8386068651191152
