M[M_sun], R[km], Lambda[1], P_c[MeV/fm^3], rho_c[fm^-3]
0.23841724892012095 16.20908015294055 2780876.1263280716 3.453507347168396 0.169602847481901
0.24841068395711516 15.866384974684456 2282551.783563185 3.6354837271682805 0.17197764136066332
0.25868744029621293 15.563140866946918 1881902.3169544123 3.824632858297782 0.17437328001651164
0.2692466761052274 15.293875490137445 1558605.4180179064 4.020050712918409 0.1767638466912163
0.28009614296750635 15.054227608269406 1295885.1577354514 4.2220819907778875 0.17914170670947405
0.2912197425758151 14.84023467190834 1081628.0220790945 4.432087567476456 0.181543378922257
0.30263633244861876 14.648941095931413 905961.4726185717 4.650414779599335 0.18397273982327692
0.3143330403580886 14.477462948540069 761410.8833326295 4.877430163571076 0.1864314353005992
0.32631225372589534 14.323685609700124 641943.2723603355 5.1104191788208935 0.18885921112937692
0.33857592485800314 14.185416924504013 542818.6117851133 5.352629966119465 0.19130936292467335
0.35112014890224663 14.061237266421468 460336.063399692 5.604532855598264 0.19378946144191586
0.36394991147616823 13.94936619674379 391441.2890530891 5.866539919246798 0.19630515519609473
0.3770651786714164 13.84872972307656 333667.1572699945 6.135503308534985 0.1987958029293578
0.390461962568442 13.758072790547494 285126.3618560041 6.414925537485117 0.20131728653572095
0.4041425472351768 13.67640653668648 244197.52085257476 6.705579536144998 0.20387345854007272
0.41810751997589607 13.602996813243816 209623.00513171992 7.0075053146795305 0.2064547789309507
0.4323572748053361 13.536932219117277 180313.37989048922 7.317435293905346 0.20901356061490675
0.44688762040812047 13.477597410741494 155427.6859522245 7.639900629903864 0.21161681621149347
0.46170332727496055 13.424308817445093 134217.8621203462 7.975434892966204 0.21426461323546953
0.4768034299374117 13.376568971344309 116123.0186638729 8.322032140066064 0.2169182499493623
0.4921826739477911 13.333926822105564 99596.31000089616 8.679788980343725 0.21957041270268393
0.5078405953595402 13.295792302578226 87379.7847055897 9.052138012600148 0.22227062622019758
0.5237868280659963 13.261919797478518 75995.4398226393 9.43968334970699 0.22502181741961635
0.540006578143209 13.231897382462687 66191.44353956818 9.836917144030833 0.22774577866703008
0.5565050156250425 13.205357028685452 57743.6468826611 10.250188130081897 0.2305176618942799
0.5732761150290784 13.182024990824733 50447.29225460761 10.680373410383073 0.233340206416202
0.5903257863256823 13.161597564925527 44132.454633897585 11.124365857470423 0.23616507717976076
0.6076525143367894 13.143974431794097 38667.45686490231 11.583229886242894 0.239009133577996
0.6252433926221086 13.128624245531402 33921.55383037185 12.060925593392229 0.24191252712053624
0.6431035600558618 13.115590255506943 29796.30105305764 12.556972604193113 0.24486204619207436
0.6612256498925886 13.104564620776445 26000.4352826844 13.066656306496236 0.24779265224076957
0.6796154751465087 13.095386869113518 22899.458352454978 13.59728361312885 0.2507818954788346
0.6982496157850561 13.087883282043046 20345.862450873803 14.14975916691507 0.2538314162936045
0.7171658760562628 13.082155182842062 17958.880478241357 14.717851516529167 0.2568749240484845
0.7363098515252202 13.077490057815556 15868.344903333149 15.30759420238296 0.25996899526834666
0.7557064102114321 13.074255692472471 14038.020939226808 15.921574097317274 0.2631291008232781
0.7753385402157746 13.072085054992078 12431.418376404172 16.55659734348301 0.266311541028484
0.7952162774956071 13.070967630292118 11020.5949775569 17.212338693674738 0.26951025735980283
0.8153278941797232 13.070744294437855 9779.428231609061 17.895106264551725 0.27278076302489507
0.8356580178654263 13.071305464308185 8686.858972600956 18.605268240341164 0.2761189985620448
0.8562020259747068 13.072549399422916 7724.206065095576 19.33492730295586 0.2794496820061086
0.8769717423749096 13.074497093181252 6875.152972833002 20.09459370336095 0.28285133432415865
0.8979360420074455 13.07681031051434 6124.693377365071 20.885517336168768 0.28632546040348533
0.9191058009389838 13.079690523490617 5461.468663319023 21.70195873847815 0.2898188872538868
0.9404623395818449 13.082797449141136 4874.50495087796 22.547868728160367 0.29336231993352196
0.962001149211837 13.086207974351602 4354.384929471374 23.428556275457186 0.29698909472616003
0.9837150981287676 13.089878565471448 3893.1160978453972 24.344066668377867 0.3006903366916139
1.005606581010654 13.093709204667698 3483.8218373436785 25.286768353168675 0.30438970760587347
1.0276347202943963 13.097522440415819 3120.3500248884548 26.268272795418593 0.308175351064459
1.0498291628263567 13.101445041590674 2797.0680440779784 27.290075580768306 0.3120492220172497
1.072138537368996 13.10521250700587 2509.3136032991724 28.34800171983348 0.3159752172510503
1.0945825168598249 13.10894570581765 2253.2703424607794 29.443059082900966 0.31995327478585006
1.1171261393257725 13.112421343994743 2024.9646937263274 30.583076433068136 0.3240206134051375
1.1398010050053402 13.115763763719684 1821.0644364069537 31.769902511743055 0.32817752448971393
1.162543703263367 13.118764976140818 1639.1300845562773 32.997326394497605 0.33238169610708845
1.1853705565924364 13.121451008704671 1476.548457833259 34.27100001902001 0.33666316978210803
1.2082640048733275 13.123809950912408 1331.1283755549919 35.59709027014969 0.3410502000654027
1.2312107865376565 13.12573975512636 1200.918055050882 36.97761495626123 0.3455420456949909
1.25418702726252 13.127188208705608 1084.460669609768 38.40815583595045 0.35009061189494506
1.2772123553465442 13.128184682456489 979.8639195067439 39.89228796920115 0.3547218600334711
1.3002067135240238 13.128491090814931 886.1737548304127 41.43777524119291 0.3594701002128639
1.3232237454789844 13.128260023870217 801.9848762440247 43.04707108130181 0.36433751814913845
1.3462263531191625 13.127508453127005 726.3461624096283 44.72262424051551 0.3693255351805102
1.3691758680585868 13.125939437136584 658.3971177164045 46.45621473587597 0.3743640278786245
1.3920775387786959 13.123723589993176 597.2345830032613 48.262103385596994 0.3795344027541075
1.4149271075923668 13.120886239994146 542.1784252721485 50.143312741332416 0.3848399198242752
1.4376666893023404 13.117020480573924 492.57125834830396 52.103028463798594 0.39028343960838047
1.4602948760414018 13.112332378615244 447.84232808678775 54.14462940463219 0.39586674887905765
1.4828392395927523 13.106991898645312 407.4768943344713 56.265481860715255 0.4015533997938655
1.5052100787961418 13.10056870493109 371.0413828866327 58.47252793165529 0.407378700859682
1.5274628019616658 13.09339699408766 338.1194641782334 60.77328137692373 0.4133644386416262
1.5494775627251298 13.085102981002379 308.4466816978487 63.171985268234195 0.41951379503659303
1.5713568880809807 13.075846411626738 281.4364467783384 65.67314775525854 0.42582770691691696
1.5930190254168066 13.065639626876862 257.03740701188747 68.28162160695486 0.432311164662381
1.614429721917108 13.05432355510417 234.9671495949484 71.00244867355326 0.4389793905954944
1.6356156442768732 13.042036381484705 214.9461894356382 73.84105667697456 0.4458396417758736
1.656516015587365 13.028682582504702 196.80812816472385 76.79884163393935 0.4528760322316199
1.6771122467812298 13.01401936817562 180.32782900425747 79.88616509455116 0.46010976694080613
1.6973977810908911 12.998251737721285 165.362938088456 83.1105577609103 0.46756412293638155
1.7173890828366023 12.98143000614282 151.75775919856704 86.47906810012627 0.47524986358873117
1.737017353242651 12.963274752812202 139.3809112744426 89.99920183176548 0.48317195004029173
1.7562509139731521 12.943796646123683 128.1224394195098 93.67899575896958 0.4913378963397198
1.7751051681651293 12.923122877469725 117.85942371615293 97.52708657351933 0.49976643228480927
1.793553879888814 12.901163138489931 108.5188565395874 101.55268995169058 0.5084737592253233
1.8115625931661583 12.877892620097866 99.99511533954838 105.7656650444033 0.5174673221954207
1.829132521141481 12.853356594971029 92.22873783802089 110.17235388580336 0.5267440120073976
1.8450160665677284 12.827990082974276 85.53405195771238 114.94603207796075 0.7409487647730115
1.8547289706416927 12.800552936487373 80.93375664619641 120.48598372610084 1.0669336185816376
1.858788761624896 12.76783015874934 77.78840780419029 126.90811539314579 1.386577240356531
