M[M_sun], R[km], Lambda[1], P_c[MeV/fm^3], rho_c[fm^-3]
0.23841724892012095 16.20908015294055 2780876.1263280716 3.453507347168396 0.169602847481901
0.24842365618475404 15.86595777998099 2281815.081007493 3.6357226914574015 0.17198068107679787
0.25871395086617105 15.56241329004634 1880982.7793574072 3.825124415114504 0.1743792932815076
0.26928894273197546 15.292944277559164 1557453.0114751046 4.020842664386798 0.17677353471482085
0.2801519822985909 15.053146331551858 1294625.8898886188 4.223166500062786 0.179154388362983
0.29129405608470305 14.839017589167502 1080374.6073127035 4.433479593699228 0.18155904202891004
0.3027256104596488 14.647584221951549 904765.2448725873 4.652130070022629 0.18399131731671486
0.31444070778277533 14.475969110673532 760196.1751016933 4.879485590602181 0.186452857816115
0.32643618457735113 14.322244226240281 640860.8155246874 5.112933666676408 0.18888541236856846
0.3387213843355331 14.18392849165875 541844.6150217027 5.355531615779535 0.19133831591000866
0.35128536009612704 14.059629923606229 459370.83286484325 5.607839854919012 0.19382124515884655
0.36413195518885494 13.947822358811107 390522.04888938845 5.870271783839314 0.1963397129108558
0.3772742088117736 13.847194792668143 332834.8116946602 6.1398541713008745 0.19883609267479221
0.3906943587945202 13.756644799727333 284373.7152899562 6.419757386262206 0.2013603524309297
0.40439385024509106 13.675020949391286 243523.63690323176 6.710914026770758 0.2039190658727558
0.4183830442477796 13.601712898524964 206423.13405799156 7.013608781824183 0.20650696064352925
0.4326568894656594 13.535710022286624 179761.47862749654 7.3241046636876925 0.20906853833934727
0.44721446762772576 13.476362952359144 154909.98951423503 7.6471620232189235 0.21167454799374183
0.46205595767974617 13.42321800663981 133767.9828888464 7.983315450798173 0.21432494879140326
0.4771829879736654 13.37560895348978 115716.92375932068 8.33090179794151 0.21698615830690088
0.49258521562586166 13.332839612414435 100275.47447360112 8.689352737487553 0.2196407751148693
0.5082769150928278 13.294861698811713 87048.66006165712 9.062426906663232 0.22234369435051454
0.524243619340226 13.261061002993094 74949.85851237152 9.450731279493569 0.22509757666526164
0.5404985508313156 13.23110431097238 65920.38717787183 9.849216487550859 0.22783011926341415
0.5570235758979578 13.204627010333438 57496.961877117545 10.263337544546403 0.23060455595327486
0.5738279072369761 13.181287392355102 50226.5439348121 10.694410732995141 0.23342951789549768
0.5909131097664458 13.160932430616239 43933.70629123608 11.139904077717977 0.23626393801485604
0.6082667499278771 13.143256638268605 38483.88583149455 11.599760810118031 0.23911079071345723
0.6258897646153396 13.128089337671321 33479.96086885302 12.078496399173886 0.24201700396572803
0.6437796466375014 13.11505490226337 29649.41020641016 12.576333762390572 0.24497716855771118
0.6619454097797252 13.1042053692876 26075.89691976971 13.087179775923547 0.2479103687196587
0.6803650825282961 13.09506021722836 22958.062347730636 13.619022320950661 0.25090220392362517
0.6990352486325825 13.087637577644488 20239.42824850461 14.17277076274629 0.25395469901412004
0.7179773392019279 13.081800459330067 17861.49471409662 14.7430748209903 0.25701005581497155
0.7371648516569739 13.077352646547073 15782.384425579146 15.334242152823876 0.2601072583519778
0.7565951523734809 13.07414348658085 13959.803441025531 15.949715123457691 0.26327013051557013
0.7762687128535438 13.072026409765218 12361.079750060502 16.587355193931483 0.26646568502318646
0.7961753943505688 13.070962140024317 10956.767603603053 17.244764098198804 0.2696674263559348
0.8163312644342822 13.070808274122552 9721.856574348905 17.929281729750556 0.2729414105339349
0.8366949934782094 13.071355400267649 8635.241040978299 18.641943741953064 0.2762890273427708
0.8572799315355758 13.072629380572963 7677.31263268155 19.37415257519824 0.27962858601857055
0.8780865974781833 13.074582367873786 6832.670227442735 20.135877458897184 0.28303350323834237
0.8990889706254758 13.0769606819238 6086.141343330807 20.928961743324606 0.2865113523217892
0.9202987380926023 13.079831754188698 5426.724995158354 21.74918727739291 0.29002097088840534
0.941691963039609 13.083021398439755 4843.030498787977 22.597519750291212 0.2935687706867142
0.9632659586623885 13.086483079768769 4326.052111736675 23.48075847891011 0.2972001387378973
0.9850217178604133 13.090115320955027 3867.2784080374986 24.400218903143653 0.30091540405664435
1.0069504112280678 13.093959962188437 3460.380511849706 25.346289969278565 0.3046229671968648
1.0290135342112814 13.09772044646049 3098.9842447367446 26.33080413996562 0.3084136231569931
1.0512471769454355 13.101671334624948 2777.6679190325412 27.35577978515709 0.31229305226564397
1.0735967067964682 13.105507865765603 2491.983534481278 28.4191696004711 0.3162393233638172
1.0960669094749558 13.109123697725938 2237.2532467660108 29.517798425285616 0.32022355078482434
1.1186708378672072 13.112714890539603 2010.3798973299372 30.66157983814851 0.3242963937683411
1.1413636275844106 13.115958248081993 1807.8632731067892 31.85237422213841 0.3284600065474219
1.1641580548792938 13.119068477522823 1627.094465847656 33.08651016999817 0.33268716832655376
1.1870135878274883 13.121669061074947 1465.550337057204 34.36465916582093 0.33697631970498393
1.2099400346800298 13.123992098360675 1321.1634515226663 35.695480973552925 0.3413715063065001
1.2329197565867527 13.125858659382637 1191.8676025838795 37.08100210364983 0.3458707767999864
1.2559344279720395 13.12731014262432 1076.0958989375565 38.519817810414494 0.350445653746652
1.27896349757867 13.128161856108244 972.322165807973 40.00959061783302 0.35508650882055964
1.302014397487722 13.128525994134838 879.2337391099945 41.56104956632525 0.3598450348617082
1.32505003838405 13.12826865200207 795.7021405093304 43.17666975039602 0.3647233252869964
1.3480731731285214 13.127362604046336 720.6074770532025 44.85905153844737 0.36972239821341774
1.371057346177905 13.125782657941313 653.1501121629667 46.60321944444031 0.3747912487269986
1.3939890008274876 13.123481725492994 592.4036700278195 48.416688944347534 0.3799746962241147
1.4168361545960624 13.12043944897734 537.7806896275965 50.30593876172138 0.38529411915274486
1.4396075402616388 13.11657742082642 488.524365216991 52.274183968987145 0.3907522157915188
1.462276102388718 13.111913855758512 444.13577574408697 54.324827976294095 0.3963499160929999
1.4848003801794292 13.106417197431561 404.2231959118319 56.459693752087354 0.4020741409828954
1.5072299371041342 13.099962773843354 367.93401709294267 58.67702330176699 0.4079172256277256
1.5294689808089708 13.092615713894999 335.27752971696395 60.98870332471064 0.41392188276372277
1.5515224583112694 13.084207286321943 305.75041878914334 63.39901876856803 0.4200909764234073
1.573425240821884 13.075087737743837 279.0332045718941 65.91251723628864 0.42642497777366684
1.5950630499017908 13.064612684466011 254.85911538777557 68.53410536993397 0.43293111785252936
1.6164768616457716 13.053202859161953 232.9575714901105 71.26888857813663 0.43962346989082846
1.6376640902743174 13.040774768760777 213.09589450079142 74.12235087954232 0.44650882356934507
1.6585547478589897 13.027153364462613 195.09076691686258 77.10036026066257 0.45359050546779084
1.6791461641290988 13.012435716138405 178.8000090272344 80.20611644445229 0.4608585080167336
1.6994663436540751 12.996572996545666 163.90017546487258 83.4486190586241 0.46834399485737993
1.7194027123536026 12.979409314897495 150.41408478056806 86.83644140607589 0.47606287938139186
1.7390273670418637 12.961172372368177 138.14547454081588 90.37717291135604 0.4840194454815733
1.7582592956027272 12.941646346118288 126.98019393595524 94.07893934455136 0.4922217875604951
1.77709178921831 12.920807112923361 116.81914425355029 97.95048613016317 0.5006902665440166
1.7955309330610667 12.898843552637008 107.5637836921288 102.0011484898611 0.5094401569142755
1.8135109338858604 12.875337039918676 99.11797934397843 106.2409018061582 0.5184780288155231
1.8310521355699614 12.850543188728007 91.41133387945494 110.68046103424494 0.5278175410735005
1.8481121143990387 12.824452187231582 84.37974271526707 115.33135666772925 0.5374832987994436
1.8646830520223845 12.79705105584054 77.957882750455 120.20392825222153 0.5474868714433871
1.8807479088395662 12.768237523293454 72.08780702360063 125.30903757599422 0.5578274794833777
1.8962791737362694 12.738100444374874 66.72200130048184 130.66409638487048 0.5685421769096232
1.911233215227376 12.706302000073682 61.80805359448535 136.28440721752258 0.5796594534135028
1.9256223133803672 12.673170218730737 57.30907568726669 142.1864591379596 0.5911967929952201
1.939422153204507 12.638627578161406 53.18842891528271 148.38803105151845 0.6031746484457441
1.9526249610280455 12.602620107586823 49.408086066108446 154.90827989576943 0.6156286385438
1.965192526353956 12.56517534026403 45.94302223984298 161.76049923117117 0.6285644374628506
1.9771086334280745 12.526245663766275 42.76697133580192 168.96576273623884 0.6419957417524237
1.9883490644815394 12.485719038748398 39.84490900305463 176.55508538618224 0.655992056808529
1.9989294090881975 12.443829388381072 37.16240011784779 184.55451011818892 0.6705929152107176
2.0087986405264933 12.400335807233692 34.69503487121798 192.97843796281265 0.685775429572406
2.017950283267981 12.355372265830335 32.427212936293365 201.8624378218781 0.7016127052265028
2.02637821349323 12.308918997144163 30.340481395207057 211.24618223538803 0.7181756037620023
2.0340517179765256 12.260909550357114 28.417904011617267 221.1460089509149 0.7354306765441742
2.0409682629183687 12.211419981005157 26.648513998183113 231.6120056169623 0.753485786381078
2.0471193150412645 12.160432230151274 25.016732395352964 242.68158505029942 0.7723814154757668
2.0524771066636225 12.107899603437314 23.513140579021968 254.39085074182665 0.7921328408541244
2.057035042486356 12.05389540673327 22.127713296688725 266.7976372434105 0.812851857902099
2.0607743998248127 11.99836475321491 20.84811655898192 279.9374950414772 0.8345381897157333
