M[M_sun], R[km], Lambda[1], P_c[MeV/fm^3], rho_c[fm^-3]
0.23841724892012095 16.20908015294055 2780876.1263280716 3.453507347168396 0.169602847481901
0.24842493046583494 15.865925361766676 2281745.181490061 3.6357369780465696 0.17198086280761532
0.25871591154026286 15.562315070364525 1880975.9309754663 3.825153804479036 0.1743796528046207
0.2692917766724153 15.292773214125486 1557276.773272583 4.020890016271414 0.17677411397528592
0.2801546497212249 15.053093330187293 1294586.8639464756 4.223231347410889 0.17915514665211071
0.29130016474850473 14.838879215008683 1080300.8392487008 4.433562832534929 0.1815599786339394
0.3027305553913498 14.647435757322825 904685.8895522213 4.65223264355559 0.183992428241786
0.3144479675410319 14.475916962447565 760144.291786541 4.879608480470342 0.18645413834201727
0.3264441564227081 14.322159670356218 640752.2622045224 5.113084046119707 0.18888697933885815
0.33872914664717296 14.183887087679542 541719.1851374381 5.355705156698475 0.19134004752073697
0.3512960627973551 14.059584525412427 459311.4635626443 5.608037646829436 0.19382314614565738
0.364145517716298 13.947680286376025 390512.9801572095 5.8704949957492 0.19634177989193777
0.3772854379417773 13.847087719525181 332773.1266353917 6.140114420936617 0.19883850263165312
0.39070526693418073 13.756500532192877 284332.33953547385 6.420046417437722 0.20136292854348847
0.40440876222142635 13.674932430656213 240346.5800869938 6.711233136842932 0.20392179411060363
0.4183986943135252 13.601538500676133 208968.9974394097 7.013973912220139 0.20651008233304177
0.4326758223463879 13.535589187867954 179731.45192977772 7.324503662814085 0.20907182741533775
0.44723252371575645 13.476284607617982 154882.08370688214 7.647596455962336 0.2116780019557373
0.4620772743294953 13.423082610176607 133735.73021975774 7.983786943176151 0.21432855865701814
0.4772056502832608 13.375536758824756 115696.92210063779 8.331432497732454 0.2169902214795345
0.49261220725903476 13.332778170733613 100250.62722491284 8.689924986883218 0.2196449852644209
0.5083036435017438 13.294815859413317 87029.23018076408 9.06304256528461 0.22234806654290973
0.5242713354217831 13.260989863359637 75674.38233376472 9.451392378345263 0.22510211003497604
0.540525761032757 13.231031019911818 65907.83968483725 9.849952512058117 0.22783516642270313
0.5570550911603444 13.204583358202747 57485.73013486257 10.264124464763805 0.23060975608534007
0.5738625382631094 13.181202730935093 50209.49486087857 10.695250816141527 0.23343486286551857
0.5909483232562581 13.160941799433036 43924.82818218972 11.140834038606577 0.23626985482569976
0.6082999190876386 13.14324196094075 38476.57398362833 11.600750214856943 0.23911687507101215
0.625929133939233 13.127983605823886 33748.63478870537 12.079548074858069 0.2420232572792649
0.6437908417451127 13.115275305202372 29661.471785021753 12.577492666475667 0.24498405945640958
0.6619865983691172 13.104115797693067 26066.643552976373 13.088408289694355 0.24791741510700946
0.6804071970432644 13.095041522969682 22952.200645168035 13.620323616359713 0.25090940567766495
0.6990816653481152 13.087642523807242 20233.9087356531 14.17414829477887 0.2539620790279974
0.7180333431320581 13.08185978454996 17856.257459875163 14.744584843846802 0.25701814563747477
0.7371903965584383 13.077453826175528 15785.626947716702 15.335837510380035 0.26011553587619857
0.7566489445576089 13.074137736526664 13955.363362360693 15.951399917207233 0.2632785739157108
0.7763260579169076 13.071967303565334 12356.151269714046 16.589196771408684 0.26647491415021424
0.7962344200720217 13.070968843823183 10953.914321840806 17.24670557356054 0.2696768368702553
0.8163915390856407 13.070824101378983 9718.860196841004 17.931328048762442 0.2729510295998363
0.8367605971316605 13.07143614085238 8632.5037233625 18.64410026251845 0.27629886309814095
0.8573433876165267 13.072642333412935 7674.627659636771 19.376501478448702 0.2796392992193304
0.8781529358197583 13.074590946360129 6829.902759016842 20.138349699544168 0.28304441226026666
0.8991585736864214 13.076969634719795 6084.187621600821 20.93156344670155 0.28652248460930924
0.9203697881135979 13.079838495990172 5424.483518208964 21.752015782401138 0.2900330736251287
0.9417659303063481 13.083013952961405 4840.917113285374 22.600493422046572 0.29358113532186764
0.9633460460949517 13.086445926463735 4324.038423405873 23.48388503436473 0.2972127788328055
0.9851182851389222 13.09026490601676 3865.9011911947364 24.403506271817268 0.30092828694394413
1.0070278084013387 13.093993784372495 3459.1244441236445 25.34985525069101 0.30463693919793583
1.0290954781974557 13.097718369313526 3097.6899695508155 26.334549809422775 0.308427895815065
1.0513324627770753 13.101721059802465 2776.5676961461836 27.35971562612656 0.31230765828804624
1.0736890807593207 13.105490205848433 2490.6532762973325 28.423433024182774 0.3162551450554776
1.0961659438274165 13.109186956008134 2236.2876485931906 29.52227593581603 0.3202397425734181
1.1187636152834648 13.112745222469878 2009.5103240616234 30.666282988241328 0.3243129158088751
1.1414624496149268 13.116041861428752 1807.131826007154 31.857315263335863 0.3284769305990511
1.164245825117662 13.119018924945221 1626.407549193441 33.09185372536857 0.33270547106950976
1.1871248049872294 13.12181888952381 1464.9625983509013 34.370271041525776 0.3369950830452896
1.2100349563600856 13.123977810560644 1320.598571332358 35.70137653975267 0.34139075896096094
1.2330216708320303 13.1258588000972 1191.320714354467 37.08719725332538 0.3458904749776603
1.2560311073421773 13.127280029585114 1075.600326636801 38.526509296160846 0.35046693008088714
1.279076551326283 13.128276279643549 971.9375078719522 40.01662035629224 0.35510836157181974
1.3021285843619876 13.128568968877234 878.8653854168505 41.56843742116145 0.35986750476982365
1.3251589158925756 13.128231728633931 795.295718218563 43.184436886589594 0.3647464475659915
1.3481879231715974 13.127342947723317 720.2297782560148 44.86721999878292 0.3697461371574866
1.3711732606769602 13.125821412773284 652.841259614968 46.61203074110376 0.37481685586348146
1.3941058398775465 13.123500295996482 592.0996201127844 48.42595495588245 0.38000108785089287
1.416944620070664 13.120416491785726 537.5310011540467 50.31568707854288 0.3853213452936997
1.4397401237946772 13.116642623324733 488.3020491454246 52.284443948884054 0.39078031675274616
1.4623931426135506 13.11186945198768 443.9162319145937 54.335630453187264 0.39637888082127726
1.4849349953654518 13.106379401756381 403.8889172651288 56.47133722741064 0.4021053606839212
1.5073526079906474 13.099983052397828 367.7530582503244 58.689283774307675 0.4079495127554365
1.5295776551338895 13.092525967508458 335.11594113226727 61.00161941318709 0.4139553055308811
1.5516441158162215 13.084188271040505 305.596250075397 63.41263160914928 0.4201255839953895
1.5735338686255511 13.074928975518825 278.88643870810284 65.92687033736489 0.42646079139928
1.5951691651744948 13.064563371682322 254.79634853235692 68.54924547870924 0.4329682931489669
1.6166047787938138 13.053175263740128 232.8430071475069 71.2848662630967 0.4396620935950602
1.637783625112831 13.040682646407738 212.98907877338482 74.13922009468779 0.4465489544058232
1.6586801895967263 13.027069643472881 194.99769409741685 77.1181784024377 0.45363220297789
1.6792879111540033 13.012336814056946 178.65866443833485 80.2253064811841 0.46090341599650647
1.6995846952369473 12.996454074368947 163.81088169239996 83.46889626427516 0.4683907722419268
1.7195299153641874 12.979387999071092 150.34532083932584 86.85787801534268 0.4761116471589087
1.7391415562394692 12.961040587447094 138.0784351255816 90.39984619511343 0.48407028403949703
1.7583775757423794 12.941473745064798 126.91560791041712 94.10293192694054 0.49227481212121327
1.7772181238495617 12.9208019997239 116.76613369786314 97.97588717784201 0.5007456902158113
1.7956233548616265 12.898552517929858 107.5079634705772 102.02805436334053 0.5094981372440867
1.8136304463592947 12.875180428694451 99.06584125642273 106.26941586175832 0.518538670893494
1.8311645303617223 12.850413990880094 91.36526421525416 110.71069426078788 0.52788102380668
1.8482431731432434 12.824352783465361 84.33248559870601 115.36342909165823 0.5375498749017857
1.8648003447118888 12.79692404753119 77.92031397339717 120.23747633947632 0.5475549134824537
1.8808532276571677 12.767999369397348 72.04819391007882 125.34467583736415 0.5578989463761163
1.8963816577197066 12.737811649596773 66.68640724741547 130.70197462778336 0.5686173531077664
1.9113596767156225 12.706242048816994 61.775925438203764 136.3246876239861 0.5797385927513435
1.9257325166391264 12.67303059770143 57.2822010684854 142.2293166458608 0.591280071804504
1.9395246087959832 12.63843002366245 53.16177548802762 148.43365481736714 0.603262409370707
1.952731542592552 12.602482849769753 49.38575828233783 154.9568753032214 0.6157212399486999
1.9652823643507256 12.564943287751715 45.922481775923956 161.81168771524165 0.6286601048481713
1.9772015323230796 12.5259884989812 42.74348925754396 169.02035967144852 0.6420968532047246
1.9884374142014944 12.485464348820287 39.82448326113271 176.61335113083643 0.6560990363689682
1.9990127581462696 12.443512999113652 37.14284581454728 184.6167277122909 0.6707061892838256
2.008873570183042 12.400037885849994 34.67919037984569 193.04424420233093 0.6858931243616284
2.0180135983916854 12.355032935398222 32.41096535613777 201.93280430060634 0.7017375576454041
2.0264411183855815 12.308557531277879 30.3248023101699 211.3214713318756 0.718308149621205
2.0341058889809798 12.260509311492875 28.40356954093098 221.22589054067987 0.735569002929828
2.0410237860247147 12.211013806002724 26.635349702845478 231.6975960657367 0.7536329028663384
2.047166205468066 12.15992116458438 25.002718522644823 242.77260131135364 0.7725354208744324
2.0525187546219956 12.107479304304187 23.5030552202668 254.48851166917456 0.7922969249543708
2.0570553624223678 12.053395844795267 22.11667581955792 266.90171577109504 0.8130242886401461
2.060802225391556 11.997931395125295 20.83882903552393 280.0528906672756 0.834734411494601
2.063730829193943 11.940993115348286 19.658047118250906 294.00476106959405 0.8575185761224943
2.065814277830253 11.882504349189281 18.56982575037851 308.81855888808536 0.8814595799578651
2.0670652644107834 11.82264889196987 17.56493597663803 324.54935955990453 0.9065819872623874
2.067475475214506 11.761385920870673 16.63681203542448 341.28404578514954 0.9330368969671836
