M[M_sun], R[km], Lambda[1], P_c[MeV/fm^3], rho_c[fm^-3]
0.23841724892012095 16.20908015294055 2780876.1263280716 3.453507347168396 0.169602847481901
0.24841617413677017 15.866146374815981 2282185.736887637 3.6355633632867126 0.17197865436220838
0.25869612730303815 15.56292021012423 1881650.6807505102 3.824796667252732 0.17437528390827212
0.26926130944259935 15.293552526836567 1558146.2597077913 4.020314618454044 0.17676707507472295
0.28011339773491184 15.05395505656478 1295512.535879228 4.222443376065548 0.1791459325497367
0.29124420306626175 14.839837766550438 1081182.5595556377 4.432551411810726 0.18154859810790108
0.30266616803532537 14.648473858853555 905557.1922226544 4.65098632469557 0.18397892995593934
0.314368516751431 14.47700697664336 761073.8803503264 4.87811534825564 0.18643857974060418
0.3263535785937466 14.32321461007562 641596.5507179588 5.111256971205501 0.1888679410178963
0.3386228038703041 14.18498033373373 542487.7104883393 5.3535967302372836 0.19131900940533264
0.351175313010965 14.060638585720524 459998.82013299613 5.605634645125028 0.19380005078985318
0.3640102016599402 13.948849505306262 391127.2975564877 5.867783229948551 0.19631666846929247
0.37713554299111895 13.848170398813567 333387.3334364426 6.136952796262582 0.19880922543765042
0.39053884494916524 13.757558116831946 284877.9729203047 6.416535226715099 0.2013316335715855
0.4042272022009888 13.675923922258708 243984.72038358267 6.7073566345036815 0.20388865187749533
0.41819973581644965 13.602622044318215 209419.40134172371 7.009538514810411 0.2064721618155194
0.43245641054391276 13.53650772897499 180128.38918736676 7.31965695797024 0.20903187449444038
0.4469966424082823 13.477188947650822 155249.6109650439 7.642319451487341 0.211636047077375
0.4618218067539972 13.423966766136722 134068.03948682654 7.978059905096947 0.21428471099626492
0.4769273674877853 13.376226759143583 115985.19966057006 8.324986517027984 0.21694086941111054
0.492318870438455 13.333537286999727 100521.78347098362 8.68297448535263 0.21959384907952667
0.5079863128680332 13.29548258832612 87273.6082172334 9.055564975030409 0.22229496330987022
0.5239391029968349 13.261631087875172 75890.9535250771 9.443363051277856 0.2250470503293645
0.540171827488038 13.231590367772469 66101.85339941642 9.841013502786879 0.22777386873053024
0.5566768089743758 13.205067581456964 57660.44836528824 10.254567520764416 0.230546601816537
0.5734598626723686 13.181777140703781 50374.57873780358 10.685048424559334 0.23336995086557807
0.5905265224897951 13.161417420703236 44066.7667059579 11.129540542526195 0.23619800075001646
0.6078493505211877 13.143734631234716 38609.92527459872 11.588735063530061 0.2390429877386858
0.6254569758724328 13.128408623755098 33865.862415002535 12.066776962483459 0.24194731963889318
0.643328077227568 13.115362622769453 29747.21563994134 12.563419947220916 0.2449003823997466
0.6614643156487252 13.10442856607889 26162.91588519057 13.073490574131878 0.2478318515547405
0.679864097229435 13.095250157825635 23036.768004570047 13.604522416738144 0.250821957161043
0.698510906219369 13.087737655234774 20308.936737990884 14.15742168919768 0.2538724676226796
0.7174293432256126 13.081955647113578 17926.11816854182 14.726250181693098 0.25691991920213236
0.7365966416164154 13.077457689883255 15839.27308420429 15.316467072262654 0.26001503221790284
0.7560022206508061 13.0741888227733 14011.757147305663 15.930943940084159 0.26317605810321687
0.7756459868833536 13.072045173211546 12407.984336732094 16.56683808085402 0.2663628628258154
0.7955380906448403 13.070950311639564 10999.203200679782 17.2231344432405 0.26956258537688227
0.8156619445219434 13.070753019532061 9760.246739870736 17.906484476298 0.27283424821854885
0.8360034768312835 13.071355406715957 8670.169912661167 18.617674368595544 0.27617731564973624
0.8565593469297339 13.072621120799575 7709.428340999351 19.347986010473942 0.2795092419540451
0.8773445554880313 13.074492402975155 6860.776267794381 20.10833746548009 0.28291198012029617
0.8983188954728631 13.076821310224622 6111.768888263604 20.899980140957773 0.2863873445147505
0.9195040525713299 13.079753934601014 5450.046972606756 21.71768064428613 0.28988615886423597
0.9408682589850954 13.082840711779417 4863.978036330467 22.564396757303747 0.29343104407894727
0.9624225997262251 13.086278533881263 4344.758594174638 23.445933237857524 0.2970593466238617
0.9841597003898335 13.090030746757115 3884.531421155049 24.362926891097032 0.3007665851409442
1.0060531999711408 13.093801737703126 3476.0343258375165 25.306580585787852 0.30446734987400076
1.0280970694006113 13.097644210430888 3113.367730101179 26.289086459814612 0.3082546603357511
1.0503095382645606 13.101632615480932 2790.7226674150197 27.31194493427283 0.31213037983579167
1.0726264620395167 13.10529946903651 2503.5819713219576 28.371688600453083 0.31606311996654457
1.095079703878228 13.108976086775806 2247.891801719885 29.467934192286645 0.3200432293509332
1.1176369819007441 13.112534175134954 2020.1142608653965 30.60920382344657 0.3241123982290028
1.140322796437956 13.115851597327076 1816.6532007238673 31.79735010520355 0.3282715379719454
1.1630830861568142 13.118864723472191 1635.1025315525965 33.02700651144528 0.33248335642755716
1.1859157671547558 13.121552055813632 1472.851672734906 34.30216892224106 0.33676738319823646
1.2088231075731999 13.123899296981072 1327.804568718277 35.62983314570977 0.3411571257189963
1.2317812871060454 13.12577867848207 1197.936917424076 37.012019881275656 0.34565144003754655
1.254781584539991 13.127265782776467 1081.6277674572943 38.44531271313149 0.35020875638004234
1.2777963513365325 13.128172071953804 977.3644858308026 39.93132105123631 0.3548431988624443
1.300809231848026 13.128494266756217 883.8296641791212 41.47879457547444 0.35959485911686245
1.323854458122237 13.12843459948037 799.9138062164348 43.09019391405115 0.3644658921270167
1.3468407013907973 13.127425186654742 724.45114862107 44.768109680082205 0.36945810560495024
1.3697999847318914 13.125901293985647 656.6488100847869 46.50512585754265 0.37450617197113306
1.3927382891542825 13.123794894583678 595.6235744008997 48.31353564874906 0.37968089308474756
1.4155503800637208 13.120671902817893 540.7142558061893 50.19741892080681 0.38499103334426754
1.4383109202510322 13.116883407284263 491.24028200842434 52.15997110462379 0.3904393992650357
1.4609627882969787 13.11231023504613 446.6220469547757 54.20457920849391 0.3960274925488943
1.483501454213439 13.106783275536104 406.3279309940864 56.33009045759697 0.4017266351056893
1.5058777845442601 13.100350004282689 370.00319833765116 58.539215059162615 0.4075461729142543
1.5250159403742125 13.092178808160972 341.0752514524929 61.06930125169867 0.7314936399763649
1.5314916999954291 13.07464764902179 328.2661197099963 64.22685673737287 1.2079691576268623
1.5294524775182634 13.046103303146351 324.0317854248665 68.19941946026628 1.6464803495462506
1.5218313577838802 13.007391458571801 324.5233703891364 72.96091542728769 2.0458867733236272
1.5103979484343169 12.960045662357526 327.9140912183839 78.47807640665056 2.4170259242025116
1.4961609194172802 12.905182846843136 333.26878068913544 84.7575507839393 2.8115426781423842
1.4799661320632722 12.845343388937168 340.3340484432261 91.94745404744718 3.3866224104994007
1.4613825752032752 12.778077261417703 349.17436749717433 99.94976979675165 3.62141688782223
1.440399809324609 12.698464186063122 358.80840804341585 108.43457221897252 3.688714366837185
1.4180614792419035 12.606508306108088 367.7889377130214 117.27359378640537 3.7263592883965617
1.395358439592835 12.504176306539435 375.0626682153018 126.45527480735846 3.7647314889514027
1.3729070975651196 12.39302179942483 380.1597071968386 135.99444757671003 3.804417298716266
1.351129048761272 12.274098216801766 382.3982156126208 145.90831724179722 3.8455411646355686
1.3303311356165002 12.148407153530329 381.5118297717097 156.21563699767222 3.8881780073468692
1.310680624733028 12.017044245714724 377.45394285569637 166.93626122036048 3.9323876851773427
1.2923970062211467 11.880867493097739 370.1534440191907 178.09231307191408 3.9782537195004473
1.275576398494887 11.740808958917743 359.73982374108846 189.70703663224083 4.0258608428484175
1.2602880320840624 11.597829798484737 346.57998561455094 201.80559348458328 4.0752889466733615
1.246570981259475 11.452714373056079 331.0273043725725 214.41555877245972 4.126650173729321
1.2344400066682315 11.306294960392446 313.51497718417477 227.52580245819098 4.17984709182723
1.223879566173812 11.159506783092159 294.6323763579468 241.1953306948106 4.2351355210704
1.2148458230702333 11.012829626829287 274.8448833043562 255.46492419542832 4.2926431871340425
1.2072891359461069 10.867145649660936 254.63318029870473 270.3702868721364 4.352507237922504
1.2011443322246946 10.722883661922708 234.42643084287604 285.950911580376 4.414860725013663
1.1963136479950143 10.580771819815798 214.6728699069742 302.2484499010489 4.479844832407513
1.1927065869597846 10.4410200400841 195.64703097797442 319.2417935274794 4.547327367528707
1.19024572626135 10.304093495151855 177.52640276879558 337.02372296186627 4.617665957781225
1.1887965415325819 10.170394127770667 160.56982247599177 355.6628432580487 4.691117041510072
1.188276607857316 10.039975736233291 144.80483573493612 375.2025841494598 4.767806871822383
1.1885764242844745 9.913085979660746 130.32496428132427 395.6236822546085 4.847592158544321
1.189587468756345 9.78976969955382 117.11068676841435 417.0777245718189 4.931075086739044
1.1912104669265609 9.670116365687164 105.13284710498486 439.59995200608324 5.018333747799769
1.193342428267217 9.554022378962843 94.32205972778128 463.21511774919446 5.109397023215981
1.1959018206792602 9.441537215203304 84.41464486629299 488.0853906503564 5.204890552876015
1.1987926241925067 9.332540431811939 75.95245517213695 514.1729843502499 5.304543860954586
1.2019323622623723 9.22691773326348 68.21895760836644 541.6874229501012 5.409184283157615
1.2052401872259806 9.124559863088601 61.32817405995113 570.6066218356129 5.518569344586163
1.20864085740027 9.025337554825219 55.21191131604362 601.1391773108463 5.633524298917605
1.2120737096542669 8.929039188829593 49.76926996851202 633.2993047370817 5.753930945458336
1.2154555710851551 8.835589219163335 44.95137979448023 667.2710333747394 5.880452429758048
1.218740371104173 8.744883335840507 40.67219033930961 703.1859875680342 6.0135062512001936
1.221865874908114 8.656633658300608 36.88516003392004 741.1154102969084 6.153177489119402
1.2248002900593629 8.570791483508724 33.516075832023645 781.2793989807388 6.3002434193042545
1.2274640224106668 8.487074036439077 30.53239489146909 823.8381854717372 6.455159773349715
1.2298423835131425 8.405497747699139 27.875258046695834 868.9691514413348 6.6184365704115296
1.2318722378050748 8.325804838858396 25.51475095933718 916.8611041253944 6.790601420685428
1.233539344790268 8.247900607985672 23.415117411538493 967.7314945356685 6.97227188610529
1.2347996092412301 8.1716661965995 21.544348406122346 1021.8374100571566 7.164217121724463
1.2356217501929059 8.09695987507249 19.842646381194665 1079.443585167481 7.367185091164709
1.2359879618668845 8.023752271138322 18.389654993895284 1140.8425520763471 7.5819945253834575
