M[M_sun], R[km], Lambda[1], P_c[MeV/fm^3], rho_c[fm^-3]
0.23841724892012095 16.20908015294055 2780876.1263280716 3.453507347168396 0.169602847481901
0.24843202050306587 15.865706365525696 2281392.903491076 3.63584811252073 0.17198227648015801
0.2587283651583663 15.561993312005566 1880434.0916597156 3.8253824279424413 0.17438244957891613
0.26931132111722594 15.292372904065113 1556861.9981634705 4.0212583817141585 0.17677862022755875
0.28018092423600044 15.052448767134713 1293974.7980928258 4.22373582730258 0.17916104576176126
0.29133172197729085 14.838268700118492 1079683.861688553 4.434210403490006 0.18156726511516286
0.3027745008664232 14.646694910434377 904078.101997095 4.653030649497512 0.18400107106398575
0.31449582821056166 14.47526525810518 759573.869850115 4.880564564521381 0.18646410084267262
0.3265032983057353 14.321411926384762 640238.8080706894 5.11425402960353 0.18889917069505918
0.33879781256659114 14.183219368632251 541248.4887136145 5.35705536900346 0.19135352009035958
0.3513712124754904 14.058833917085687 458846.82675658166 5.609576571509195 0.19383793681890976
0.3642315931991305 13.947022108956121 390048.24088137754 5.872231735152849 0.19635786240067776
0.37738219102894716 13.84636538338169 332395.24778525776 6.142139392588652 0.19885725422111072
0.3908142149572336 13.75584117203732 283972.71289828134 6.422295377464701 0.20138297335062522
0.40452759121830495 13.674259918150568 243161.13875463197 6.713716187536934 0.20394302300142284
0.4185276980480415 13.600877284891537 208678.29230338256 7.016815132232461 0.20653437339950312
0.432816784892122 13.53508603145787 179479.0085397512 7.327608484306966 0.20909742144086688
0.4473848671939364 13.475718046008486 154651.99655859536 7.650977064580807 0.2117048795193343
0.4622405106659259 13.422509232301572 133520.50784964554 7.9874560006578985 0.21435664989467343
0.4773790947425169 13.374951593330788 115500.96431041285 8.335562409882453 0.2170218411377923
0.4928007432896424 13.332287630802396 100079.2876637672 8.69437831353904 0.21967774925048209
0.5085049312711633 13.294360935520427 86877.62516102608 9.067833787841394 0.22238209213127813
0.5244885428353884 13.260593698312753 75534.84503573099 9.456537312647438 0.22513739052183257
0.5407499242247349 13.230567591771601 65775.2734020066 9.855680710040499 0.22787444653820307
0.557296516210267 13.204241545081427 57370.959496723175 10.270248862117558 0.23065022737373103
0.574115170250201 13.180931072727539 50113.970724980434 10.701789069125688 0.23347646204095696
0.5912183103803378 13.160634312295631 43832.06112668182 11.1480720078295 0.2363159058965671
0.6085866201957293 13.142950640919704 38394.74230282955 11.60845095913141 0.2391642308999891
0.6262286044353227 13.127754573547882 33669.7096216979 12.087733611153146 0.24207192886660925
0.6441389456501633 13.114845525885467 29574.01539691111 12.586513064287265 0.2450376951699586
0.6623192282644051 13.103947465962085 26007.2072604172 13.097970641461636 0.2479722618951673
0.6807536314479748 13.094862946664444 22897.59913764607 13.63045262615365 0.2509654626165394
0.699450407491009 13.087518934729912 20183.813819368865 14.184870871063891 0.2540195243431788
0.7184180966180312 13.08180877577725 17812.397023068235 14.756339072423607 0.2570811179444429
0.7376126181016337 13.077275287891839 15736.892423044994 15.348256175986739 0.26017997021253425
0.7570643996444302 13.074036324451159 13918.967475076272 15.964514965246412 0.2633443004169454
0.7767532545243279 13.0719616930924 12323.775836015806 16.60353272626258 0.2665467592667238
0.7966856959921356 13.0709202584698 10923.88151689829 17.261819409221715 0.2697500950581927
0.8168552716535967 13.070757940205647 9691.840745827738 17.94725828852771 0.27302591236505425
0.8372432253524061 13.071419485034165 8608.28011816689 18.660888640417895 0.2763754338393299
0.8578449725359346 13.072702360723078 7653.205765795443 19.394788124796175 0.27972270346916756
0.8786610540573597 13.074579996815139 6810.372789156198 20.157596822510232 0.283129342215072
0.8996913008492275 13.076971897250866 6066.14054853831 20.95181876115207 0.286609153976106
0.9209267315477472 13.079967172673905 5408.691903268072 21.774037557004412 0.29012730140249887
0.9423362770552003 13.083153407087016 4826.660003864477 22.623645743092602 0.29367740351359806
0.9639318326876437 13.086642922766627 4311.253927865218 23.508228019177498 0.29731119309183535
0.9857185469229344 13.090324097427429 3853.831281268168 24.42910169481581 0.30102859298887524
1.0076551361160921 13.09407553535737 3448.196431816806 25.377615428282255 0.3047457287116282
1.0297443911576298 13.097931918268506 3071.6490665319566 26.36371495286546 0.30853902791701304
1.0519956781514936 13.101799668538845 2767.5495378567994 27.3903619586154 0.31242138773553957
1.074364025016401 13.105606094751321 2482.7053819418775 28.45663121258711 0.3163783445158495
1.0968673143992587 13.109333225368747 2228.9078625995317 29.55714167647303 0.32036582573906264
1.1194703953497418 13.112809287679788 2002.7611554020025 30.702906296163572 0.3244415725104561
1.1421871666853316 13.116074208393867 1800.9009321142053 31.89579160026394 0.32860871972742506
1.1649911788205876 13.119096515544925 1620.844974954859 33.13346594968433 0.3328480012376629
1.1878741387621976 13.121808156879652 1459.8501460381744 34.413973443040604 0.33714120228864497
1.2108104467805907 13.12405347052309 1315.9791955460394 35.74728889082183 0.34154069106258966
1.2338130737335793 13.125924850496489 1187.103999132536 37.13544340321428 0.34604387905703915
1.2568559207863135 13.127457837252704 1071.804672692405 38.57862268252638 0.35063263047515963
1.279892088007232 13.128176859092441 968.4045100143816 40.07136894141139 0.35527855385128965
1.302954357657429 13.128508586552929 875.6593157184745 41.62597601155138 0.3600425064269788
1.3260162550009962 13.128211505882355 792.3658600998536 43.24493043506658 0.3649265330789053
1.3490599023961956 13.127360097892398 717.59977048308 44.93084030387792 0.369931028655058
1.372046053974239 13.125700918232592 650.3727311484666 46.68066040686405 0.3750163054206833
1.3949790017674057 13.123314630819227 589.8693846463524 48.4981275823328 0.38020665127089276
1.4178452579570902 13.120273615233783 535.4826399254263 50.391617724454676 0.3855334125157895
1.440648588231496 13.116440583090153 486.40984857570555 52.364361456097406 0.3909992020521476
1.4633051112266824 13.111659293887953 442.21871975013573 54.41977517684937 0.3966044984348066
1.4858656536770587 13.10611692817183 402.32698226817354 56.56155826469041 0.4023462910986267
1.5082682568993608 13.099617663523073 366.33538325868784 58.78479104355279 0.4082010247089277
1.5305352647032533 13.09223855869985 333.7851435599629 61.102235827365476 0.4142156691068602
1.552594566357522 13.083817898529142 304.3935167175565 63.51867787866611 0.42039518267935555
1.5745046128754971 13.074636105099104 277.7960064236132 66.0386856782563 0.4267397912290185
1.5961353889082894 13.064055200582986 253.70134826267923 68.66719437122877 0.4332579069891963
1.6175701144514347 13.052641994476902 231.90017483549238 71.40934299597723 0.4399629977952945
1.6387332244168507 13.040082614073622 212.13519667825736 74.27064536907233 0.44686160713743767
1.6596241569260946 13.026412393377113 194.21122262428034 77.2569997775807 0.4539570688233331
1.6802412696380653 13.011645757505942 177.92835588701473 80.3746866274777 0.4612527554688152
1.7005312610119214 12.995656371986355 163.15360896560472 83.62688682017753 0.4687552398670718
1.7204793188622376 12.978578054823029 149.73560677982124 87.02490617902109 0.47649163226867736
1.740086066444631 12.960137614618114 137.5085671185148 90.57651460451596 0.4844664140072959
1.759308357585415 12.94050080183646 126.39317226176753 94.28988499590028 0.4926879858344762
1.7781406467007796 12.91956067840872 116.26777038117882 98.17382037642523 0.5011775694348996
1.7965548603697248 12.897437045331502 107.05698244539991 102.2377193035609 0.5099499509491169
1.8145321139426978 12.873882815092326 98.6504073078488 106.49161875733061 0.5190112394227709
1.8320656097595716 12.84918689769404 90.99088488234095 110.94630089886051 0.5283757428641653
1.8491049323274005 12.822891390495018 83.98506832230481 115.61240206812985 0.5380652050232749
1.8656616391587548 12.795505396137314 77.60163219735279 120.49892626795655 0.5480851847349545
1.8816998714053164 12.766506467784083 71.75349443804357 125.6224236258016 0.5584559256069094
1.8971763123968715 12.736039290713057 66.40994593171034 130.99718907133482 0.5692032593641422
1.9121450430772 12.704412222046994 61.52087432846401 136.63863412577064 0.5803554067423138
1.9265019403148207 12.671057195893141 57.04022758454037 142.5633602016646 0.5919291704324606
1.9402719885171424 12.636452929201035 52.942746496161 148.7892714407925 0.6039464660947282
1.9534474567871283 12.600285375149088 49.17856520331848 155.33566771308764 0.616443051147704
1.9659639730429976 12.562728795237163 45.734242970551094 162.21070044216796 0.629405829301392
1.9778541581516194 12.523647485222485 42.56954716085431 169.44595680354163 0.6428850429438702
1.9890790175129218 12.483102017403937 39.66190157365739 177.06756467797805 0.656933000920646
1.99961643649049 12.441077832706299 36.99253152746994 185.10176683001862 0.6715892571245996
2.0094258545172825 12.397395388781366 34.54124804655341 193.5572724013241 0.6868106778670044
2.018540871950224 12.35228527660013 32.28098518281878 202.48140664313453 0.7027109519478837
2.0269425219058608 12.30575300027849 30.20428598789107 211.90829686106628 0.7193409464699521
2.034558424956112 12.257464916288525 28.28942307361073 221.8487198657162 0.7366475208920388
2.0414251318109544 12.207946572452999 26.530769017232267 232.36496617268637 0.7547800068470775
2.0475116961732303 12.15675116127788 24.90775623679855 243.48230022834352 0.7737362773299449
2.0528204063380917 12.104084002961903 23.412015481784515 255.2500576012985 0.7935764292808419
2.0573210827355894 12.049955376964675 22.03304874597841 267.71333334169395 0.8143689254237725
2.061023023867226 11.99434073737611 20.759010774257238 280.925088260938 0.8361682797685703
2.062146513846633 11.946292190697585 19.854275973538034 298.0803836187863 2.977282545020431
