M[M_sun], R[km], Lambda[1], P_c[MeV/fm^3], rho_c[fm^-3]
0.23841724892012095 16.20908015294055 2780876.1263280716 3.453507347168396 0.169602847481901
0.248408787672415 15.866401134261501 2282450.946664023 3.635460327732275 0.1719773437109876
0.25868431396350844 15.563189104898601 1881989.5638957438 3.8245847273478075 0.1743726912256601
0.26924302813148776 15.29398467073626 1558567.2913339008 4.0199731728374335 0.17676289813544646
0.28009062639227994 15.054351496973744 1295956.6482338908 4.221975811447742 0.17914046510694148
0.2912131345772346 14.840356860009432 1060989.684834836 4.431951286956788 0.18154184549114818
0.30262788179253886 14.64905640071604 906074.82639089 4.650246858886721 0.18397092115403332
0.3143219048957752 14.477706797401366 761531.4068221964 4.8772202119873835 0.18642916141501378
0.32629840405798116 14.32388566046704 642058.2022271102 5.110173043817705 0.1888566463756527
0.33856131569065806 14.185577278768694 542925.3781810241 5.352345945299934 0.1913065289331216
0.35110311628619506 14.061387660335914 460436.3972396207 5.604209171642788 0.19378635050108461
0.36393202867225616 13.949571684025031 391526.26131958433 5.866174665010803 0.19630177287838468
0.37704442659328713 13.848835158840068 333756.4574913338 6.135077493816114 0.1987918598110503
0.39043975284325494 13.75816412964877 285194.64710904635 6.414452667871406 0.2013130718853519
0.4041164748228035 13.676552295965765 244278.5767363377 6.705057495588279 0.20386899534404995
0.41807976755270015 13.603090608992735 209683.39111153467 7.006908054973628 0.20644967264733033
0.4323289948315715 13.537093628711453 180373.85252667134 7.3167826818953134 0.20900818092770615
0.4468549437600971 13.477698614349768 155470.88030929284 7.639190113311221 0.21161116724201467
0.46166938771357313 13.424413705959205 134263.8134416747 7.9746638198697655 0.21425870970364716
0.4767674730403161 13.376663752651721 116160.15326611928 8.32116433886939 0.21691160584259248
0.49214832197999286 13.334111540563827 100683.68246082118 8.678853301895202 0.2195635287352559
0.507799265434068 13.29593058700548 87420.23871811572 9.051131424498546 0.22226347778323902
0.5237400494718525 13.262009862227162 76020.88312903121 9.43860253994228 0.22501440595574554
0.539960538405115 13.23201621528471 66217.7276980741 9.835713980835711 0.22773752818591628
0.5564517126787786 13.205429467968807 57766.450835956566 10.248901852884204 0.23050916190768342
0.5732228749384716 13.182058516920177 50468.58509833001 10.679000322802029 0.23333147024289785
0.5902720201451115 13.161672405196045 44153.030769020625 11.122846048902382 0.23615540750448086
0.6075922003910866 13.143944245721405 38683.907478948044 11.581613032246798 0.2389991907129182
0.6251778822838644 13.128658379742905 33936.44414960704 12.059207085303989 0.24190230878987304
0.6430382438607475 13.115632654368863 29809.285788856283 12.555079108659456 0.24485078737775476
0.6611580293726976 13.104678202232309 26221.246456023924 13.064649201160936 0.2477811400852021
0.6795424921733676 13.095402285885836 23086.50267703726 13.595157728355066 0.2507701302031322
0.6981744207165872 13.087878699933983 20355.679996798135 14.147508871825927 0.25381936052387055
0.7170782400097806 13.082014253622598 17966.706479390225 14.71538509569374 0.25686171040294864
0.7362252544329414 13.077563535486735 15877.80667873369 15.304988553655567 0.2599554758410756
0.7556170109067405 13.07424253675753 14044.913716635494 15.918822537641384 0.26311531129007215
0.7752479754557438 13.072091129246106 12438.520500666298 16.553590112435774 0.2662964701896621
0.7951213526272265 13.071003100701645 11026.985714780963 17.20916851822331 0.2694948912201794
0.8152288667629762 13.07076878141524 9785.089915761528 17.891765087762646 0.2727650572627261
0.8355552459601261 13.071302904774454 8692.018897180234 18.60162531409093 0.2761018743758981
0.8560963042712195 13.072575779902621 7729.2432366517105 19.331092798355503 0.2794321930705425
0.8768606052562617 13.074457796277658 6879.265846488034 20.09055808897332 0.2828335267511433
0.8978209609468311 13.076767229139627 6128.594534570303 20.881270636687752 0.28630728943132416
0.9189893890433108 13.079682030495876 5464.827516803744 21.69734245376316 0.2897991348835063
0.9403416333010096 13.082799364430247 4849.89704966367 22.543015804872198 0.2933421413022465
0.9618771352992675 13.08617785111829 4356.883453680787 23.42345414983446 0.2969684677604654
0.983578520278901 13.089824713899885 3895.8115541952375 24.338529188066648 0.30066794966611504
1.0054744076309035 13.093728071431064 3486.3574368499017 25.28095142498046 0.3043669116137837
1.027503592476368 13.097575618028625 3122.5860897403136 26.26216191599895 0.3081520659098363
1.04968074075985 13.101383526359365 2798.9219078096344 27.2836548280122 0.31202539441361365
1.0719967445335297 13.105219139718708 2511.216975099763 28.341047544491083 0.3159494101003986
1.094435372053757 13.108919602954849 2255.018230562609 29.435756146367133 0.3199268655560636
1.1169871743484479 13.112485758128216 2026.434242506665 30.575405940131887 0.32399366716852845
1.1396463772732246 13.115742037464011 1822.4293104474418 31.76184453196743 0.32814992430175766
1.1623875303760707 13.118795671795157 1640.3937424728251 32.98861325024934 0.3323518518501359
1.185212408961144 13.121474046611691 1477.6392150240927 34.26184992887551 0.3366325764004584
1.2081076510068602 13.123834826937662 1332.089169725077 35.58747823975835 0.3410188108665502
1.2310586667852013 13.125898528410922 1201.939984983869 36.96751514349435 0.3455099322002774
1.2540229191159098 13.127238487774925 1085.2840171086566 38.39724849481271 0.35005593077262626
1.2770293340638175 13.128138896361376 980.6402826610496 39.88083002239636 0.35468624168679586
1.3000353943213896 13.128491213419615 886.8485594342209 41.42573440298623 0.3594334784147728
1.323043550599394 13.128339100898623 802.6118408728454 43.03441295474315 0.36429983569751784
1.3460436605010873 13.127519611091865 726.9803780576394 44.70896637818436 0.36928487657797926
1.3689972263043089 13.125981635755888 658.89855533313 46.441858183165536 0.3743223052787937
1.3918954147651246 13.123781118362473 597.7093305839509 48.247007036005115 0.3794914050497943
1.4147153222693347 13.120749699784547 542.5975329038486 50.1274317795768 0.3847955657771946
1.4374789814646054 13.117059525274891 492.9482571484933 52.086315209774774 0.3902376638361056
1.4601084849188843 13.112413838311443 448.2007075709472 54.127033786792175 0.3958195696724139
1.4826425816334188 13.107017212228326 407.79983418703364 56.24651947807672 0.4015025558748229
1.5050124568929462 13.100609480942742 371.33639647495653 58.45256230126424 0.4073261227183318
1.5272512349630283 13.093400363383527 338.4003798970613 60.75224981507926 0.4133100155865515
1.5492932159207853 13.085157532200357 308.6144617613719 63.14982101418213 0.4194574474276601
1.571161823840046 13.075984809577252 281.6921686509774 65.64978020775655 0.42576940059041035
1.5928205092821872 13.065780279834533 257.2683619968329 68.25697491987974 0.4322506467419472
1.6142402390856347 13.054512562342332 235.17090941499694 70.97644081330492 0.438916520417215
1.6354103770155994 13.042134050203675 215.13587272874076 73.81360013079073 0.4457743243230072
1.6563064434379478 13.028793999447421 196.97913541388147 76.76927360509734 0.4528056916899759
1.6769026770790876 13.014149928841428 180.48495659057485 79.85493961075954 0.4600366939491225
1.6971986513701047 12.99835977831371 165.49888613809844 83.07756648404656 0.4674880155243888
1.7171519132104323 12.981348931134903 151.8774997714357 86.4441939476272 0.4751705257191551
1.7368047049927533 12.96333630579544 139.48699232289962 89.96231957841302 0.4830892518041879
1.7560443548617901 12.943918005029504 128.22404169898087 93.63997152585287 0.4912516512334277
1.7748935881714645 12.92324851248395 117.96210331138103 97.4857759053038 0.4996762947067948
1.7933608745863536 12.901366207455595 108.60393144346223 101.50893676609928 0.5083794740822369
1.811374785043201 12.878177041775073 100.08681361598849 105.71930195681549 0.5173687198074649
1.8289557234506773 12.853730456586497 92.31290464976844 110.12744730408701 0.5266563410597902
1.846035457068942 12.827758143800482 85.21287539928913 114.74473856452599 0.5362655939274592
1.8626816709689498 12.800740212559058 78.73175176184493 119.58337240559815 0.5462164472555561
1.8787548402248448 12.77188498740867 72.796042019381 124.6564161061774 0.5565173818925048
1.8943414483502339 12.742029160566753 67.38028410189555 129.97140010872258 0.5671673963362852
1.9093365038806258 12.710424367546187 62.41587787346683 135.54783380903444 0.5782122998980164
1.9237773448500557 12.677592803844766 57.871269899450375 141.40281751722526 0.5896740553402327
1.937648731531075 12.643289305372758 53.71098935826334 147.5538711512242 0.6015700758495336
1.9509132719054123 12.60756872105677 49.89590257440615 154.0198561024417 0.6139356947920703
1.963535823548456 12.570338279476164 46.39400906453435 160.82116100857064 0.6268029998890667
1.9755276627206513 12.53165094527378 43.18341200260405 167.9677418754603 0.6401474449886505
1.9868690035020267 12.491442915077963 40.22915094166513 175.49008757590516 0.6540366540536466
1.9975054539705845 12.449706343921305 37.51971603057316 183.41737578561796 0.6685226352620866
2.0074708612694443 12.406611587706495 35.02926459382195 191.7757794829874 0.6836244688530937
2.0166994529706828 12.36182268182135 32.73812292982974 200.57655255452661 0.6993311375118735
2.025230454547501 12.315631391335588 30.62594753947538 209.8704666360085 0.7157536673243875
2.032985706832669 12.2679332849686 28.686437950487083 219.68646876639357 0.732903274184815
2.040008309210215 12.218653271203124 26.89656969152393 230.04830822945448 0.7507980371408852
2.046254503752794 12.167936222572667 25.247523838438436 241.0157996090378 0.7695574532443836
2.0517387794995354 12.115863077274549 23.73029931864396 252.60693651201703 0.7891356139255674
2.056409831270919 12.062144216687294 22.32854000599093 264.89202600813223 0.8096874665891373
2.06025297623583 12.006820886124952 21.034851549523705 277.8984788775789 0.8311926192026271
2.063298258397279 11.950180928888182 19.843039441316897 291.69550709598747 0.8537628548131109
2.0646046299970053 11.895824324550325 18.85898421130682 307.11874122691574 1.351788901719774
