M[M_sun], R[km], Lambda[1], P_c[MeV/fm^3], rho_c[fm^-3]
0.23841724892012095 16.20908015294055 2780876.1263280716 3.453507347168396 0.169602847481901
0.24842500306127013 15.865876542397695 2281696.49206286 3.6357322790843183 0.17198080303503832
0.2587156862036844 15.562319435473169 1880933.9970154397 3.8251441380873903 0.17437953455465946
0.2692900848743749 15.29289605212383 1557372.3856533796 4.020874441836369 0.17677392345162332
0.2801558845282028 15.053006643162432 1294563.9145309536 4.223210018532394 0.17915489724396771
0.2912979770102623 14.83895631017142 1080288.2971512545 4.433535454483175 0.18155967057555833
0.30272910314733553 14.64753354755294 904696.0194172072 4.652198906080324 0.18399206284726338
0.31444387858845985 14.476023924882586 760195.7776602943 4.8795680606810325 0.18645371716338024
0.3264430660491123 14.322140892514033 640754.1563534866 5.113034584617673 0.18888646394458303
0.3387256559247383 14.183985320180406 541767.865973843 5.355648077035266 0.1913394779734637
0.35129195710397726 14.059586000962682 459311.20023426006 5.607972590628693 0.19382252088763086
0.3641414209375089 13.94771277415366 390498.84419462463 5.870421578487627 0.19634110003533495
0.3772825987445093 13.847081376788156 332799.6098471443 6.140028821318117 0.19883770996430775
0.39070123743883617 13.756513756365981 284333.8047652989 6.41995135104455 0.20136208122406374
0.4044044324275691 13.674941576236346 243495.75220938495 6.711128176931994 0.2039208967537776
0.41839459170931687 13.601630449853143 208982.80648882213 7.01385381531068 0.2065090555621487
0.43266868709839945 13.535620108995449 179737.92464762225 7.3243724257864695 0.20907074558701272
0.4472267699399398 13.476303996115789 154893.09384389082 7.647453564073726 0.211676865892307
0.4620706374270689 13.423104944928001 133743.31924772015 7.983631861575499 0.21432737131282376
0.477198964093992 13.375551988177762 115704.64329335764 8.331257941469111 0.2169888850323673
0.49260393729099505 13.332826683059292 100259.92183632159 8.689736764000077 0.21964360047224277
0.5082944979313104 13.29483377731589 87039.08557973213 9.062840064088746 0.2223466284501781
0.5242611183067356 13.261017252046933 75680.40059699431 9.451174930770405 0.2251006189262745
0.5405158653542068 13.23101812610742 65907.55623578609 9.849710419532071 0.2278335063155605
0.5570451838963335 13.204589962317504 57491.20107155661 10.26386563135125 0.23060804566044765
0.5738512078748134 13.181288765884446 50220.08610391642 10.694974496074186 0.23343310479849572
0.5909368800452837 13.16095560677307 43926.84254225974 11.140528155282745 0.23626790866453368
0.6082932631103743 13.143378007420019 38481.13169398702 11.600424778842463 0.23911487379792798
0.6259145848575378 13.128036130212521 33752.068019170816 12.079202156219726 0.24202120043062197
0.6438093887845775 13.115050847241717 29643.567385624898 12.577111477256897 0.24498179288722127
0.6619736928162648 13.104190267167873 26070.176322348834 13.088004203846976 0.24791509739151352
0.6803927621557525 13.09506214849412 22955.191260923155 13.619895590509842 0.2509070368558955
0.6990677984659743 13.087589551681733 20234.7878774364 14.173695192452458 0.2539596515697767
0.7180184187333419 13.08191082916961 17859.195633988715 14.744088161055476 0.2570154847005195
0.7372003871744944 13.077315709253979 15778.22487326564 15.335312758375476 0.2601128131966269
0.7566315558259606 13.074127623513082 13956.682635160152 15.950845746848922 0.2632757966724532
0.7763078212639746 13.072044002539991 12358.593451403965 16.588591029564967 0.26647187845473524
0.7962159944689502 13.070958806623867 10954.657077576989 17.246066972057818 0.2696737415084985
0.8163710330723103 13.070817092218999 9656.299988066188 17.930654960739663 0.2729478656366366
0.836738539097887 13.071438824678987 8633.331615389296 18.64339092554415 0.27629562785658274
0.8573222068262515 13.072625250737783 7675.583065455473 19.37572885981563 0.2796357753540859
0.8781270869944063 13.074540861542317 6830.715140492853 20.1375365109836 0.2830408239801991
0.8991357245850806 13.076942804959529 6084.614736862207 20.930707673333163 0.2865188228870417
0.9203454256540865 13.079837375095087 5425.27402480939 21.75108540528491 0.29002909268492943
0.9417442579312376 13.083016164504954 4841.597499367909 22.59951529433026 0.2935770682313006
0.963319194985584 13.086500132939443 4324.821931316156 23.482856617604096 0.2972086211309357
0.9850790995774394 13.090135027879729 3866.191407080272 24.40242495764169 0.30092404937583334
1.0070040671293106 13.093965935739813 3459.4298471898155 25.348682519681493 0.3046323433758883
1.029068269163172 13.09772749980267 3098.1038018215813 26.333317741869276 0.30842320109250243
1.0513049553911358 13.101692010472975 2776.811276315985 27.358421003794408 0.31230285390622986
1.0736569618527922 13.105487534445619 2478.57030930193 28.42203064586495 0.31624994078800706
1.0961357352567243 13.109144665754044 2236.5742897991995 29.520803135745286 0.3202344165630772
1.1187346214599612 13.11271284706986 2009.726212244121 30.664735966162425 0.3243074811616727
1.1414278344838866 13.11602778841667 1807.3894424468272 31.85568998911885 0.32847136371068464
1.1642130437798441 13.118983472204558 1626.5827527929666 33.090096045982875 0.3326994506670314
1.1870765766710274 13.121664020516421 1465.128178930856 34.3684251001847 0.33698891112926926
1.2100062231266646 13.123987767788085 1320.7364321784253 35.699437280425315 0.341384426084953
1.2329913315936263 13.125900295573311 1191.4864033724205 37.08515944798955 0.34588399554557675
1.2560010758080533 13.127301900019964 1075.6897670372223 38.52430822206874 0.350459931517364
1.2790446770382735 13.128282897848889 972.0898024240568 40.01430801568197 0.3551011733948373
1.3020854454992037 13.128536936179419 878.9869157797175 41.566007279799834 0.35986011357788583
1.3251234906705642 13.128235463738356 795.4524640236706 43.18188198215557 0.3647388417751753
1.3481504670802322 13.127359451696554 720.3757504536059 44.86453308018323 0.3697383285120705
1.3711315085397777 13.125816493158638 652.9534911521171 46.609132360661846 0.3748084326737524
1.3940659028439788 13.123533672168866 592.2594484263336 48.42290699783548 0.3799924065999676
1.4169140011630015 13.120460615454645 537.6160254239935 50.312480466801425 0.3853123895257596
1.4396911131272092 13.116594755009945 488.37548393667953 52.28106902594399 0.3907710732084472
1.462358655255803 13.111895261134315 443.98650729990993 54.33207707593604 0.39636935313539867
1.4848979630461574 13.106366315700907 403.9433219022277 56.46750719967991 0.4020950912139087
1.5073122181918273 13.099949183493585 367.7938554948192 58.685250784337846 0.4079388921482959
1.5295574922336816 13.092632501272323 335.1615245239184 60.997370756869955 0.41394431134707055
1.551601887385489 13.084186663020036 305.6397686174268 63.40815375419538 0.42011420006073474
1.5735016318026402 13.074971783501537 278.9338653887602 65.92214897107554 0.4264490107224931
1.5951425413043534 13.064578314875673 254.77849649769644 68.54426522289165 0.43295606453891516
1.6165569368952473 13.053154403400617 232.87715363501795 71.27961048244332 0.439649388518075
1.6377474451551943 13.040722737113816 213.0268548603681 74.13367104012349 0.44653575354262903
1.6586450791504825 13.02709844996117 195.01908548705535 77.11231719238582 0.4536184867403375
1.6792660077108115 13.012546694805572 178.69461608113457 80.2189939706667 0.4608886436384025
1.699546735372182 12.99653475691968 163.85162721345034 83.46222612037984 0.4683753849202542
1.7194835444085996 12.979390038467972 150.36876292235334 86.85082647494548 0.47609560507179677
1.7391075682871773 12.961163692770231 138.10285715951636 90.39238783825625 0.4840535607403421
1.7583710635925842 12.941723487284287 126.94210478903747 94.09503957250794 0.4922573697042182
1.777170551946544 12.920745575276687 116.77888588331324 97.96753149231418 0.5007274585752046
1.7955900323353944 12.89866619526517 107.52756211122312 102.01920364650172 0.5094790645504693
1.8135828472088817 12.875158280474649 99.07704593445293 106.2600361118355 0.5185187225727731
1.831129794630146 12.850559283242767 91.38481655179798 110.70074896497478 0.5278601410021405
1.8481974973350634 12.824368871323912 84.34855848558361 115.3528787638411 0.5375279744771078
1.8647674285762654 12.796945665179466 77.93032459568848 120.22644057748353 0.5475325308129757
1.8808166729897116 12.76806625893256 72.06133326045911 125.33295247770776 0.5578754370337721
1.8963511637971167 12.737932340626019 66.69792480888385 130.68951438658277 0.5685926235139581
1.911302300410292 12.706208948302155 61.788515957669674 136.3114371461532 0.5797125593983107
1.925715456475957 12.673207696710834 57.29208137794317 142.21521837962848 0.5912526766786022
1.9394956872544262 12.63851136437077 53.17179003954023 148.41864653303222 0.6032335397478068
1.9527053032163502 12.602637659420532 49.39651881658817 154.94088943232273 0.6156907779321971
1.9652432629903915 12.565009386400753 45.931237484371046 161.79484880484088 0.6286286342047455
1.9771561136725304 12.526019599364037 42.75104572631781 169.00239947015027 0.642063591593429
1.9884107499333903 12.48553547465765 39.82982995875607 176.57914296141678 0.6560124506264577
1.9983745743763823 12.445187249053342 37.27263062855386 184.97151567586914 1.7058407381609442
