M[M_sun], R[km], Lambda[1], P_c[MeV/fm^3], rho_c[fm^-3]
0.23841724892012095 16.20908015294055 2780876.1263280716 3.453507347168396 0.169602847481901
0.2484267062375649 15.865892643781613 2281799.9563210052 3.635770807964374 0.17198129313696436
0.258719704860539 15.562260122500268 1880795.060592621 3.8252233976390686 0.17438050414489092
0.26929729948091297 15.29276138117092 1557143.7167912365 4.02100214524673 0.1767754856605507
0.2801647704507164 15.052835484635558 1294371.6731811517 4.2233849068976355 0.17915694229206608
0.2913096186635487 14.838758722139987 1059451.7576213677 4.433759945031681 0.18156219654766026
0.3027441967226959 14.647267028493214 904503.7966637694 4.652475543323726 0.18399505897346113
0.3144604006627171 14.475766842495567 759999.6158042762 4.879899492798655 0.18645717072239051
0.32646307108932726 14.321903136387215 640588.1609215394 5.113440159345042 0.18889069007771728
0.3387503133110274 14.18358124679855 541570.9476038213 5.356116121797335 0.19134414817652748
0.3513185361117049 14.059376354407561 459172.85831158864 5.608506044686637 0.19382764793820711
0.36416955943285756 13.947611580001503 390368.6192615163 5.87102359553317 0.19634667481781312
0.3773157664791254 13.846862184865849 332662.1260008487 6.140730737966978 0.19884420983447615
0.3907387462766049 13.756335212193475 284228.1607356328 6.420730899205151 0.20136902927665054
0.4044455175929578 13.674779818168757 243398.5427292653 6.711988856617595 0.20392825515170318
0.418439547706899 13.601345749972543 208880.0793913986 7.014838626816399 0.20651747522751554
0.43271868215300036 13.535392487273432 179642.0353019178 7.32544859304639 0.20907961677409614
0.44727763686025357 13.476092685093795 154815.55219640213 7.648625308860855 0.21168618186129065
0.4621264549748523 13.422892136965983 133669.1050122284 7.984903570591381 0.21433710784062993
0.47725868535547034 13.375405668726833 115634.46885870594 8.332689358446617 0.21699984432496464
0.4926702606139807 13.33269094460932 100197.03731780389 8.691280258623705 0.219654956260902
0.5083643570151621 13.294675598744547 86981.79297973604 9.064500653351393 0.22235842137485026
0.5243372130181015 13.260849034154536 75633.22936956701 9.452958094013795 0.22511284665624667
0.5405978860272432 13.23089274269218 65865.6677570932 9.851695697111483 0.2278471200092315
0.5571286310766761 13.204443027780245 57447.633333477585 10.265988201530561 0.23062207204457905
0.5739428170143092 13.181231751153755 50185.71316191377 10.697240475581024 0.23344752193397106
0.591031051248241 13.160799324747465 43892.946230226604 11.143036589697498 0.23628386840233334
0.6083872377740247 13.143264170427061 38455.01360331285 11.603093568588976 0.23913128555584473
0.6260206496279275 13.127921897209092 33725.50842040117 12.082038928587142 0.24203806801376856
0.6439201407359334 13.115119603362556 29623.0364472339 12.58023751783158 0.24500038047285866
0.6620883870319527 13.104039654531508 26048.01307077373 13.091318027488727 0.2479341044922451
0.6805151009694879 13.095077712513492 22936.63779202896 13.623405755076128 0.2509264631457831
0.6991935485823907 13.087550013948029 20218.071862374665 14.177411019423074 0.25397955880529666
0.7181460710447687 13.081831179623142 17843.37195349146 14.748161418464909 0.25703730684003895
0.7373362808495795 13.077270482370187 15764.37497261805 15.339616226050596 0.2601351417697901
0.7567754167798 13.074105364390444 13944.283382667074 15.955390490744456 0.26329857280826063
0.7764533964303408 13.072036775062054 12347.262071667365 16.593558752143647 0.2664967743623389
0.7963673245886261 13.070895869581 10944.594194469535 17.251304198633754 0.26969912684001673
0.8165324406008455 13.070768783811932 9710.383941648428 17.936175035389645 0.27297381367383444
0.836900585139919 13.071343287947114 8624.253132009568 18.649208304389596 0.27632216055751674
0.8574991138882634 13.07269930527399 7668.270327290007 19.38206527534435 0.27966467534885736
0.8782991224769277 13.074568611667523 6824.246672704632 20.144205674851396 0.28307025236733413
0.8993226658682802 13.077021313750219 6078.580910909011 20.937726112634763 0.28654885370644256
0.9205339996012503 13.079816486471406 5419.299545981714 21.758715758062593 0.29006174178772626
0.9419360372947148 13.0830052408096 4836.533823670756 22.607537297336002 0.29361042401113296
0.9635262943258989 13.086549882294632 4320.357838681529 23.491291092860894 0.2972427201799672
0.9852839922029654 13.09015293867213 3862.268436264192 24.411293300862116 0.30095880357519095
1.007211213469263 13.093933814902737 3455.700184210052 25.358300700167284 0.30467003611665755
1.0293014627933383 13.097858920674854 3094.7173806227124 26.343422611553788 0.30846170511735516
1.0515335594186075 13.101768748615939 2773.8793690823327 27.3690389614629 0.31234225746160094
1.0738922529652508 13.10550022121134 2475.7532916390182 28.433532480188838 0.31629262443582334
1.096384887045801 13.109242351129502 2233.9497940890765 29.532882593480572 0.32027809887820474
1.118990225860566 13.112832653634207 2007.3915809695748 30.677424221022804 0.32435205466176775
1.141686248055984 13.116049755329485 1805.1480582469221 31.869020100674486 0.32851702200155386
1.1644755588222102 13.119017076406937 1624.6992118148307 33.10451225075756 0.3327488290438053
1.1873356923440037 13.121691092704976 1463.474792504131 34.38356527781701 0.33703953240460466
1.2102717915162697 13.123987122197855 1319.1364065087394 35.71534290707579 0.3414363677515393
1.233270489247486 13.12598708480186 1190.0425199570677 37.10187341097992 0.34593713947750115
1.256275836207594 13.127264153601807 1074.4259155796371 38.54236148406114 0.35051733390163936
1.279329346863386 13.128262346456072 970.8208297472567 40.03327397066544 0.3551601312492538
1.3023832778461444 13.128544879893468 877.8595909228238 41.58593953179847 0.3599207368414548
1.3254278780356585 13.128244927698558 794.3936813782542 43.20283764746647 0.3648012254810576
1.3484504278376785 13.127323971175922 719.4278191882057 44.886571644494005 0.369802376352672
1.3714357219624285 13.125764563118857 652.0887191043311 46.632905614833405 0.3748775218200456
1.3943758699768747 13.12348177073178 591.4582222482607 48.44790724376483 0.3800636127664442
1.4172324913532899 13.12038552700773 536.8931667933916 50.33878216399523 0.3853858477163644
1.4400031689038018 13.116519621692715 487.7187452912239 52.308751404431376 0.3908468922112494
1.4626709768540862 13.111851119296361 443.4049211333205 54.361223350327016 0.3964475031676903
1.4852241927682928 13.106303363391818 403.40931725740876 56.49892301303759 0.4021793265709028
1.5076288302756775 13.099851053038583 367.31528452935066 58.71833156854503 0.40802600816286455
1.52986500049095 13.09242099909912 334.71786458723125 61.032220740310855 0.4140344921230958
1.5519370066910814 13.084067864125632 305.22728272404396 63.444883960902814 0.42020757831378636
1.5738177285381778 13.074781039619396 278.55854272712946 65.96087682888769 0.42654564384679955
1.5954798381519228 13.064467576676403 254.41849303466583 68.58511690261615 0.4330563724908773
1.6168965753248097 13.053060119137882 232.56277323799804 71.32272247028102 0.43975360541002434
1.6380742013064284 13.040514051794641 212.73307694459558 74.17918896171686 0.44664403790870877
1.6589708970610058 13.026927784741043 194.75527280582955 77.16039596668915 0.4537309993245547
1.679574833828271 13.01208370542778 178.43234895623365 80.27077530952964 0.4610098208592055
1.6998784242490803 12.99624590208343 163.6155365549296 83.51694146607761 0.46850160747825176
1.7198374942742163 12.97918415883922 150.14933925981262 86.90867080541068 0.47622719955129805
1.7394128141891372 12.960697373799073 137.90696731788495 90.45356972806812 0.48419074417977537
1.7586668089469975 12.941261114843119 126.76326064662788 94.12888117636552 0.4922858095679091
1.7775068007321246 12.920376741509667 116.60812753398965 98.02133459652448 0.5008299005529121
1.787414493760867 12.900902200627971 110.8947761408334 103.30357881290587 2.087189158704345
1.7747333490696262 12.88184446997583 114.34202328102018 112.90409721129724 4.445256302772705
1.752588561574444 12.857383169907896 121.51647940894432 128.75457734041584 6.514456376336017
1.7233779738633705 12.82269029933343 131.57128827258168 149.06542048396517 7.352290859254185
1.686306809211371 12.769676742675566 144.817422857745 171.19496043101958 7.420216864052038
1.6450691324369127 12.700014393104206 160.21588155565723 194.18483373974723 7.486171705008581
1.6013796628282577 12.614504356868734 177.31657867204962 218.0774453844219 7.554375718406986
1.5562782929524315 12.515012781211619 195.9158128145478 242.91116588748514 7.6249447063308065
1.5104200294941985 12.401690144870393 215.67349631438216 268.52231699251644 7.697303722989093
1.464377985966464 12.275305976907202 236.21435552386498 295.1922792585074 7.772300148877909
1.4186427676505726 12.13628478264777 257.06847283088206 322.98291345590354 7.850044149277449
1.3735846718342806 11.985032767594666 277.6259413548993 351.95821745236367 7.930694452990918
1.3296822005838949 11.822063639219756 297.00884239505655 382.18898503986117 8.014410733422126
1.2872615209037137 11.648190553434867 314.41987955217456 413.44531996248224 8.100446193864327
1.2466667837876229 11.464057642953827 328.9125161311852 446.09457506500473 8.18984282780716
1.2082212042471718 11.27080853382354 339.52286288193625 480.22717919915016 8.282805050083992
1.1720320155653425 11.06889735944568 345.58668098963915 515.7358570972435 8.378943808658128
1.1384379293273035 10.860361300793176 346.54715594158955 552.7605809152546 8.478606202281386
1.1075025090631878 10.646063044538678 342.08731357549556 591.5488751908756 8.582442110719462
1.0793161235203454 10.427705404304286 332.3746035900002 631.8789943278656 8.68971394439251
1.0539307384291887 10.207017476662703 317.9340227102136 674.1489518234835 8.801500530554728
1.0313006357860985 9.985574395777544 299.52345186588354 718.2794849355836 8.917478378039114
1.011388894056566 9.765140750342606 278.07809511754994 764.496350902918 9.03820329580634
0.9940137102248938 9.5469532126934 254.7354633625255 812.819508269096 9.163603348582498
0.9790309057961649 9.332208470886156 230.4920681069152 863.5216845433978 9.29438784194772
0.9663403357061153 9.122833873535566 206.36603978861484 916.5258385521845 9.430160420473952
0.9557238266619712 8.919529331001293 183.1469758995225 972.207930342385 9.571891552262246
0.9469684595786494 8.72272998926357 160.68946305791619 1030.615883455092 9.719565741297123
0.9398865942130574 8.533454893228068 141.05802379187477 1091.8854872793386 9.873398036367126
0.9342821856958179 8.351907658437822 122.91229787499873 1156.3075949627826 10.03406339474838
0.9299740773258175 8.178449995718577 106.71685786655989 1224.0652986039404 10.201881455726964
0.9267411082609426 8.012713896701822 92.25818171511236 1295.3627927215996 10.377221149918551
0.9245197226354439 7.855707347071804 80.12702781967094 1370.3658509260472 10.5603120718556
0.9229989129492103 7.705087119757419 69.37942538095227 1449.4149239164324 10.751893059652492
0.922151420454296 7.562604073884373 60.159229611108415 1532.785013472902 10.952470493370228
0.9218225231463679 7.427478929157898 52.27622790355499 1620.7793080268557 11.16260511595777
0.9218868158892501 7.2990573937129595 45.416847991969725 1713.7309181628584 11.382910963929545
0.9222435688766358 7.177136946659789 39.754564420701726 1812.0061177658315 11.614058416689817
0.9228124471989486 7.061281596786024 34.83013131004983 1915.9325285617456 11.856562270918282
0.9234855650751091 6.9511978528118865 30.645910993724815 2026.004204463207 12.111409681625826
0.924200646824288 6.846376542340471 27.054051559224373 2142.7083745549016 12.379492282481085
0.9248856309109349 6.746597689665805 23.950019591949463 2266.577306284139 12.661786110712182
