M[M_sun], R[km], Lambda[1], P_c[MeV/fm^3], rho_c[fm^-3]
0.23841724892012095 16.20908015294055 2780876.1263280716 3.453507347168396 0.169602847481901
0.24840675402773596 15.866489511672437 2282511.364970844 3.635413660599066 0.17197675008740357
0.25867922063978815 15.563426081756607 1882303.102322708 3.824488737704457 0.1743715169744999
0.2692378953043453 15.294035056964718 1558675.0238717233 4.019818533476983 0.17676100641627673
0.28007920160923794 15.054565834875964 1296217.0824186218 4.221764059129032 0.17913798899210043
0.29119857114236203 14.840607144815529 1081985.984532387 4.431679507552583 0.18153878742390453
0.30260943011499253 14.649368545103375 906350.3030960128 4.649911984636824 0.18396729429056138
0.3142989673205836 14.47798345072395 761786.2583474824 4.876801524156022 0.18642462680656846
0.3262740711988131 14.3241934523265 642267.805171234 5.1096822043854635 0.18885153177494363
0.3385322990685633 14.18594412219092 543159.3571331669 5.351779560922549 0.19130087748636074
0.35107127661901744 14.0616011583297 460647.4410259574 5.603563699623912 0.19378014684092482
0.36389494492990143 13.949896104275014 391712.2411756437 5.865446303835488 0.196295028127305
0.3770051826125922 13.849078365394174 333904.5614331691 6.134228380284591 0.1987839968721642
0.3903973342716839 13.758552325543267 285347.84529830504 6.413509732547739 0.2013046675755916
0.4040670318727358 13.676839955850456 244414.00680877385 6.704016520681283 0.2038600955085776
0.41802580687849017 13.603368487428106 209808.4126938632 7.005717107401337 0.2064394906176019
0.4322673667938136 13.537285721334838 180473.29047458095 7.315481373812799 0.20899745383361668
0.4467920496222109 13.477934428600673 155568.96328270403 7.6377733574482765 0.21159990330995235
0.46160150616715384 13.4246944928946 134352.6726155507 7.973126330361617 0.21424693829276553
0.4766851881089353 13.376985395530545 116254.50798991845 8.319434004138778 0.2168983579596191
0.49206423969557367 13.334224923311679 100756.56358156004 8.67698764221519 0.21954980271592808
0.5077173070831176 13.296190570343022 87486.25750959893 9.049124395761496 0.22224922456647836
0.5236515775692703 13.262276801505367 76086.83246941694 9.43644754069254 0.2249996284254136
0.5398666670620202 13.232222940412607 66273.58332798995 9.833315062135567 0.22772107802062758
0.5563508009044635 13.205526892092458 57814.52860697198 10.246337240672727 0.2304922144180895
0.5731177910191864 13.182249517696242 50512.302562667974 10.67626264972508 0.2333140519902091
0.5901590536787852 13.161830786549054 44193.133951203316 11.119815891392252 0.23613612834012682
0.6074726687381423 13.1440496941802 38718.81831116346 11.578389415519052 0.238979367039127
0.6250527669090373 13.128780248538618 33968.86059503302 12.055780823847469 0.241881936076622
0.6429056870976573 13.115743125221746 29840.243929610115 12.551304029930641 0.24482834058044572
0.6610155225377184 13.104630993041049 26036.349283371008 13.060647650919874 0.24775818839050234
0.6793959359225142 13.09547131519483 23110.496888465404 13.590919403343666 0.2507466740577708
0.6980177188788268 13.087982416874096 20377.618640705343 14.14302254953189 0.2537953254234119
0.7169166319896702 13.082099635343512 17986.27863027741 14.71046797543291 0.25683536733803025
0.7360555525471976 13.077552247220716 15893.682469749863 15.29979390701746 0.25992852337941624
0.7554420908854805 13.074315976835818 14061.210843181898 15.913337045489412 0.2630878205629607
0.7750687480312236 13.072092333130595 12367.288398968147 16.5475950192702 0.26626642558005253
0.7949337107780817 13.070944555672462 11038.924275291742 17.20284863589557 0.269464258154048
0.8150323134479751 13.070716957433742 9796.212720915655 17.885104359525474 0.2727337473919323
0.8353517945765877 13.071291101860856 8702.378701692654 18.594363168766428 0.2760677374431635
0.8558872389950019 13.072555256833557 7738.328175747815 19.323448803418167 0.2793973292879006
0.8766389023041568 13.074382357278747 6845.623857380268 20.08251324980363 0.28279802805202325
0.8976028445609094 13.076846358410467 6136.0266678411945 20.872805074261162 0.28627106659524415
0.9187561892988664 13.079649328427765 5471.900122187974 21.688140310634676 0.28975976033219697
0.9401075831296991 13.082855292812784 4884.004176657862 22.53334202060707 0.29330191735595
0.9616246840413152 13.086218635660268 4362.958113938264 23.413283688033385 0.29692735043365265
0.9833310824391064 13.089843793714282 3900.9114680830935 24.327491105791683 0.30062332470756714
1.0052098987009779 13.093657005637876 3490.7861097027685 25.269356400447503 0.3043214718079307
1.0272355089081011 13.09750116028212 3126.6661906583117 26.249981048867035 0.30810565141609036
1.0494082888389253 13.101382224336351 2802.86251192104 27.27085639120064 0.3119778990355651
1.0717147225789758 13.105194184904692 2514.668841804992 28.32718610601421 0.31589796989168806
1.094138254600408 13.108877731054017 2258.0208956965394 29.42119965754054 0.3198742256821546
1.1166909406853665 13.11242435056506 2029.2859635119198 30.560116950502426 0.3239399573567221
1.1393380715640689 13.115706558334303 1824.999911233064 31.74578332953138 0.32809491147988634
1.162079858936966 13.118752513108245 1642.652021065461 32.97124651352616 0.33229236731293255
1.184888502182398 13.121445999683928 1479.8458578587731 34.243612442115044 0.3365715992533504
1.2077696952649462 13.123805897547069 1334.1584065548282 35.56832020348623 0.3409562480795339
1.2307097400559635 13.12574052177189 1203.7084535035635 36.947385069749416 0.34544592635861376
1.2536774488616673 13.12717199146067 1086.8645210856055 38.375509368174086 0.3499868087656645
1.2766878165147497 13.128167060111846 982.1316763233816 39.85799370331664 0.35461525236003205
1.299682376322362 13.128487335412878 888.1851954331245 41.40173656868898 0.35936048982152274
1.322687604712817 13.12833618507023 803.8932102613413 43.009185077338394 0.36422473388324933
1.3456852683753986 13.127512176617815 728.0744032533067 44.68174658340919 0.3692038449501957
1.3686217368462075 13.125977720061476 659.9586846442431 46.41324618912375 0.3742391539261085
1.391521125056039 13.123793600584142 598.649489031427 48.216920952132256 0.3794057133048837
1.4143499820691976 13.120854097181503 543.4700979485276 50.09578232842382 0.3847071718078548
1.4370762700483297 13.117054936194611 493.77568030873823 52.05300740842442 0.3901464374161984
1.4597358680946522 13.112544015285351 448.90983768935735 54.09196788997222 0.39572554733075693
1.482245354111691 13.107074894283008 408.4762678908603 56.208730624671105 0.4014012324578298
1.5046347437354721 13.100778654351773 371.9556609995492 58.412774571417955 0.40722134441467267
1.5268654933061712 13.093633435511007 338.971846416997 60.710338347438544 0.4132015619144685
1.5489101603311812 13.085370036360024 309.12436211714856 63.10565282866911 0.41934515979376474
1.570764899331569 13.076186511928698 282.1467119059689 65.6032146770137 0.42565321103139847
1.5924126480653702 13.065948546756818 257.6971137396768 68.20786097242234 0.4321300514686206
1.6138344631274628 13.054684930422326 235.5621447911337 70.92461505670308 0.4387912392704421
1.6349988167297516 13.042380495324567 215.50430631834107 73.75810522101216 0.44564078514165073
1.6558994701731815 13.029023034527825 197.3065373329888 76.7103556515611 0.45266552946318583
1.676497341801309 13.014383715959134 180.78023566918597 79.79271977650382 0.45989108885741387
1.6968097173984964 12.998725333170135 165.78059581088183 83.01182900378556 0.46733636605916035
1.7167787340433043 12.981770992574441 152.1351899310719 86.37470564593247 0.47501244148134986
1.7364225002077949 12.963821968346338 139.73575766335685 89.88883106886166 0.482924474179141
1.7556567529965317 12.94436165053212 128.44217731567596 93.56221619406004 0.49107980885960845
1.7745314854914451 12.92386954323532 118.16974936836989 97.4034660810313 0.4994966992529521
1.7929744788040265 12.901904009722438 108.80048498669578 101.42176163250653 0.5081916175905715
1.8109946378228359 12.878670051259993 100.25942241752563 105.626928197879 0.5171722645304445
1.82859283745205 12.85434419630741 92.47477233858305 110.02951706154425 0.5264507103624279
1.8456758481443025 12.828414422022597 85.36280721093827 114.64086492148294 0.5360499724856496
1.8622806941446945 12.80117116356326 78.86301852196964 119.47313696131101 0.5459901660868227
1.8783992953720168 12.772528002290654 72.92219080050909 124.5393688353056 0.5562799872858671
1.8939740595831702 12.74269138442271 67.50023063017048 129.84876529847932 0.5669240054584319
1.9089948804450267 12.711172364488764 62.52558386983739 135.41744135302463 0.5779561164695448
1.9234567917920242 12.678339346575424 57.97178691587933 141.26410406671113 0.5894045135129965
1.9373405226573959 12.644218544817125 53.80658852266388 147.40622771085768 0.6012860720052601
1.950623912846701 12.608523282766068 49.981199644636035 153.8626215918756 0.6136360751913592
1.9632469107718136 12.571271671660064 46.47741114170221 160.65361831452208 0.6264866635388313
1.9752472192528356 12.532568946131317 43.2560532708593 167.79113509450033 0.6398203759317432
1.9866011362903948 12.492444670969787 40.298633545783986 175.30164619643878 0.6536906638656983
1.9972531322836773 12.450713750437332 37.58217427902066 183.21618962019593 0.6681563533969761
2.007226541236058 12.407651440917244 35.087524054877015 191.56238739433306 0.6832418867788298
2.016476076014085 12.362976448855996 32.79290963828844 200.34908521624226 0.6989275384129965
2.025005470558701 12.316809841796168 30.679607083368953 209.62713367452207 0.7153252815692485
2.0328005907188484 12.269202614801985 28.734211482613308 219.42832722772928 0.7324562652289893
2.0398379089775758 12.219971158017874 26.941288116390847 229.77177481017742 0.7503227197978446
2.046103455928548 12.169267032878928 25.28940409734388 240.71937221659812 0.7690516906260892
2.051600988714353 12.117213630347525 23.768106530159777 252.29151900687063 0.7886056681331265
2.056287766394537 12.063491058549323 22.362730202529498 264.55342617011513 0.8091225220566566
2.060171941999928 12.008377905554193 21.06871865255312 277.5374018830677 0.8305990187952746
2.0632341681392576 11.95178270846717 19.87382013724746 291.3175854495138 0.853157764312178
2.065477849865586 11.893730420197548 18.77122946594464 305.9279083955077 0.8768018885456746
2.0668968103974987 11.834292914354076 17.75187801153921 321.45597240486836 0.90166500561626
2.06745661455005 11.77335643193675 16.811749114079774 337.9632685660774 0.9278148849709957
