M[M_sun], R[km], Lambda[1], P_c[MeV/fm^3], rho_c[fm^-3]
0.23841724892012095 16.20908015294055 2780876.1263280716 3.453507347168396 0.169602847481901
0.24840904727670418 15.866437721204203 2282463.823561807 3.6354466060237627 0.17197716916566574
0.25868265125207185 15.563317764731599 1882121.5197306357 3.8245565029836928 0.17437234595411671
0.26924118374662154 15.293998351654317 1558669.427548721 4.019927703070854 0.17676234189912454
0.28008682907838023 15.054417900891869 1295970.437209185 4.221913547953728 0.1791397370319786
0.2912076590361467 14.840494443532968 1081806.5066517608 4.431871372673301 0.1815409462940462
0.3026225160940993 14.649164990351208 906168.8440530592 4.650148391570233 0.18396985470143667
0.3143158021402274 14.477730617131662 761650.1744642821 4.877097099062251 0.1864278280375707
0.32629271945873733 14.323908307266453 642083.9209697923 5.1100287142991 0.18885514244624177
0.3385515685083982 14.185769426722372 543020.996227058 5.352179401172577 0.19130486713716346
0.3510940417574559 14.061444009574137 460485.47510351444 5.604019370966968 0.1937845263183835
0.3639207769510801 13.949558473135511 391542.26075321814 5.865960489731508 0.19629978957807265
0.37703390914409346 13.848899573540084 333797.57151049416 6.1348278094552064 0.19878954769047072
0.39043024140463894 13.758371280000587 285245.65457384125 6.414175393554058 0.20131060056076253
0.4041016058012948 13.676689287653005 244326.81003658747 6.704751390811226 0.2038663782952289
0.4180624970434731 13.60322254611025 209732.32153608915 7.006557847356445 0.20644667854040888
0.43230870749290223 13.537160485051643 180413.05564804695 7.316400020084214 0.20900502652537264
0.44683739251736637 13.477703899402485 155493.56753365113 7.638773501074224 0.2116078549621388
0.46164854588525844 13.42447389946 134292.34114704217 7.974211702563379 0.21425524817851027
0.4767442812575395 13.376753116831091 116185.64512420933 8.32065550939539 0.21690771011467017
0.49212446676757415 13.33418998597597 100707.68791151368 8.678304675776348 0.21955949238672362
0.5077777114959184 13.296037223399061 87440.15998129486 9.050541224062961 0.2222592863859833
0.5237153138664182 13.262136848862216 76039.9679452307 9.437968823598162 0.2250100603567862
0.5399308075001068 13.232076106873768 66236.64509983524 9.835008530335607 0.22773269068253235
0.5564203288338492 13.205504211958766 57783.74189493243 10.248147673711507 0.2305041781352347
0.573191498718743 13.18215943177612 50482.43114878021 10.678195248071203 0.23332634801146235
0.5902397444405568 13.161752919356635 44164.5779268884 11.121954955722128 0.23614973798670186
0.6075565287509915 13.143980751019091 38691.72871940938 11.580665043755106 0.23899336104512445
0.6251415253763001 13.128680219008341 33946.4104550592 12.058199499839944 0.24189631763887787
0.6429960914819043 13.115624428844507 29819.281549715455 12.55396893533603 0.24484418623447832
0.6611153814020883 13.104616395021571 26225.100690241932 13.063472422593902 0.24777439043549818
0.6794997044392422 13.095414762042065 23094.85113943728 13.593911314084451 0.25076323217755997
0.6981275020631874 13.087919351533994 20209.96246608087 14.146189521013095 0.2538122922110637
0.7170306359963811 13.082028725922996 17971.95603601988 14.71393904304976 0.25685396329556565
0.7361779741415512 13.077488812711078 15881.444847116752 15.303460878792642 0.25994754948899823
0.7555640872586507 13.07425581892682 14049.832292317067 15.917209322992433 0.2631072266109845
0.7751960593624668 13.072099728186927 12442.370060573156 16.55182701614487 0.26628763437372044
0.795068651953464 13.070950220592897 11029.850255222895 17.207309897788665 0.26948588231151066
0.8151729631979393 13.070734096294554 9787.925819972128 17.88980622033465 0.27275584927766966
0.8354930032463044 13.071316856328837 8695.400184116643 18.59948955685196 0.2760918348906019
0.8560340801496193 13.072561869574411 7731.594817250218 19.327346182519626 0.2794123951576587
0.8765871402555696 13.074358583513188 6889.535544780456 20.09902488834259 0.3094216942035337
0.8949728931664462 13.074062445410895 6215.074633832172 20.921439674858394 0.3850518548626081
0.9109693836774125 13.069678328468717 5672.654242756273 21.823095707565464 0.46025022850402086
0.9249440932921115 13.060709339657041 5193.917859258836 22.79999809949009 0.5324900305778171
0.9373168271619637 13.046963854856418 4841.3171769554165 23.85260068813126 0.6016383776225157
0.9485000703787623 13.028626474116935 4503.950983578384 24.98376975767837 0.6655772489296368
0.9587508121129547 13.006129785379116 4201.3221671010015 26.189909907199688 0.7259353711783835
0.9682820946062797 12.979732965287848 3925.2855341093355 27.47378999482358 0.7850880107646147
0.9772405445410749 12.949540198644911 3670.4614402264924 28.838943034914365 0.8427831210071179
0.9857814878356617 12.9159353986603 3433.0876987836855 30.282464729902554 0.8973738348206292
0.9940474087467996 12.879028632145467 3209.380525648012 31.802406294173302 0.94787375579143
1.0021541624465486 12.839325570479057 2998.273914166103 33.406489518013274 0.9968710010402797
1.0102126988357796 12.796844026616293 2796.9220173046297 35.097290502875026 1.0446567689957227
1.0182972220276698 12.751879918639307 2605.290139394957 36.86609001934647 1.0902324938111763
1.02647278547544 12.704836491431957 2422.9198427795086 38.717578628546484 1.1346282688912461
1.0347964563339842 12.655883539620161 2249.1958693468628 40.66140433048162 1.1786959982614056
1.0433058727633782 12.605232584383847 2084.156312163856 42.70054841373294 1.2224977547459106
1.0520364216325488 12.5530570122125 1927.5126290165963 44.830757487733955 1.2656412357355071
1.0610156663496775 12.499646144796035 1779.2715511001882 47.048256808263815 1.3079907644535849
1.07027592924205 12.445178249116202 1639.5623309291007 49.36947438539676 1.3504618372375816
1.0798019785107096 12.38974363626103 1508.2139302275575 51.79789831679518 1.39312886939466
1.0896811459354254 12.333815275966298 1384.8129005542362 54.33711224340922 1.436094023564569
1.0998245806236433 12.277095458814111 1269.538202642891 56.978756539460356 1.4790955378416646
1.1103102441260908 12.220107402322766 1161.9176205016802 59.730154077450806 1.5226141108359446
1.1211046495840196 12.162901919057033 1062.0375544636074 62.60461768241591 1.5672635274531503
1.1321759324899079 12.105418760052777 969.3983185882303 65.60689539547168 1.6134428286163123
1.1435707762831202 12.048090012436601 883.8896665676618 68.74212676897538 1.6617383730290276
1.1552223727705746 11.99074888337427 805.10077394133 72.01597338628888 1.713020066741574
1.1671293631600266 11.933718911444684 732.8435065286491 75.4201129600759 1.7693659226606222
1.179217421660513 11.87685679772561 666.7116495977433 78.97566397637604 1.8345153940402563
1.1914545464169246 11.820291125447906 606.3615640274334 82.69586494593545 1.915784242749307
1.2037974899448323 11.764154609326765 551.4478198908208 86.5849504264346 1.9795294770269753
1.2163565701380123 11.707890362085687 501.1062706792684 90.64163812058251 2.0148096422419517
1.2292180552796923 11.651523432659918 454.80780013760955 94.86397378448164 2.039918539560541
1.242407319708632 11.595729275117122 412.42260196327567 99.25667950341253 2.065902656084548
1.255902044876908 11.54024811458454 373.60521802618234 103.82787329448492 2.0928152189642013
1.2696354635977005 11.485336479379292 338.3267556520958 108.58496383564382 2.1207013918131095
1.2835926621346079 11.431039430510546 306.2453941127237 113.53159001806523 2.149560552083086
1.2977548343275074 11.377501584779647 277.1918613499746 118.6871018831238 2.1795283584604324
1.312006141868446 11.324493326626106 250.90927599497905 124.06237280899602 2.210663114235716
1.32636701306371 11.272076786705457 227.13629297346617 129.66898144948993 2.243009220268625
1.340796718348524 11.220458766361734 205.71549728153244 135.51952903887204 2.2766283530502025
1.355249012030128 11.169490285600112 186.3964780740784 141.62758251035052 2.311594290686099
1.3696438380071714 11.118981182278247 169.00960979582405 148.00754169862213 2.3479574605462394
1.3839754712359478 11.068918598331859 153.33180158946774 154.67517444338299 2.385803317256926
1.3981944632132486 11.01926425092966 139.2323256553914 161.64723486338772 2.4252093581931757
1.4122769745707 10.970135623149593 126.53125058803545 168.93882761212234 2.466227762148673
1.4261405236445508 10.921208747211237 115.1333460237559 176.5638116171997 2.508927579721245
1.4397860836920675 10.872747436055535 104.87068057488472 184.54978166074523 2.553426116243149
1.4531501419764907 10.824167559082715 95.6122123253742 192.919148829303 2.5998467653508825
1.4662289991553263 10.775919077664884 87.28935913490028 201.6965054978644 2.6482856872868688
1.4789637131304918 10.727672178217373 79.78430808602067 210.90792156698893 2.698866089024682
1.4913264721344937 10.679318219226825 73.0079107892315 220.58199016811133 2.751720277876599
1.5032854797862205 10.630849512858326 66.90195219375772 230.74125452915496 2.8069162495343982
1.514807647498561 10.582300463389943 61.39131794978883 241.4076335307744 2.8645325662834416
1.52586326484041 10.533500417337395 56.41239121350861 252.63375492746943 2.924838010624059
1.536415429150978 10.484480798897946 51.91656622393157 264.45841962473213 2.9880120850261394
1.5464606523945152 10.43499819165457 47.83854112627146 276.9076624953177 3.0541049174950037
1.5559487235595943 10.385116231110022 44.15303570202806 290.0219889260151 3.123293294548537
1.5648602273713905 10.334812497734013 40.811517593503325 303.8687312272017 3.1959097664552276
1.5731872525419275 10.284040781325551 37.778277504545386 318.478702227999 3.272016743496275
1.5808791800889157 10.232772118955522 35.030886359868255 333.9114110965399 3.351874976232512
1.5879372728208228 10.180874728501957 32.53233269657185 350.2413710435496 3.4358238930867206
1.594339987245516 10.12834007769885 30.26034144861132 367.5023387604489 3.5238963197448423
1.600064801886776 10.075206432901396 28.1933669238558 385.80335987723333 3.6166548869183868
1.6050948582447893 10.02139504966245 26.3114388337506 405.1807343820734 3.7140747939390053
1.6094134942083433 9.966870275467274 24.59551108360721 425.7550596860427 3.8167884567148245
1.6130165451093443 9.911677505373722 23.02765052779397 447.5924480114622 3.9249209826251423
1.6158749429789074 9.855688369517807 21.56975861377821 470.80386517507657 4.038929897773202
1.6179958848767622 9.798992404616017 20.303714878358203 495.5078575166819 4.159316816048114
1.6193455350265549 9.741551713378982 19.115990003361745 521.7998735309077 4.286301521589885
1.6199410091175392 9.683423478808024 18.029380930029003 549.8290127843815 4.420510467317331
