M[M_sun], R[km], Lambda[1], P_c[MeV/fm^3], rho_c[fm^-3]
0.23841724892012095 16.20908015294055 2780876.1263280716 3.453507347168396 0.169602847481901
0.248424828032283 15.865922792340832 2281907.526509121 3.635740307163062 0.1719809051552362
0.25871820592656375 15.562337943795905 1880917.9302275446 3.825160652925844 0.17437973658237346
0.26929275457222385 15.29283699018628 1557393.0885270967 4.020901050467712 0.17677424895774185
0.2801569713325792 15.053003224900902 1294639.6664339 4.2232464585452 0.17915532335338208
0.2913006099237855 14.83890531835546 1059595.1577715839 4.43358222942962 0.18156019688818298
0.3027320599568087 14.647409629152307 904639.1080594304 4.6522565460294665 0.1839926871180938
0.31444682569754284 14.47595855945252 760123.6544984692 4.879637117298011 0.18645443674090187
0.32644659885064686 14.322133522099763 640743.2378226685 5.113119088926344 0.18888734448874606
0.33873198486908546 14.183881775490581 533119.4861734569 5.355745596922592 0.1913404510378231
0.3512985652934906 14.059566465766324 459279.66908233427 5.608083738389068 0.19382358913367828
0.3641475453683226 13.947722434295946 390466.63505885215 5.870547011087759 0.1963422615630136
0.37728871141819387 13.847123849593679 332788.84121241036 6.1401750674467355 0.19883906422887776
0.39070978212089724 13.756462438896815 284311.9296933749 6.420113771148743 0.2013635288619162
0.40441267729925845 13.674896407912296 243470.29484648272 6.711307500113029 0.2039224298808461
0.4184025132339909 13.601543806650216 208964.99506759955 7.014059000082442 0.2065108097933966
0.43267889360464473 13.535573507083571 179718.6077668353 7.324596643483146 0.20907259388439986
0.44723798316332747 13.476310338444085 154881.8574539477 7.647697694146617 0.21167880685096285
0.4620818358268933 13.42305610647991 133724.98209099515 7.983896817831493 0.21432939988533656
0.4772115213160022 13.375517066821823 115692.24341751072 8.33155617032331 0.21699116834835802
0.49261691001138186 13.332794044449894 100252.7053118471 8.690058342377077 0.21964596638659756
0.5083100759183233 13.294785482606054 87023.46434639502 9.063186037082842 0.22234908542948645
0.5242785290024722 13.260906726303702 75666.89479424854 9.451546439791016 0.2251031664843868
0.5405348832904822 13.23101734268341 65898.58886847454 9.85012403474475 0.22783634260951832
0.5570618534347886 13.204569789000068 57482.1843744988 10.264307848564439 0.23061096792354274
0.5738669387502029 13.181217096898088 50209.33756772633 10.695446589455159 0.23343610845947763
0.5909560327280062 13.16094812776353 43921.058547282075 11.141050757948143 0.23627123368729055
0.6083101516382229 13.14330897507173 38475.60335925369 11.60098078757072 0.2391182929809714
0.6259393666257199 13.127980225312589 33745.46257812327 12.079793159830503 0.24202471456614416
0.6438297873190818 13.115009322120942 29639.955794125795 12.57776274133225 0.24498566533432617
0.6619967824680989 13.10414772499346 26066.41380903771 13.088694587223964 0.2479190572239634
0.6804174587862301 13.095043793896945 22950.79066031048 13.62062687582769 0.2509110840053402
0.6990947804866593 13.087559120154127 20230.908025188306 14.1744693214153 0.2539637989016379
0.7180463047436825 13.081907661812675 17855.986939428552 14.74493674827551 0.2570200309363324
0.7372286778599605 13.077332950110026 15775.721797776147 15.336209302454764 0.2601174649220678
0.7566607999202754 13.074147342011322 13954.260592822326 15.951792552842791 0.26328054162231074
0.7763384408313884 13.072010863325918 12355.55433132282 16.5896259468469 0.26647706497725543
0.7962475251726556 13.070963419998575 10879.939238614434 17.247158030877568 0.2696790299735751
0.8164018744640978 13.07079225742298 9717.905268283577 17.93180494065211 0.27295327131018937
0.8367742414358739 13.071407872467322 8631.179025476747 18.644602837732393 0.27630115531224675
0.8573561549819001 13.072666999219473 7674.383163699344 19.37704889072047 0.2796417959324516
0.8781676026790627 13.074631259287361 6829.601502260281 20.13892585675933 0.2830469546145879
0.8991736452576609 13.076988046846626 6083.450155661951 20.932169776487818 0.28652507900095764
0.9203870949471863 13.079821411357795 5423.931150148692 21.75267497156862 0.29003589419391745
0.94178305881205 13.083052185384693 4840.484928604368 22.601186444013248 0.2935840169323735
0.9633600132874629 13.08647924261825 4323.938387206947 23.484613687733166 0.2972157246458147
0.9851343743872715 13.090234969858024 3865.3471198158786 24.404272404738286 0.300931289346491
1.0070514271093565 13.093961320825787 3458.636677021864 25.350686156062423 0.30464019543759724
1.0291229136663813 13.09779285310803 3097.4868283416113 26.335422756825956 0.30843122213094604
1.051364329190042 13.101799062867702 2776.360327825561 27.36063289584013 0.3123110623031193
1.0737108170084042 13.105510985275636 2490.4619753162665 28.424426643676025 0.3162588324068442
1.0961842571194738 13.109197390515615 2236.1526554066377 29.52331945183384 0.32024351618615216
1.118788553571037 13.112740580383342 2009.2367457879964 30.66737909346645 0.32431676639722584
1.1414856277602259 13.116022501894712 1806.9117059148753 31.858466813333347 0.3284808748874778
1.1642690523213948 13.119002681531539 1626.218568619713 33.09309909076891 0.33270973669440346
1.1871367833628421 13.121714858064834 1464.7986466215934 34.371578944289546 0.33699945602607784
1.2100572335253228 13.123947056199562 1320.4015013531737 35.70275056237214 0.3413952459910133
1.2330513420073752 13.12591484312958 1191.168601835459 37.088641100164025 0.34589506585165863
1.2560561828640886 13.127279404541165 1075.4805136771683 38.528068827509415 0.35047188878684277
1.2791038748180026 13.12827418761575 971.8292876908215 40.018258725213435 0.3551134546302194
1.302155369226479 13.128590759858195 878.7554126440872 41.570159257575156 0.3598727416764581
1.3251813936664996 13.128222131556585 795.2139964962238 43.186247123751784 0.3647518365288819
1.3482135951518772 13.127376713929431 720.2089005757581 44.86912377457203 0.3697516698558313
1.3711922997077377 13.125800972692454 652.6904824421653 46.61408434999911 0.3748228240024824
1.3941256206949764 13.12347641160535 592.0658626127934 48.428114548421334 0.3800072388426183
1.416978000049112 13.120350025091005 537.4451750360007 50.317959085777304 0.3853276907982978
1.439755611903331 13.116564241743543 488.2213134908225 52.28683521385257 0.3907868661655949
1.4624209504400938 13.111865031415226 443.8559444904622 54.33814816303086 0.39638563156763124
1.4849634658379702 13.106389149427411 403.8684031903235 56.47405096208486 0.40211263703250616
1.50738009124689 13.099936517202284 367.70366588730053 58.692141319743804 0.4079570379086579
1.5296098895285963 13.092567363174796 335.0868404759436 61.00462977124576 0.4139630953889826
1.5516724299146947 13.084171643436571 305.5687279096932 63.41580436854341 0.42013365001940994
1.573567346503803 13.074917534070703 278.8435102218006 65.93021563981084 0.4264691385438257
1.595211702853198 13.064531454136032 254.69241540546102 68.5527742209371 0.43297695768634376
1.6166352855518866 13.053139883479119 232.80973858932094 71.28859023263509 0.43967109574389324
1.6378122984303678 13.040644621244384 212.9657919361601 74.14315186829332 0.4465583078560147
1.6587278065697728 13.027192026722439 194.97534375496946 77.12233135937252 0.4536419216099402
1.6793209119112102 13.012342837884463 178.6337098597112 80.22977921915903 0.46091388297107844
1.6996410720709858 12.99666588921797 163.81498144908477 83.47362241105638 0.46840167496635615
1.719553574908013 12.979285764289306 150.31863292252254 86.86287440934358 0.47612301383672556
1.739170658183178 12.961076177585317 138.06463067262547 90.4051308488152 0.4840821334114804
1.7584042999860692 12.941445168954582 126.90188296141605 94.1085241008226 0.4922871710477659
1.777234474356578 12.920611915980304 116.73789812836621 97.98180765762838 0.5007586083730738
1.7956569387479737 12.898553781336629 107.4907237667214 102.03432561185643 0.5095116513586743
1.8136549801881865 12.875157058868128 99.04909670248085 106.27606197278322 0.5185528054658828
1.8311829691009385 12.850305407246713 91.34973320328876 110.71774110749845 0.527895820543272
1.8482685541718378 12.824369763786773 84.33002553009526 115.37090465421446 0.5375653927129407
1.8648353005503095 12.796905632745075 77.91023620013803 120.24529586819645 0.5475707730059675
1.8808779747051916 12.767962315655994 72.03974394767195 125.3529825884189 0.5579156042506538
1.8964037732513834 12.737759731726216 66.67600298710846 130.71080352438074 0.5686348756438966
1.911355949815407 12.706038005320732 61.76870629519811 136.33407647436277 0.5797570391243355
1.9257640593339682 12.67297035386243 57.27170843805758 142.2393062322121 0.5912994831258177
1.9395483909973894 12.638414727103054 53.15687672578582 148.44428923689756 0.603282865518442
1.9527613802680412 12.602454141522049 49.37971077466037 154.9682024364422 0.6157428244667589
1.965298790332648 12.564882304258262 45.919815378043566 161.8236193028059 0.6286824040782758
1.9772052428139983 12.525862660700168 42.737740503030686 169.03308580470662 0.6421204215206193
1.9884573156824836 12.485378027184083 39.81988854559915 176.62693250761924 0.6561239726282918
1.9990251292574757 12.443442013583896 37.14008608327865 184.63123031876913 0.6707325928973081
2.0088862766892617 12.399950300312769 34.67488142107735 193.05958335648276 0.6859205585157141
2.0180313631750604 12.354987463715014 32.4091155865722 201.94920652075223 0.7017666603786598
2.026457644943634 12.308467258335286 30.319878063934564 211.3390211025574 0.7183390458537586
2.034121014952341 12.26035726863507 28.399299373614312 221.2445108888851 0.7356012467231028
2.0410361142197524 12.21083939237962 26.62943166704854 231.71754726842747 0.7536671958377928
2.0471735076042163 12.159868712366247 25.002019074150102 242.79381736919086 0.7725713198160884
2.052525219402559 12.107342001377809 23.499525384101016 254.51127675880147 0.7923351735083206
2.057067633702645 12.053339372411623 22.114236161875514 266.9871396104749 0.8447730414792988
