M[M_sun], R[km], Lambda[1], P_c[MeV/fm^3], rho_c[fm^-3]
0.23841724892012095 16.20908015294055 2780876.1263280716 3.453507347168396 0.169602847481901
0.2484190911859555 15.866145060524152 2281855.954770772 3.6356354858274496 0.1719795717882035
0.258704159532706 15.562710234286945 1881372.1512814888 3.8249450253007775 0.1743770987875024
0.26927326689035413 15.293283134981893 1557765.2915728337 4.0205536390313785 0.17676999903798032
0.2801319888574776 15.053491875023866 1295037.58885 4.222770693690578 0.17914976002153968
0.29126770514116873 14.839483896594295 1080837.3365350135 4.432971541086501 0.1815533254108404
0.3026939943690071 14.648029550302347 905176.3001074046 4.651504018086335 0.18398453684643393
0.31440103223437715 14.476564582577781 760642.3075565037 4.878735551861825 0.18644504233019174
0.32639247015864253 14.322708654106448 641238.094990204 5.112015868950722 0.18887584881562172
0.33866741804900174 14.184490943555561 533554.8908937069 5.354472476223985 0.1913277476968843
0.3512255940608243 14.060287799979443 459721.4334403624 5.606632728360113 0.19380964341202828
0.3640649161160113 13.948444831473353 390895.6910639815 5.86890954015563 0.1963270982975737
0.377196985472085 13.847760820730553 333160.73718195007 6.138265923557634 0.19882138522463688
0.3906106558411708 13.7571218160266 284643.97145581635 6.417993517992268 0.20134463120918217
0.404303726051453 13.675549388581844 243764.6022532075 6.708966625374496 0.20390241652615876
0.4182829213080062 13.60213731788356 209232.41325583187 7.011380585751447 0.20648791063731467
0.43254723105359755 13.536143126792929 179963.56848167366 7.32166982025803 0.2090484671548875
0.4470942785877661 13.476791425028006 155097.8853913493 7.644510988256862 0.21165347091300513
0.46192694804110696 13.423576629509235 133927.7785365223 7.980438307337333 0.21430292064899098
0.4770418696020155 13.375914778982185 115865.65255221096 8.327663431402348 0.2169613645486894
0.4924393105784182 13.333250908489196 100411.0413299218 8.685860879968532 0.2196150848433211
0.5081198886064049 13.295281472378088 87174.75284931564 9.05867021684403 0.22231701565214454
0.5240750208772876 13.2613464534741 75801.1764495967 9.446697370728762 0.22506991484165056
0.5403172929647043 13.23133759609113 66019.77278240806 9.84472549863459 0.22779932309263187
0.5568308193416228 13.204846425089718 57589.992695254616 10.258536067903139 0.23057282679941568
0.5736283926273623 13.181547062217739 50305.1432198268 10.68928494197324 0.23339690541009872
0.5907047477607835 13.161284088934556 44009.32454653919 11.134230028262998 0.23622783727368013
0.6080405971317933 13.143510503105944 38553.58324877889 11.593724145796422 0.23907366816620512
0.6256539563707839 13.128269274631483 33818.194708019466 12.07207987930593 0.24197885103402728
0.6435335800683133 13.115213955324824 29703.588388317425 12.569263186664005 0.2449351265788298
0.661686490773691 13.1042761918347 26121.702621044624 13.079684595962759 0.2478673786103719
0.6800893319497046 13.09515144981949 23002.26769200396 13.611083193894668 0.2508582664441333
0.6987457262111308 13.0877011390201 20278.575012799574 14.164366619808117 0.25390967451374996
0.7176839746098042 13.08203155448259 17898.29188187375 14.73386259482434 0.2569607020755754
0.7368530668046581 13.077451069970152 15814.371475646258 15.324509437543082 0.26005676008833795
0.7562728077383699 13.074205115640323 13988.06795017671 15.939436908909942 0.2632186209001159
0.7759311788386304 13.072035408704405 12386.449745812088 16.576120790266987 0.266409383434041
0.7958284204645506 13.070956213932087 10980.315820261532 17.23292041140143 0.2696100188881864
0.8159570848497828 13.070711301910778 9742.705838735774 17.916798602778794 0.2728827315008515
0.8363151164234297 13.071385026725487 8654.650782900504 18.628788505073548 0.2762290271304564
0.8568855710458508 13.072636985927689 7694.656719189454 19.35982413107442 0.2795632348814197
0.8776810010037235 13.074518233090386 6847.833567156166 20.12079682203063 0.2829669583417481
0.8986680069829687 13.076848289777725 6100.150378871851 20.91309156657002 0.28644344628292556
0.9198655704288262 13.079763422296537 5439.1495619909665 21.731934083940466 0.28994714713437786
0.9412399113970147 13.082881154091709 4854.334760580117 22.57938128251539 0.29349335027896906
0.9628076842849007 13.086324992977223 4336.056796837247 23.461687687925497 0.29712303899937714
0.9845531640726743 13.090039137633314 3876.613864091084 24.380026797999488 0.30083571695367084
1.0064590961083926 13.09388761725053 3450.3473389735486 25.324543957329666 0.3045377466302134
1.0285140953688285 13.097693533391508 3106.8424669107626 26.30795813794956 0.3083265697800693
1.0507237783587406 13.101578896365076 2784.6272110693194 27.331774149505478 0.3122039666407856
1.0730543632504117 13.105341585717083 2498.2924433034605 28.393166681654833 0.31614282576198294
1.0955235600076598 13.109057116373277 2243.1837425056947 29.490490100856753 0.32012479711065717
1.1181156055646901 13.112659543341541 2015.63277443264 30.63289568304092 0.3241956270983392
1.1407965509380293 13.115904118814786 1812.6275490233502 31.822239552656608 0.3283567892938599
1.163569417571722 13.118943192436792 1631.4650953588687 33.05392155949649 0.33257554583554166
1.186418382306052 13.121646039742126 1469.617602615782 34.33043457977984 0.33686188959489544
1.209325602965626 13.123890347454749 1324.7823157835644 35.6595267245202 0.34125409354077524
1.2322950219121438 13.125829752748162 1195.172859444749 37.04322131914861 0.34575064853114074
1.255307287154633 13.127309401098742 1079.121453607555 38.47901135341363 0.3503159050105695
1.2783249051899195 13.128164045585532 975.0825147197027 39.96672196405486 0.3549532466752744
1.301352965497437 13.12848044082405 881.7488331921164 41.515997650208234 0.35970801099780986
1.3243880684979217 13.128279217885185 797.9625209756169 43.12930557796459 0.36458232510597216
1.3473975775633587 13.12741875845738 722.7320359624367 44.809240768557046 0.36957763958916323
1.3703677130747784 13.125845432133868 655.0352694340091 46.54949034980514 0.3746351027802695
1.393293756259683 13.123581018822446 594.1853925162416 48.36018791208102 0.37981376893079777
1.416134265591105 13.12057797828636 539.3794410410534 50.24649765467022 0.38512810567690897
1.4388922823182013 13.1166888350308 490.0058580333844 52.21162388393203 0.3905808705703608
1.4615566067342924 13.112120255238708 445.4591442541217 54.258961019020866 0.3961733067339853
1.484103238942749 13.106612184496656 405.30082437302735 56.388701178625716 0.40188378828690174
1.5064801062921387 13.100158475122107 369.0779138157312 58.60226994256643 0.40772036769689823
1.5287325477717848 13.092857880202159 336.29671030534183 60.90995386886696 0.41371810398570436
1.5507962835365108 13.08458203804846 306.68975921922794 63.316022572637735 0.41987997734443033
1.5726608470035452 13.075283176044138 279.9075121947256 65.8250092098211 0.4262066291616557
1.59431158357479 13.065004006217206 255.66607624484897 68.44180069679508 0.43270447129156697
1.6157296035020063 13.053610775839338 233.69859974964297 71.1714791695205 0.4393879969673619
1.636906990644346 13.041199822171976 213.7788798895767 74.01950802992123 0.4462641666872375
1.6578226359871793 13.027793541228572 195.72047168572834 76.99102785061639 0.45333323154814487
1.6784204966034046 13.013007699367435 179.31664113062226 80.08913099310891 0.46058474198094795
1.6987375738020272 12.997343674238591 164.43852085725928 83.32500843088064 0.46805883811697213
1.7186833629567264 12.980246969046252 150.91211542753652 86.70576558451565 0.4757655949875139
1.7382864805112501 12.961856058295279 138.58596806984607 90.2389612157207 0.4837095440412048
1.7575160018357723 12.942393378268758 127.39907788721526 93.93268850236375 0.4918985673861983
1.7763752981634908 12.921688153949937 117.20118522457203 97.79565303602699 0.5003524293531704
1.794815483593969 12.899659166555294 107.90333001612817 101.8371462417004 0.509086743209071
1.8128114317556665 12.87625440077413 99.43509849640782 106.06710091427271 0.5181083989254454
1.8303618544063465 12.851717032338202 91.71301900460647 110.49618554689711 0.5274306054754031
1.8474230213697485 12.82559338145739 84.65726175185516 115.13587561820678 0.5370775182326927
1.8640262347474892 12.798333296451714 78.21461443631804 119.9984866873645 0.5470685556263565
1.8800859512878305 12.769463653452949 72.32203989765213 125.09183024742005 0.5573919045631508
1.8956383574128657 12.739385722107508 66.93731569314673 130.4332427363335 0.5680840062477889
1.9106093752212376 12.707738052694394 62.00993076961918 136.03891969032298 0.5791771414892587
1.9250221472920261 12.67473027007148 57.497772245048196 141.92527254229654 0.5906892667821262
1.938849921671109 12.640248116798912 53.35896092506136 148.10999366729442 0.6026398215291174
1.9520539959271765 12.604268179543206 49.57051095837622 154.6121412524906 0.6150643289546717
1.9646407180791043 12.566911631894262 46.09577434988102 161.4485633690899 0.6279814530503423
1.9765838030083611 12.5280328577303 42.90405549314674 168.6330660914215 0.6413796001905586
1.9878515087969963 12.48764126743496 39.974853485887635 176.20004296254305 0.6553401766576172
1.9984510701659592 12.445743859326342 37.27950231778248 184.17539891634996 0.6699027009616287
2.008356689021728 12.402443138930263 34.80713393552011 192.57746793731164 0.6850582926719955
2.017538371938854 12.357523244085803 32.528776116282316 201.43369547842389 0.7008519805230193
2.0260013854090615 12.311157502134693 30.43594863924745 210.7874618855776 0.7173680302123658
2.0337063246071923 12.263324540868009 28.50932350399101 220.65931873473778 0.7345879028996469
2.0406504772546583 12.21380126878979 26.731435047317877 231.09055185985855 0.7525894895971555
2.046839528323314 12.162958717168806 25.093669123950164 242.1270890459632 0.7714431723836295
2.0522312339710735 12.110538976297342 23.585548565934314 253.79589585355407 0.7911332329230876
2.056831537293723 12.056637981218296 22.194697010774988 266.16360376860877 0.811801431244086
2.0606044938845685 12.00118024604272 20.909849601397287 279.25975066805483 0.8334305116788225
2.063579551105457 11.944408721521295 19.72637010255636 293.15772023741846 0.8561444350661117
2.0657104392096834 11.886065707783704 18.632847516207363 307.9069866819878 0.8799907679908583
2.0670140501077223 11.826325295140162 17.624915012613304 323.5737836439002 0.9050312958574697
2.06746577295666 11.765129899817632 16.691312855294715 340.2386468472459 0.9313964888415392
