M[M_sun], R[km], Lambda[1], P_c[MeV/fm^3], rho_c[fm^-3]
0.23841724892012095 16.20908015294055 2780876.1263280716 3.453507347168396 0.169602847481901
0.2484205719390714 15.866037090742317 2227366.192833903 3.6356507799505255 0.1719797663352333
0.25870571750818344 15.562690007075643 1881345.425217599 3.8249764862553137 0.17437748365258865
0.2692752039803054 15.293286131824892 1557679.0918370576 4.020604326867133 0.17677061910747807
0.2801358372811689 15.053414171382661 1295062.9713959766 4.22284010733345 0.17915057170640025
0.2912734549013829 14.83939673608231 1060028.9303039603 4.433060638514785 0.18155432793686965
0.30269992493994585 14.64799269269942 905127.8047253137 4.651613807742975 0.18398572592590298
0.31440941139023926 14.476420398164217 760579.7399646696 4.8788670832773215 0.18644641290196487
0.3264005952091333 14.322648890497138 641161.8267240225 5.112176817222592 0.18887752591426407
0.33867731613887236 14.184402317233365 542102.0045827253 5.354658208516925 0.19132960095450796
0.3512370850411275 14.060186563648331 459675.68271589477 5.606844409451962 0.19381167788837686
0.36407656073435635 13.948358375105249 390829.40901303187 5.869148419840467 0.1963293103649749
0.377210619357702 13.847652781651757 333089.53348699864 6.138544430519247 0.19882396424750864
0.3906244944557345 13.757075217992044 284599.6066577896 6.418302817506886 0.20134738797188298
0.40431899054126474 13.675402540824788 243717.17467191868 6.709308104347211 0.2039053360073624
0.4182995501335317 13.602008849234474 206597.80805195696 7.011771296291786 0.20649125102477547
0.43256670821364723 13.53604899147843 179929.3929658054 7.32209676167104 0.2090519865679839
0.447115025502264 13.476669890101102 155064.04205351425 7.644975833415744 0.21165716666922263
0.46195071387002323 13.423543148157393 133896.87397645088 7.9809427944514155 0.21430678313070084
0.47706574160079274 13.375810202145887 115835.1237432801 8.328231247436301 0.21696571189272354
0.49246646267697686 13.333268265355956 100391.52881040442 8.686473137267932 0.21961958933876322
0.5081445562522758 13.295105108603975 87146.436969507 9.059328903226898 0.22232169341266636
0.5241112446451938 13.261317507225016 75778.89132160108 9.44740465724244 0.2250747649351764
0.5403483435161784 13.231272620234304 66001.79030104486 9.84551291462581 0.22780472266003104
0.5568629098559723 13.204796256450473 57572.126286220344 10.259377914781826 0.2305783898982547
0.5736635567556227 13.181490579882759 50292.015879076665 10.690183643105295 0.23340262333293676
0.5907358936229069 13.1611942081545 43996.28298783207 11.135224838596121 0.23623416668456035
0.6080810558057828 13.143557502705086 38542.902311018464 11.594782522755258 0.2390801766693406
0.6256938028662882 13.128182929963769 33806.35722020521 12.073204844578095 0.24198554013093307
0.6435757447552243 13.115212601934363 29695.492323689756 12.570502802060755 0.24494249739081833
0.6617315168582575 13.104308410684737 26114.1235087529 13.080998641844097 0.24787491558431277
0.680139297084055 13.09515402640341 22994.219897483563 13.61247506027651 0.25086596944474987
0.6987962449183425 13.0876932700929 20271.60807064309 14.165839999186828 0.25391756802185306
0.7177299018324426 13.081840809485108 17890.283743351963 14.735477615917686 0.2569693544174442
0.7369095388553455 13.077357024699317 15807.257568061728 15.326215692877813 0.26006561300648506
0.7563299790312142 13.074193415275893 13983.06168456446 15.941238781605987 0.26322765104530693
0.7759901621371846 13.072015330439697 12382.081445457192 16.578090257323325 0.2664192534839656
0.7958897627231293 13.07092477970332 10975.69940545655 17.23499667298091 0.26962008272402577
0.8160223388941994 13.07068645322804 9739.138960491333 17.918986943847923 0.2728930181652653
0.8363824511027486 13.071330863369422 8650.859954290405 18.63109465090163 0.276239545317288
0.8569552104607946 13.072645928775623 7691.809182363816 19.362335897302735 0.2795746908900316
0.8777551161653249 13.07457070843161 6845.377528086973 20.12344042569967 0.2829786235210339
0.8987408564816727 13.07686554055855 6097.864008734574 20.915873552404907 0.28645534997128036
0.919942193373654 13.079772076730594 5405.362170850875 21.734958451232192 0.2899600879356068
0.9413172963855504 13.082931343527898 4852.509173525841 22.582560806580002 0.29350657085550025
0.9628953077670254 13.086383992738055 4334.233382680463 23.46503061329915 0.2971365538385052
0.9846394703872116 13.090130250776308 3875.1406997970003 24.38365529932781 0.3008503863244305
1.0065449335081935 13.093901327224517 3448.836208523687 25.328355718814315 0.3045526845634043
1.0286041346900079 13.097716009378727 3105.487033973987 26.311962678812655 0.30834182885274714
1.0508150953434905 13.101567318733519 2783.573816242415 27.33598192073376 0.3122195818044319
1.0731578105858675 13.105372113656754 2497.1050685324 28.397724452217286 0.31615973978352396
1.0956180936619422 13.109063072786228 2242.101209978504 29.49527664150627 0.3201421064288074
1.1182072838525887 13.112601974541494 2014.646529212276 30.637923333364295 0.3242132890995074
1.1408944695143526 13.11593035764332 1811.8323161814706 31.827521398268438 0.32837488066858433
1.16367726529054 13.118980434398765 1630.7026166305411 33.0596334030741 0.3325951100390652
1.1865221541836308 13.121662070748085 1468.9157351537274 34.33643311012859 0.3368819457173377
1.2094310848397034 13.123893678899357 1324.0824528143958 35.665828356117515 0.3412746722488369
1.2324006257973958 13.125808398183075 1194.6013092945182 37.04984302428171 0.34577170299003956
1.2554182544682755 13.127308742932874 1078.5706067468145 38.48616320769162 0.3503386451385153
1.2784422322533833 13.128193093725958 974.601958588422 39.97423517540938 0.3549766023576867
1.3014688672873516 13.128520805199056 881.3490075684622 41.523893428442264 0.35973202573758917
1.3245088139163474 13.128268165456687 797.6310110926374 43.13760652152378 0.3646070364961313
1.34752475092079 13.127412614652304 722.3361042173362 44.81797041231233 0.3696030094283171
1.3704870513605973 13.12585287653719 654.7150343252118 46.55890649889594 0.3746624677214491
1.3934163685033227 13.123593592020786 593.8699312919167 48.37008975027039 0.3798419715309053
1.4162497427665468 13.120507599473925 539.1053188963076 50.25691463567711 0.3851571993346563
1.4390090906729234 13.116645956671313 489.750259060746 52.222587346895494 0.3906108982946594
1.461688623457105 13.112063966219882 445.2539686171939 54.270503877519644 0.39620425665068193
1.4842266452004904 13.106576145487669 405.1040755546621 56.401141992489 0.40191714589522276
1.50660946109764 13.100117126502724 368.86773550712815 58.615369655384896 0.40775486490729057
1.5288615793933684 13.092825052120563 336.121411367725 60.92375369751577 0.413753813593965
1.550929209060407 13.084602682754571 306.54072874410053 63.33056641878993 0.41991695178775873
1.5728031728423706 13.075295393814137 279.7483933963111 65.84034350476054 0.42624489104632335
1.594443187451616 13.064942225477102 255.52435920671147 68.45797532582372 0.4327441867677127
1.6158623310776696 13.05355060613804 233.5649382572141 71.18854809298473 0.4394292585802354
1.6370431830679084 13.041139591466727 213.6534639277206 74.03752881790604 0.4463070370454367
1.6579435733052883 13.027648053524349 195.6108003995502 77.01043674886834 0.4533794041362145
1.6785550777943832 13.012963291313852 179.21489483342071 80.1096291636605 0.4606327112183901
1.698841197485832 12.997031142395805 164.33459463287193 83.34666716876828 0.46810880255134263
1.7188071418754904 12.980016830323418 150.8094127521846 86.72866194772466 0.4758176836706179
1.7384188612636582 12.961848217199176 138.52112292606364 90.26317763019586 0.48376384264228856
1.7576507633043834 12.942331796414152 127.33110309831852 93.95831309962284 0.49195519876464705
1.7765106070667323 12.921610566772621 117.13422394376038 97.82278092073902 0.5004116208872273
1.7949418630773704 12.89956484175322 107.84815845209812 101.86588018535971 0.5091486629059512
1.8129327321002768 12.876163532441076 99.3822893911663 106.0975511431319 0.5181731587470088
1.830476396261721 12.851398763445491 91.6566083013701 110.52847041997626 0.5274983961883958
1.8475509611452587 12.825455352853528 84.60778957646862 115.17012312433839 0.5371486093818442
1.8641567581974383 12.798182541661562 78.17053799946919 120.0348352509021 0.5471431686103405
1.8801954142806838 12.769194840489973 72.27929368598892 125.1298831853669 0.5574682137075955
1.895738787551542 12.739104046647018 66.89853118332448 130.47368566798957 0.5681642725328608
1.9107072311041138 12.707486574995706 61.976558499993914 136.08192551550792 0.5792616354858998
1.9251335375831378 12.674472504850154 57.45947665034137 141.97102774711294 0.5907781762675874
1.9389378122655245 12.639902918724072 53.33012604148687 148.15869988122057 0.6027335117869488
1.952156666786385 12.604050475405812 49.54455290773178 154.66401738658448 0.6151631819769993
1.9647471338816946 12.566637920113177 46.07063431920819 161.5032061755487 0.628083576301605
1.9766684389529339 12.52766696166739 42.87934151738316 168.69134440530866 0.6414875294164786
1.9879387799077581 12.48729897435925 39.95129672626237 176.26223423492445 0.6554543637330935
1.9985319216840085 12.445403646250401 37.2583792872431 184.24180474596466 0.6700236001848654
2.0084451933928906 12.402107273319725 34.78616165596958 192.64770161699659 0.6851839059601478
2.017625616743828 12.357233394144181 32.5107754931864 201.50879199122755 0.7009852255204109
2.0260635362496977 12.31078924079908 30.419048538951344 210.86780728642364 0.7175094776554213
2.0337610069301046 12.262834780870419 28.49151963286397 220.74456169777238 0.7347355132691161
2.0407028688967266 12.213399443449605 26.717401398274706 231.1818812988518 0.7527464705016594
2.04689385049677 12.162556634286851 25.081579674738656 242.22420387795742 0.7716074969586492
2.052272076535022 12.110026190342417 23.572957795888684 253.90009392154707 0.7913083003394877
2.05686476138214 12.05615371728534 22.182640975950427 266.2746437052814 0.8119853952053286
2.0606313773479563 12.000676973828135 20.898695944142315 279.3790649019319 0.8336266609182064
2.0635957422559597 11.943816054499349 19.716124916267816 293.28513961813326 0.8563511455288993
2.065723584874561 11.885476219563893 18.622552147753563 308.04410861221913 0.880211711905905
2.0670196635251292 11.825739740139849 17.614638734091706 323.72052910902613 0.9052645498029068
2.0674695363973736 11.764621043331886 16.684417168995648 340.39589041241044 0.9316432306476085
