M[M_sun], R[km], Lambda[1], P_c[MeV/fm^3], rho_c[fm^-3]
0.23841724892012095 16.20908015294055 2780876.1263280716 3.453507347168396 0.169602847481901
0.24841168984993925 15.866328063780264 2282413.4323407714 3.6354912767358596 0.1719777373940182
0.2586877056121698 15.563179753318016 1881928.1762940504 3.8246483873044883 0.1743734699844447
0.2692479263051609 15.293826028836463 1558386.1761601178 4.020075730666242 0.17676415273589355
0.28009829145367343 15.054175612277612 1295789.7024186058 4.222116248968055 0.17914210730585767
0.2912217905023451 14.840231961876084 1081615.654396991 4.432131537896563 0.18154387367829566
0.30263789388601464 14.648944511667175 905962.3812784969 4.65046895890477 0.18397332661352395
0.31433416494328953 14.477480273596187 761386.4325835228 4.877495552187042 0.18643212139760296
0.3263167545571057 14.323647710753194 641924.4829027801 5.110498594744046 0.18886003865200487
0.33858005379227646 14.18541399192812 542804.2520910498 5.352721606436533 0.1913102773220221
0.3511259785649212 14.061095990078432 460303.328406632 5.60463729388005 0.19379046520286744
0.36395539995185167 13.949335890724504 391406.736284362 5.866657770957873 0.19630624652342304
0.37707189857199364 13.848598292376165 333648.7906542724 6.135640701388182 0.1987970752110586
0.39046869501644066 13.75803341771728 285101.61277376965 6.415078113725809 0.20131864643597777
0.4041502875286216 13.676359980867362 244185.72010309366 6.705747978663559 0.2038748986427031
0.4181159299932212 13.602965849952685 209615.87493319873 7.007698028831823 0.20645642654439178
0.43236610942360176 13.53691182236945 180302.6265120233 7.317645869182826 0.20901529645351774
0.4468991332680557 13.477591061591225 155407.91121016667 7.640129889979301 0.2116186389460816
0.46171395160520645 13.42423407275824 132701.00028953736 7.975683693670307 0.21426651811696634
0.47681425235852287 13.376581890497704 116113.82559406679 8.322312153760972 0.21692039380545872
0.49219668661864563 13.333843517798831 100635.02971616028 8.680090897266854 0.21957263396391752
0.507854106141086 13.295779074421894 87376.34065078388 9.052462811380884 0.2222729328276417
0.5238009092304795 13.261905944502661 75987.74292520592 9.440032099208615 0.22502420890830904
0.5400219479888606 13.231848695530497 66183.48748044709 9.837305376550002 0.2277484409036079
0.5565214092831833 13.205364778006535 57734.79872139019 10.25060318316679 0.23052040465117926
0.5732941181640083 13.181976080841308 50439.79167033884 10.6808164769584 0.23334302539617152
0.5903460015475105 13.161546754069485 44127.76007795581 11.12485627133912 0.23616819740355918
0.6076745536955284 13.143908917220907 38660.13919433917 11.583751616834356 0.2390123419671829
0.6252616729151459 13.128607403233604 33916.972590024605 12.061480128060326 0.24191582440999423
0.6431277057482369 13.115556901912383 29791.691178564135 12.557583608939591 0.2448656792552988
0.6612451948259548 13.1044614727512 26200.709617472854 13.067303973934532 0.24779636706737806
0.6796393796493061 13.095338937487199 23072.06739067343 13.597969611678858 0.250785691997899
0.6982742255755654 13.087878080706753 20342.33341364 14.150485313855576 0.2538353065657515
0.7171867948507931 13.081987722516685 17953.895912916738 14.718647410960118 0.25687918798704007
0.736338773546231 13.077534925090928 15865.820084960587 15.308435027548974 0.25997335789580295
0.7557317535512029 13.074235881938863 14035.2470960402 15.922462010100793 0.2631335506278452
0.7753683682874581 13.07208591743861 12429.293588331386 16.557567767400386 0.26631640434035386
0.7952465042666655 13.070997879121832 10945.51544064832 17.213361702821118 0.2695152159816899
0.8153596292891944 13.070794648923407 9777.571681226373 17.896184459247745 0.272785831259992
0.835688304235242 13.071318344943236 8685.703260950455 18.606443818523275 0.27612452456455977
0.8562384288013841 13.07258783097947 7723.049808172972 19.336164708096664 0.27945532573353415
0.8770039237794859 13.074524833146784 6873.8024274643 20.095896011715887 0.28285708089677225
0.8979711081594727 13.07680599295231 6123.5394390285755 20.88688776726247 0.2863313242667899
0.9191428938892252 13.079698336787807 5460.530127338023 21.703448448526036 0.2898252614934414
0.9405025824883189 13.082857774037024 4873.680864297898 22.549434808725966 0.2933688317533889
0.9620414136415801 13.086213980471163 4353.375812095299 23.430202781556282 0.29699575125078004
0.9837571295625634 13.089868825215056 3892.4045877357494 24.345853682427993 0.3006975612643181
1.005648028767251 13.09373806158692 3483.2365938297203 25.28864555515023 0.3043970641831145
1.027678180085205 13.097557128993273 3119.7216617918575 26.270244866444646 0.3081828655276999
1.0498685394152412 13.101467432192603 2796.6083634745737 27.292147659894542 0.31205691156425425
1.0721832945827832 13.105268390046444 2508.987762775053 28.350245961906708 0.31598354569984993
1.094615993120759 13.108881239817483 2252.822409159677 29.44541588525018 0.31996179756768084
1.1171779425774016 13.112409809158544 2024.448927965701 30.585551862201267 0.32402930952149983
1.1398507579047767 13.115809055229931 1820.6883070799609 31.77250300061549 0.3281864316827891
1.1626034356782418 13.118826059573461 1638.7644721896622 33.00013834398704 0.33239132759495427
1.1854202810391716 13.121476151083586 1476.242403715401 34.273952992988406 0.33667304306840246
1.2083173724401073 13.123823327666898 1330.8242584241543 35.60019233621504 0.3410603302215314
1.2312637357817398 13.125785252784127 1200.7338753766837 36.98087445573225 0.34555240964147654
1.254249991294944 13.1271932472464 1084.1455443529162 38.41167597968576 0.35010180458928936
1.2772615301724661 13.128155910122024 979.6346993804053 39.895985825441926 0.3547333552452907
1.3002655854233311 13.128518330256394 885.9678911116671 41.44166123135853 0.3594819193192074
1.323278217604424 13.128282405092643 801.8211647872968 43.05115630836029 0.3643496796147611
1.3462758700378623 13.127441264284238 726.2106776523171 44.7270321589054 0.369338657278058
1.3692330022328476 13.125939855974224 658.2296664428108 46.46084816817817 0.3743774934260778
1.3921412749879616 13.123719357461376 597.103610004037 48.266975600876215 0.379548279888487
1.4149618183614034 13.120705122779375 542.0435009804761 50.148438205950505 0.3848542347695838
1.437727141289769 13.116997665491699 492.4453602289942 52.10842256899651 0.39029821347173554
1.4603597265881836 13.112366738587891 447.73615632347196 54.15030831372886 0.39588197576271805
1.48289947848787 13.10693607413118 407.34542458400966 56.27160194710394 0.40156980960811783
1.5052794352005712 13.100553453629011 370.9373194908287 58.478971845711 0.4073956704728338
1.5275115844418787 13.093287329487428 338.0266460648293 60.78006935379904 0.4133820037869094
1.5495515219899931 13.08502367554437 308.28351533938246 63.17913885938651 0.4195319814260727
1.5714388332491445 13.07589377458719 281.3457354493623 65.68068975210006 0.4258465255854279
1.5930778218736226 13.065591152576777 256.9794998698019 68.28957649425236 0.43233069723627476
1.614499611203368 13.054326046904194 234.9021087336243 71.01084293376596 0.4389996824853714
1.6356744237734189 13.041959382588601 214.88971171396852 73.84991856161933 0.4458607236602708
1.6565662468698408 13.028477670427604 196.7424018241437 76.8083851220327 0.4528987356091512
1.6771549096152265 13.013957205934451 180.32436256899285 79.89624360651881 0.46013335238870856
1.697475694619063 12.99815374494822 165.3001048778151 83.12120627237596 0.4675886879343528
1.7174345100489088 12.981206905343083 151.70386348381032 86.49032441012173 0.47527547142692456
1.7370561799407906 12.963014741436028 139.3254457131888 90.01110636849684 0.48319864266614376
1.7563118532232371 12.943713958003313 128.07810154156186 93.6915917448572 0.4913657339691867
1.775170066638629 12.923113737784018 117.83370520130683 97.54042064602946 0.4997955264886324
1.7936137605842126 12.901098466081152 108.48408135559589 101.5668125025854 0.5085041923632508
1.8116217561574064 12.877804653675437 99.96999610262833 105.78063011501676 0.5174991490597471
1.829198071703781 12.853331033935701 92.20607202766521 110.19246561999985 0.5267928643777697
1.8462756099516402 12.827329635064789 85.11387634549914 114.8137040858027 0.5364087529107893
1.862910540247204 12.800266383753954 78.64101693373253 119.65656310404735 0.5463666863813889
1.8789950061068512 12.771554118334285 72.71712374488064 124.73387972044995 0.5566740914338533
1.8945559560490366 12.741416626361977 67.29786788231463 130.05282556866834 0.5673289998331758
1.909558604888724 12.709970873230729 62.344734172255386 135.6344118120587 0.57838240061031
1.9240022793382237 12.67711745710191 57.80712726622638 141.49492237424016 0.5898530294149538
1.9378571111330378 12.642701342464989 53.647549950197494 147.651907514961 0.6017586565552576
1.9511119551278948 12.606947745629308 49.83655865394858 154.12426324796863 0.6141346487439829
1.9637303644489026 12.569705745424166 46.341897214864225 160.93241545915683 0.6270130587462777
1.9757059502614216 12.53097831785104 43.133788917663516 168.08501668670732 0.64036463348903
1.9870277618633327 12.490683345912569 40.18414147230023 175.61522399267744 0.6542664123608765
1.9976740090508973 12.448961972877253 37.475574274223796 183.55097868454348 0.6687658742487234
2.007612742699743 12.4057708833791 34.98727879976096 191.91707451339545 0.6838771757231986
2.0168488135154417 12.361088728608213 32.70038006843634 200.72761420708454 0.6995991687259682
2.0253535051604303 12.31484630700837 30.594024524827077 210.03206884320394 0.7160381667326825
2.033108648379896 12.266991890097843 28.65343706507249 219.85790865155295 0.7332001468402138
2.040118814966887 12.217742972024306 26.866790626201198 230.23196771039684 0.7511137188285958
2.046363018563801 12.167123658427988 25.222239708631367 241.21267712256233 0.7698933644633298
2.051820949977447 12.114865407995122 23.704142986568346 252.81418552869908 0.7894801563726761
2.055876431416413 12.063358169067792 22.391708116351253 265.47843556762047 1.2006963146219465
