M[M_sun], R[km], Lambda[1], P_c[MeV/fm^3], rho_c[fm^-3]
0.23841724892012095 16.20908015294055 2780876.1263280716 3.453507347168396 0.169602847481901
0.24841118959401773 15.86640357496387 2282197.106743685 3.635512684304403 0.17197800970638646
0.2586878920179145 15.563156351932935 1881791.49039097 3.82469242162874 0.17437400866085329
0.26925177721173915 15.293808015269347 1558386.8210713472 4.020146671846705 0.1767650205666361
0.28010152948577693 15.054150729533605 1295781.5826643424 4.222213393180297 0.17914324325670403
0.29122902089151476 14.840090120034676 1081460.0334715007 4.432256223231167 0.1815452766401523
0.30264706289539567 14.648750698764635 905816.5127923155 4.650622593978752 0.18397499056182096
0.314346288065299 14.477273467358476 761245.2355644616 4.877679603013341 0.1864340392273959
0.326326688811579 14.32356446836381 641827.2551762513 5.110723795191492 0.18886238526536261
0.33859326665380457 14.18532037421484 542796.9709280304 5.352981472938321 0.1913128702990858
0.3511388587018139 14.061018037257128 460238.2066598338 5.604933453221934 0.19379331160341845
0.36397253663791596 13.949228989656731 391350.0122656811 5.86699196873873 0.19630934125296062
0.37709096524763863 13.848561049411435 333573.0972967226 6.1360303153139615 0.19880068310373003
0.3904909048772339 13.757828486002062 285031.8280442455 6.415510786071413 0.20132250281119876
0.4041731610795921 13.676248803231523 244121.73166904307 6.706225646287896 0.2038789824714664
0.4181405819440322 13.602850357794772 209555.89768180044 7.008244529141705 0.20646109885955602
0.4323956705168687 13.536912207890037 180255.37728692795 7.3182430226911315 0.20902021897874873
0.4469325693259959 13.477580251201951 155366.30080822512 7.640780032847611 0.21162380791364405
0.46174719535212644 13.42420459357845 134161.64110975244 7.976389253271881 0.21427192006080245
0.47684739586822933 13.376492661473772 116076.59909870825 8.323106233573808 0.21692647348255578
0.4922315545613658 13.333751748201752 100602.21658975995 8.680947094907633 0.21957893317566105
0.5078934033128798 13.29567983619436 87341.51582140937 9.053383902540425 0.22227947409519355
0.5238414028298686 13.26181839912417 75954.74716374937 9.441021115500947 0.22503099091450254
0.5400668306939789 13.23172943195795 66154.04270062284 9.838406369658966 0.22775599077123082
0.5565674126291426 13.205295887977346 57712.28389176507 10.251780241350042 0.2305281828958678
0.5733403539574505 13.18188764071918 50421.14419261112 10.682072983747766 0.23335101983237597
0.5904013798020816 13.161509273398416 44108.11829093361 11.1262470611511 0.23617704620606447
0.6077258199321082 13.143780590151305 38643.82563133029 11.585231224582472 0.23902144083463978
0.6253207907732264 13.128533353318636 33901.823551593494 12.063052772401852 0.2419251754278959
0.643188759552564 13.115542864325036 29777.749281715438 12.559316412658323 0.24487598258845947
0.6613105888094065 13.10446176953297 26190.97809161299 13.069140759030937 0.24780690231702437
0.6797058122576053 13.095325555607603 23061.920267095942 13.599915110438952 0.2507964589639987
0.6983450574583345 13.087844115174414 20332.738659891857 14.152544680789335 0.2538463394536918
0.7172583118796502 13.081984946466802 17945.96089115996 14.720904598928051 0.25689128068480177
0.7364141468296576 13.077502138486553 15857.957252635317 15.310819648811652 0.25998573052047447
0.7558141696900054 13.074196689490506 14027.905581108482 15.92498018249263 0.26314617053288303
0.7754533737687938 13.072068382291402 12422.823618719349 16.560319965880684 0.2663301970749495
0.7953303682633739 13.070941086607665 11012.639814381833 17.21626304666185 0.2695292790691232
0.8154449639869384 13.070743510286565 9772.728527079982 17.899242324154816 0.272800205267118
0.8357834131781323 13.07132110485434 8680.618398897817 18.609777896903083 0.2761401969594648
0.8563302050493857 13.07258632083938 7718.597048871578 19.339674146477826 0.2794713320624131
0.8771073510193527 13.074511482976064 6869.943616323979 20.09958953590409 0.2828733789607961
0.89807540971194 13.076790102694247 6119.856834033942 20.890774509475705 0.2863479550373142
0.9192496227902702 13.079716610823109 5457.381050375291 21.707673514962476 0.28984333990114103
0.9406152940750748 13.08283627692687 4870.419663141758 22.553876489187346 0.2933873004220555
0.9621527300377585 13.086287881536483 4350.980486190541 23.43487257832307 0.29701463038956105
0.9838828743618905 13.08998140434337 3890.080572508647 24.350922024862292 0.30071805165072796
1.0057695924791707 13.093787930772695 3481.148416711879 25.293969706809737 0.304417929030537
1.0278053990564644 13.097615572795155 3117.933185841139 26.275838105793962 0.30820417824460145
1.0500003314435844 13.10148604366885 2794.5467797236183 27.298024564467198 0.31207872093117484
1.0723134177149003 13.105273065228877 2507.3475081736647 28.35661121155343 0.31600716732980333
1.0947612460677192 13.108960498015 2251.257932201364 29.452100407541224 0.31998597045818583
1.1173332729329795 13.1125762024703 2023.1524535527342 30.592572865821147 0.32405397411950504
1.1399902396885575 13.115800770527153 1819.4497777302913 31.779878733824514 0.32821169504017556
1.1627420909601442 13.118837063261816 1637.7134518244254 33.008113905271934 0.3324186454831408
1.1855703883357918 13.12151537436217 1475.2531227987051 34.2823285729554 0.3367010468705968
1.2084673496993192 13.12386763259453 1329.9650224553234 35.6089908206266 0.3410890626917329
1.2314202876881046 13.125795697253345 1199.9040037735354 36.99011950686455 0.34558180532509125
1.254408310419028 13.127235860868181 1083.4056049960082 38.42166039085641 0.3501335511516016
1.2774437972485468 13.128390481211623 979.0010498498644 39.90647433297501 0.35476595997838856
1.3004238173531855 13.128474806999547 885.3420272208374 41.45268339895718 0.3595154428654419
1.3234472706016507 13.128296436692446 801.2067633818873 43.06274363335964 0.36438417435706577
1.346450778365763 13.127495458107386 725.6683312684004 44.739242559477546 0.3693742128107991
1.3694077344540916 13.125944339734707 657.7253706620625 46.47399058747648 0.3744156875463692
1.392319147255974 13.123709064862082 596.6388184870416 48.280795367812 0.37958764160628283
1.4151345641902393 13.120653167377434 541.6419895256851 50.16297636050907 0.38489483848122785
1.4378923385420157 13.116952331106626 492.1027701597186 52.12372277528008 0.39034011906101207
1.4605361713034868 13.112317141115653 447.3946269791752 54.166416426488375 0.39592516651551984
1.4830819957715826 13.10693930445353 407.0651362638541 56.28896160949493 0.4016163561463899
1.505457414762091 13.100516353266732 370.6725053314823 58.497250128626476 0.40744380509838507
1.5276926353576563 13.093241731644879 337.76262128303483 60.79932366515862 0.41343182787773525
1.5497537875475402 13.084994801408326 308.03487198891423 63.199430341988 0.4195835679366591
1.5716126544693647 13.075745902956667 281.12821941496395 65.70208306705335 0.42589990583881643
1.593270250194605 13.065540877090529 256.77956033376006 68.31214110740662 0.432386102794812
1.6146839332189808 13.054227305766732 234.71679558521333 71.03465397927305 0.439057242187006
1.6358597703874316 13.041884002366462 214.73031673909864 73.87505619334087 0.4459205245567183
1.6567687962134166 13.028495917629296 196.59355824585566 76.83545645779631 0.4529631366698649
1.6768694888390574 13.013832020767616 180.46095028004922 80.02878163216532 0.5640886460929057
1.6912848120883401 12.996200863676245 168.85670886126036 83.56979211769539 0.8461431355739628
1.6993066156871597 12.971932545173875 160.98427578573003 87.71725479214307 1.1066261198200977
1.7026997072593801 12.940551737724647 155.26442493153547 92.4613131956814 1.346857399852874
1.7025040574931332 12.901724760378071 150.89946504967025 97.75900328272529 1.5680193473845478
1.6995512571024873 12.856337868381093 147.4239533975936 103.59640001792839 1.7723628080132106
1.6944911056816738 12.80469381515635 144.46277212266625 109.96448437770206 1.96458580385653
1.6877152732252017 12.746811633908688 141.79927306253236 116.85801824172573 2.145851171329407
1.6796363307150741 12.683482451344158 139.29941345775094 124.27902426757757 2.3274790707775113
1.6705295663101278 12.614911021882866 136.82918463070132 132.2480637181009 2.5255609697271106
1.6605669016151672 12.54219109213949 134.4240847161078 140.81869970156185 2.7805871950182572
1.6498283610497548 12.465967819786483 132.1092088141276 150.06389066097822 3.084257938205507
1.6382328558672108 12.38364719370084 129.68207118711277 159.84135874532262 3.1136060313732803
1.626331243191632 12.294019334114566 126.75868276170097 170.00216632867387 3.142621952958133
1.6146259041361908 12.198706997264733 123.27555614447098 180.5659688338109 3.171911302190533
1.603463426388492 12.09883348959983 119.23880863202763 191.55391666440494 3.202002638129571
1.5930155579854128 11.995254484989069 114.69172513173162 202.98978453483835 3.233112412483903
1.5834201091747433 11.888909444470702 109.71488836734163 214.89658655214933 3.2653279751209006
1.574780387372981 11.78056798904867 104.38358399389773 227.23424098779532 3.298507739059314
1.5671505294147843 11.670709618191252 98.78164871517289 240.09620699543092 3.332908329680861
1.560538875358325 11.560022143462877 93.00586852619365 253.51338487792776 3.368600298310678
1.5549493237931686 11.449018343695485 87.16717419918868 267.4948343086419 3.405573301360225
1.5503680417277677 11.33812478226241 81.33445076268741 282.0339186736103 3.443781134163706
1.5467490554316856 11.227740948257233 75.59786328958262 297.2291471725356 3.4834868056370425
1.5440585778118576 11.118384323484994 70.02409570959391 313.0800353190196 3.524650359818145
1.5422456559601023 11.010105719449335 64.64240778912786 329.60873538006194 3.5673013322135474
1.5412242016884465 10.903222839378508 59.51370718137801 346.9136777539385 3.611692032216192
1.5409588425452578 10.798125289324146 54.669750058849104 364.9425714467611 3.6576180996649175
1.5413498993593855 10.69473756893052 50.11668633022528 383.84941296713475 3.7054981163962473
1.5423509376363895 10.593324033152806 45.879228399034226 403.57264725680943 3.7550800246737177
1.5438689349135175 10.493884989159639 41.94034329627338 424.2635028412478 3.806779684719745
1.5458384301806722 10.396549323852255 38.31271510698983 445.9041584289312 3.860464474625616
1.5481734408488903 10.301241690960621 34.97784944713398 468.59489108574877 3.916370159423917
1.5508327340130974 10.20812517231093 31.926727546065827 492.41088610408485 3.974657002650172
1.553721733852822 10.117048497220576 29.140566065025155 517.3622161993109 4.035262572567537
1.5567883399168827 10.02800855867079 26.605088773771076 543.5739478592766 4.098482692965544
1.5599603928436416 9.940992572544275 24.303158392301796 571.1238574596604 4.164451852274437
1.5631718673593027 9.855883011294171 22.215820285008597 600.0937007478715 4.233310888790015
1.5663732437229945 9.772578631006295 20.324754125597657 630.5707875515321 4.305208762882424
1.5695071057878764 9.691081649968877 18.613144639662035 662.6472746176396 4.380294503511141
1.5725236057763872 9.611305624241446 17.037614691283256 696.450251095928 4.458817816073353
1.5753654706141134 9.533120795258492 15.670985499924786 732.0987238354704 4.540987201626553
1.5780022237343405 9.456471618350209 14.411289797188916 769.722977980308 4.62702988312935
1.5803841714336306 9.38124554622127 13.272726456072215 809.4595878025405 4.717172183942591
1.5824559594440708 9.307388066489356 12.244974000156345 851.4546006123537 4.811657427367035
1.584206272263012 9.234803527699208 11.316841176280022 895.8894606653917 4.910820856922239
1.585592548239547 9.163354370425134 10.47807225202016 942.9521101115564 5.0149870755580075
1.5865714981579417 9.093015567551536 9.719789605063863 992.8483305814372 5.124514121883686
