M[M_sun], R[km], Lambda[1], P_c[MeV/fm^3], rho_c[fm^-3]
0.23841724892012095 16.20908015294055 2780876.1263280716 3.453507347168396 0.169602847481901
0.2484349546424577 15.865546429068992 2281205.263315291 3.6359196990335603 0.1719831870876754
0.2587371567516988 15.561699399956712 1880149.8677738595 3.8255296993040715 0.17438425116459996
0.2693239746218092 15.292058332283478 1556387.0449635503 4.021495678809154 0.17678152310727974
0.280199678052038 15.052180533298996 1293680.461900272 4.22406081880733 0.17916484603319646
0.29135431473070705 14.837835349817052 1079301.6189882925 4.434627589443849 0.18157195929978545
0.302800336331968 14.646351967776736 903714.7879460598 4.653544766779926 0.1840066392233544
0.31452758990527224 14.474893765645817 759311.4632549429 4.8811805429904656 0.18647051940586828
0.32654322529865265 14.32087787091483 639864.9489333304 5.115007846032133 0.18890702554490824
0.33884149141875997 14.182640657833323 540901.0771657379 5.357925332259521 0.19136220068117715
0.35142096994814104 14.058385940228133 458574.56953932106 5.610568153989305 0.1938474669620409
0.36428787493221954 13.946667060830741 389794.9642072323 5.8733508082519785 0.1963682252120815
0.3774439640800198 13.845932013695199 332162.8341572284 6.143444239415695 0.19886933732952422
0.3908829411807405 13.75531187160946 283732.60209327814 6.423744597441865 0.20139589013642506
0.4046025506710943 13.673904665102958 242967.9500708101 6.715316297598795 0.20395670317391548
0.4186112608292257 13.600542011380853 208498.25032054682 7.0186461237411875 0.20655002749747364
0.4329029797060513 13.5345953056857 179296.2184270086 7.329609403205863 0.20911391564818202
0.44748107022904404 13.475290416432346 154496.2134831289 7.653155771902825 0.2117222013543101
0.46234304648023816 13.422180502204396 133382.45673426465 7.989820664632818 0.21437475436374342
0.4774914479571453 13.37461929246301 115374.53006529638 8.338224196882557 0.21704222045634472
0.49292100244542597 13.331985655609133 99970.11066945113 8.697248616189372 0.21969886662257154
0.508633542696633 13.294050799811705 86775.34616710218 9.070921948814357 0.22240402317139077
0.5246282177252661 13.260284469595385 75443.25243010251 9.459853535382829 0.22516013093905807
0.5408954314917811 13.23035252673369 65700.87598553339 9.859373034178015 0.22789976600499365
0.5574530567165237 13.203911237055129 57298.09791793408 10.274196662912136 0.2306763152604632
0.5742862184210958 13.180806522332473 50044.59128159649 10.706003738252036 0.2335032775772824
0.5913922473379379 13.160445641978942 43771.905972657696 11.152737923160752 0.23634559245518078
0.6087707979032242 13.1428202734516 38341.349870641854 11.613415310780255 0.23919475924624825
0.6264253897774277 13.127698112394162 33628.97031191518 12.093010604856174 0.24210330612164468
0.6443387812502425 13.114716638222017 29532.758411824725 12.59228981971538 0.24507182802902355
0.6625356086002152 13.103902011108483 25968.11208821773 13.104135631657169 0.24800762243402624
0.6809824423782058 13.094821763963486 22862.613563665513 13.636983089551366 0.2510016041343141
0.6996859351719571 13.087414907255285 20152.283753841362 14.191784170969786 0.2540565617753669
0.7186540190197686 13.081620261425336 17783.956502717745 14.763917857236919 0.2571217206569553
0.7378720768847401 13.07729698688239 15712.255591603123 15.356263539412106 0.26022151647559116
0.7573304205240263 13.074029412796012 13896.078104644914 15.972971522421666 0.2633866807356418
0.7770293450206479 13.071940388032148 12303.61933157214 16.612776939985476 0.26659308695251305
0.7969733287979648 13.070943199730815 10904.996517076945 17.271565423793582 0.2697973349106797
0.817153318728393 13.070769954976495 9674.86154503136 17.95753096592888 0.27307420080900274
0.8375474911623351 13.071338018433698 8592.585950665103 18.671714915256892 0.2764248118014953
0.8581698952528575 13.072756932232162 7639.314799398982 19.406581129999896 0.2797764906280404
0.8789967909695016 13.074621782679277 6797.684410236231 20.170009492046184 0.28318411442516084
0.9000435089330798 13.077099381832454 6054.769042146998 20.9648818925303 0.2866650491007015
0.9212766823133985 13.079962512290809 5398.020060428832 21.78824059461144 0.2901880740100532
0.942711541902222 13.083194796727689 4816.931611939699 22.63857823941015 0.2937394933755887
0.9643280171919802 13.086685094588718 4302.1437775065715 23.52392878075609 0.29737466841455545
0.9860953313855118 13.09028500657896 3846.1627788530695 24.44561059894631 0.30109328982469513
1.0080546184851045 13.094119434169771 3441.181831961886 25.395521459541115 0.30481590075668846
1.0301490516049367 13.0979146829388 3081.6076462369424 26.382527617340322 0.308610712493173
1.05241633272293 13.101891665840753 2761.9337698957384 27.410130466099243 0.31249474925227977
1.0747989155052815 13.105706155791049 2477.502523533932 28.478046874324924 0.31645781867080863
1.0973162760227837 13.109398709611126 2224.1449563521023 29.57963353380399 0.32044716187361977
1.1199327521194877 13.11285470199189 1998.3462004263263 30.726532469813407 0.32452457062682555
1.142662615141849 13.116192280301798 1797.062064389956 31.920613729605467 0.32869374047138045
1.1654752976504426 13.119203278646228 1617.2168674075706 33.16031250960563 0.332939956060142
1.188360808271793 13.121802185178002 1456.5684486601533 34.44216913090136 0.337235474741263
1.2113146340089869 13.124064995177058 1312.9508710204177 35.77691105356047 0.3416374256669122
1.234327572322409 13.125970397252981 1184.3901822137816 37.166572023220866 0.34614285601800787
1.2573711480649006 13.127390910563966 1069.3465678209507 38.61224825111284 0.3507395467659823
1.2804156392068349 13.128175276330246 966.2003299867943 40.10669567102621 0.355388371057091
1.3034892925487516 13.128477943761412 873.6043732234883 41.66310389092684 0.3601554296038125
1.3265680494306833 13.128233741949218 790.5178640903204 43.28396601066308 0.36504273954769684
1.3496151010086053 13.127325766467036 715.8796610219936 44.97189454808414 0.37005033931667164
1.3726145990023157 13.125686348006589 648.8212720187369 46.72494965043791 0.37514501754424895
1.39555393199631 13.12329994377666 588.4797051382485 48.54470441826493 0.3803393122832167
1.4184243853947953 13.120174907548433 534.171016732798 50.440621090268515 0.385670274352488
1.4412180073866994 13.116290258044243 485.2376240610734 52.415939200319144 0.39114046784458895
1.4639087880162567 13.111542918339891 441.094517942297 54.474082592994876 0.39675011314591907
1.4864609318747226 13.106006683422118 401.3393101108624 56.618761805955685 0.40249693276730764
1.5088696451797952 13.099420466606443 365.4062032739913 58.846437212253136 0.40836336573739207
1.5311235041794184 13.091974457335322 332.9534157214977 61.167181622346824 0.4143837283600569
1.5532002125722115 13.083556762863367 303.6169332071255 63.58713055584217 0.4205692081473395
1.575082805472052 13.074160773129064 277.0749104346124 66.1108644630278 0.4269198905651332
1.5967499566059653 13.063774388228547 253.06743858930267 68.74333482837135 0.43344486364236057
1.6181844615538685 13.052290135867752 231.19757062103525 71.48969996930013 0.4401572489636168
1.6393509224266525 13.039730897458611 211.5887392090788 74.35549078797304 0.447063449226857
1.660251619100567 13.02601440825951 193.69790729111813 77.3466229468392 0.4541668024225174
1.6808474362971924 13.011159543760998 177.47005086180357 80.46939899218168 0.4614712469504001
1.7011313042133485 12.995146025959624 162.72997253720345 83.72889557964945 0.4689905633653427
1.7210977566676031 12.977952516903727 149.32385454801022 87.13275402621677 0.47673698356245
1.740691938820543 12.959516722303691 137.14805201845968 90.69059118604092 0.484722199140127
1.7599179802149447 12.939986448352844 126.07828649246024 94.41060699342455 0.49295478624736677
1.7787366421404127 12.918910776429673 115.96760031064416 98.30163751210169 0.5014564593085397
1.7971580292941864 12.896780235279289 106.78004169527613 102.37311763385918 0.5102417251542017
1.8151186003151032 12.873124711878704 98.38665892104663 106.63511968122424 0.5193164290575848
1.8326327384231875 12.848308790644944 90.74665225375722 111.0984643781865 0.5286952507256231
1.8496681494276412 12.822048099453554 83.76339618027178 115.77142976970002 0.538391642444605
1.866215109946998 12.794545703446042 77.39227703710286 120.66779035033287 0.548427673902898
1.8822368294101062 12.765474718173525 71.5626847598021 125.80182212265738 0.5588156808990983
1.8977243356546216 12.735073952601141 66.23510958227438 131.18787810528104 0.5695817161112691
1.9126530618789641 12.70319098117351 61.35497987486141 136.8414323756192 0.5807538465947722
1.9267219866162242 12.670309794877447 56.96424618058308 143.21180210046444 0.9255989540568853
1.9275787074250474 12.645512168437495 55.693263240983924 152.14630527481248 2.959337823927191
