M[M_sun], R[km], Lambda[1], P_c[MeV/fm^3], rho_c[fm^-3]
0.23841724892012095 16.20908015294055 2780876.1263280716 3.453507347168396 0.169602847481901
0.24842723323431953 15.865901989910627 2281887.8793271724 3.6357808185685645 0.1719814204756357
0.2587212952442351 15.562194714005242 1880797.2533217173 3.825243991108829 0.17438075606692036
0.26929948234225703 15.292683711721612 1557092.5810479717 4.021035325880021 0.17677589156264364
0.28016703456839237 15.052780254336788 1294314.1991349622 4.223430347802842 0.1791574736529525
0.2913126921286096 14.83869007218358 1080075.5791044633 4.433818274481568 0.18156285287178667
0.3027476968697929 14.647214908357318 904460.0049463694 4.652547422670806 0.1839958374644272
0.3144667966710751 14.475645701692883 759930.8453166749 4.879985610339781 0.18645806807661264
0.32646825627189735 14.32182293451553 640514.8956803074 5.113545542761285 0.1888917881844708
0.33875728190217064 14.18354378878901 541512.4693936779 5.3562377382203445 0.19134536167881908
0.35132576357972484 14.05929655956621 459162.5046014717 5.608644658086178 0.19382898015772898
0.3641788784411914 13.947553130564405 390351.6921664547 5.871180025607526 0.19634812338749072
0.3773236443986795 13.846849589326625 332640.69079502294 6.140913128153091 0.19884589879930076
0.3907489702554498 13.756247824391206 284174.8423263677 6.420933463109218 0.2013708347130928
0.4044559351070302 13.674728427992166 243361.7395481655 6.712212503972583 0.20393016722917004
0.4184494027272287 13.601314745482224 208857.04566137798 7.0150945324784315 0.2065196630980139
0.4327328124563523 13.53538185661164 179621.5179835426 7.325728239670169 0.20908192198965994
0.44729183496821523 13.475962900193702 154787.61625483813 7.64892979378621 0.21168860267182188
0.4621407837235811 13.422874812326686 133656.35664006625 7.985234034029437 0.21433963795279662
0.47727479869058786 13.375329437593397 115622.37759004561 8.333061327231766 0.2170026922126295
0.49268659937925763 13.33258287580131 100184.1924241589 8.691681354579512 0.21965790720147316
0.5083833956587617 13.294626120964534 86087.53491035815 9.064932180537898 0.22236148593013733
0.5243564896622797 13.2608261908429 74876.84463128173 9.453421476663094 0.22511602422169413
0.5406130237165557 13.23077454608255 65851.37983908407 9.852211607968764 0.22785065777767524
0.5571507163466696 13.2044122850619 57439.124223478764 10.266539793789539 0.23062571708066962
0.5739636928293638 13.181122936093848 50171.889891121966 10.697829339181604 0.2334512685372746
0.5910553999424463 13.160776155215864 43885.71615689547 11.14368846774786 0.2362880159306482
0.6084126335111558 13.143252184846142 38446.81399531202 11.603787123015044 0.23913555057797978
0.6260496524193219 13.127958733607553 33720.76087842531 12.082776141994755 0.24204245151968273
0.6439454659633665 13.114974831064082 29615.11096778077 12.581049914878191 0.24500521102425896
0.6621185705696001 13.104063256746395 26043.13064482073 13.092179230675582 0.24793904409600576
0.6805476067207176 13.095049217193747 22931.029602373255 13.624317988946007 0.2509315117180842
0.6992265866503278 13.087631721305058 20214.570555912156 14.17837670701797 0.2539847323966781
0.7181784163095761 13.081737570080938 17838.159180928564 14.749220009283146 0.257042978152752
0.7373710065656625 13.077263384283176 15761.066020094811 15.340734652025805 0.26014094473105304
0.7568118125370841 13.074110707733318 13940.778266487703 15.956571628440901 0.26330449211927126
0.7764899588633009 13.071961429486011 12344.010353084903 16.5948498336739 0.2665032446605443
0.7964052848382598 13.070906512003482 10941.820386575306 17.252665330145373 0.2697057243729211
0.8165752604898971 13.07076612551286 9708.186563858726 17.93760968571136 0.2729805574884156
0.836946254109962 13.071346006156995 8622.406100892884 18.650720231447632 0.27632905636223065
0.8575410455883591 13.072674042915727 7666.135799630623 19.3837121194235 0.2796721865016631
0.8783479365138396 13.074568640173364 6822.472425215288 20.145939010215333 0.2830779008919672
0.8993696350188031 13.077020467260251 6077.1977105193355 20.939550235676624 0.2865566588476258
0.9205832569193421 13.0798342535771 5418.270101348724 21.760698945093043 0.29007022753918615
0.9419873075327727 13.083059280971874 4835.3794360701 22.60962228867251 0.2936190934808306
0.9635814686012504 13.086547571745639 4319.03550198347 23.493483301552633 0.297251582880893
0.985338760341093 13.090137860244425 3861.002655686857 24.41359828913818 0.30096783660651055
1.0072731654222564 13.093960170651208 3454.8145184119867 25.360800612449452 0.3046798330367441
1.0293553067906152 13.097874266816167 3093.9114739350316 26.346049036409454 0.3084717129582352
1.051592651283299 13.101758240449467 2773.1014549389656 27.371798761965714 0.3123524991630016
1.073952542050526 13.105529374535843 2487.509746139812 28.436522056064316 0.31630371884043706
1.096446347839802 13.109262338995746 2233.3824063223333 29.536022324065076 0.3202894529227168
1.119046151268575 13.112772930046239 2006.8532530551222 30.680722211016803 0.3243636404124426
1.141751944206359 13.116076872325197 1804.7135821589013 31.872484945140364 0.3285288897849388
1.1645454047909782 13.119035062606251 1624.1694689733456 33.10825945055568 0.3327616639505211
1.1874085300072204 13.121728898449609 1462.9614504855438 34.387500682947945 0.3370526904554233
1.2103438585527555 13.124006408489395 1318.7116916239545 35.719477301187155 0.34144986909450353
1.2333293834429626 13.125916017178612 1189.721006218664 37.1062179447144 0.3459509534129013
1.2563690606844684 13.12743734765385 1074.130997625012 38.54705421403646 0.35053225496629004
1.27939683410428 13.12819231447959 970.5116506167165 40.03820397500665 0.35517545673528783
1.3024525134363183 13.128526304366883 877.5871430382988 41.59112074799431 0.35993649533352434
1.3255092912613486 13.128302465770751 794.1627959500158 43.208284926384344 0.3648174416899362
1.3485299056702653 13.127316907417837 719.1816853975415 44.892300453221964 0.3698190252515327
1.3715236335311747 13.125803232486449 651.849634008499 46.63908543797175 0.3748954814439906
1.3944463877563134 13.12343339831161 591.2633876538657 48.454406065709975 0.3800821228322505
1.4173063462718984 13.120346858840048 536.7000310294624 50.34561934602386 0.3854049433289767
1.4400884617241898 13.116540354626691 487.56264264186433 52.31594754851362 0.3908666016617428
1.4627643778675359 13.111859471242152 443.25163007509224 54.368800094774585 0.39646781872553144
1.48530563583507 13.106267559538596 403.2718843115454 56.50708986307689 0.4022012243814336
1.5077113367128503 13.099802508186064 367.18804303472564 58.7269313084882 0.4080486549981235
1.529949135126941 13.092380989399746 334.5892855612848 61.0412804738939 0.41405793585891526
1.5520230783433857 13.084029989953878 305.1060280502015 63.45443255938688 0.42023185346836517
1.5739037108612586 13.07474936115961 278.4526989645647 65.97094482919707 0.4265707653582999
1.5955665615962766 13.06442984770563 254.33066882539146 68.59573711570877 0.4330824495538501
1.6169799498530806 13.052938350541439 232.47066494590374 71.33393039016008 0.4397806989084594
1.6381626010626886 13.04047017859354 212.65785735463353 74.19102245967537 0.4466721890803811
1.659054289093971 13.02682178091198 194.6842291003996 77.17289533138779 0.45376024998336817
1.6796582462052922 13.012013989935479 178.35707195156525 80.28423747998876 0.46104132464875663
1.6942552527274206 12.99600027291856 166.99704665351197 84.4184760198619 1.1470932089489287
1.6944670968523687 12.972736267317657 163.98153402396665 89.01139124364002 2.0001267928768023
