M[M_sun], R[km], Lambda[1], P_c[MeV/fm^3], rho_c[fm^-3]
0.23841724892012095 16.20908015294055 2780876.1263280716 3.453507347168396 0.169602847481901
0.24841077226339198 15.86637604869676 2282449.1442491 3.6354715964253574 0.17197748705302546
0.2586863343255264 15.563147259411942 1881938.355584569 3.8246079061821767 0.1743729747747202
0.26924369411265964 15.294025954235842 1558602.6314397063 4.020010514387686 0.1767633549384637
0.2800933317954269 15.054283541321155 1295919.5753031976 4.222026944898831 0.17914106303332022
0.2912163691086145 14.840271204007651 1081716.5504835045 4.432016916285849 0.18154258395365974
0.30263210574727845 14.64898916764708 906060.8422109676 4.650327725180376 0.18397179697833652
0.31432553783601264 14.477572478418745 761459.856888969 4.877321319012877 0.18643025645704114
0.3263040136038304 14.323845162135019 642053.4544794977 5.110291575561175 0.1888578814894178
0.33856743137389933 14.185610975941342 542958.7859575639 5.352482721523148 0.19130789370159776
0.3511112790608257 14.061280656870668 460414.61888366414 5.604365048185791 0.1937878486374428
0.36394096352204963 13.949480174705846 391473.052276157 5.866350560230519 0.19630340169869154
0.3770547908923153 13.848802581606321 333712.76393833803 6.135282552577994 0.19879375869082652
0.39045064607478985 13.758100178342302 285169.14992190583 6.414680386349878 0.2013151015225743
0.4041288518055451 13.676491302414519 244243.65650566554 6.705308892729164 0.20387114466885792
0.41809370327649814 13.603062322947647 209655.42439819194 7.007195674366509 0.20645213165499526
0.432340307625504 13.537028189034391 180345.449355679 7.317096956476079 0.20901077159247117
0.44684530034649034 13.478142151931772 155553.0748273469 7.639532272083353 0.21161388757885224
0.4616861302968322 13.424325412951276 134237.17838504814 7.975035139817202 0.2142615526236454
0.47678329770600725 13.37666255868363 116144.70524493234 8.32158223832869 0.2169148053871855
0.4921634206566734 13.333947647991428 100669.92470134924 8.679303887678008 0.21956684378206207
0.5078193985677153 13.29583474018055 87404.88489582672 9.051616156796209 0.2222669201826337
0.5237632794476345 13.262098869111167 76011.31923184224 9.439123013587707 0.22501797501271073
0.5399827386544281 13.231911231098413 66204.98631469453 9.836293373286539 0.22774150126828152
0.5564749282622862 13.205341743335646 57754.274473553276 10.249521268567056 0.2305132551350308
0.5732485081126427 13.182056507763873 50458.66587850858 10.679661541626588 0.23333567720123252
0.5903034134779309 13.16173616505486 44146.909930932365 11.123577920074993 0.23616006398341818
0.6076234125511929 13.143878638755988 38673.6980892292 11.582391634960434 0.23900397874062482
0.6252092391141759 13.128631317973069 33648.075346884725 12.060034638752205 0.2419072294619567
0.6430698545559902 13.115602810212142 29803.048439938535 12.555990925295875 0.2448562090827551
0.6611898739447297 13.104616459087891 26213.88391596251 13.065615725434167 0.24778668377919638
0.6795757234118875 13.095420604904989 23082.01606676915 13.596181449568206 0.2507757957793965
0.6982097126407446 13.087912887669452 20350.996704618985 14.148592501379573 0.2538251659795367
0.7171164854210805 13.082016538916136 17961.77363422171 14.716572797116493 0.2568680734150418
0.7362692336974456 13.077582175546612 15873.030933236018 15.306243298316 0.25996198609282295
0.7556607835576422 13.074252375527438 14041.704926968989 15.920147543572705 0.26312195160154644
0.7752929400047449 13.07209034228881 12435.11640864371 16.555038231863804 0.2663037274885367
0.7951634036048034 13.070967346674724 11023.455644936683 17.210695100743965 0.2695022907097403
0.8152774651934297 13.07074101903552 9781.706042242306 17.89337401293956 0.27277262028550864
0.8356035617991879 13.071318993317465 8689.708851089417 18.603379539661933 0.27611012040756544
0.8561471362529703 13.072562884365247 7727.1530552796785 19.332939274612105 0.2794406147332191
0.8769137350733978 13.074488122455438 6877.411267804832 20.092501405451717 0.28284210183953307
0.8978788813550023 13.076809091328064 6126.539033231662 20.88331559664758 0.28631603949962237
0.9190453668961365 13.079694260149985 5463.301536534893 21.6995653771763 0.28980864642997595
0.9403951627610001 13.082729531825642 4875.853379947291 22.545352675912312 0.29335185809689923
0.961932487038285 13.086212681152025 4355.925192069641 23.425911018101004 0.29697840043190427
0.983653737128361 13.089905886694034 3894.5480149591963 24.341195687629934 0.30067872983874966
1.0055394870408947 13.09373517778163 3485.2488088985556 25.283752485063268 0.3043778887036539
1.0275644831013244 13.097497526803675 3121.4543103927476 26.265104520088393 0.3081632785335048
1.0497457348005899 13.101412523609861 2798.1515565481473 27.286746642720924 0.31203686822956544
1.0720588988941189 13.10518493883818 2510.332536035643 28.344396209534107 0.3159618370955479
1.0944961750738225 13.10886295795485 2254.031640812632 29.439272746447113 0.3199395824541428
1.1170671882197274 13.112541804492993 2025.6725194728094 30.579099525212037 0.32400664263416445
1.1397189018698552 13.115766160662648 1821.7838471863045 31.765724698607862 0.32816321464642956
1.1624618787775851 13.118805064955728 1639.7957653430947 32.992808884526994 0.3323662227343877
1.1852920105513376 13.121503976952512 1477.1530148862012 34.266255958905745 0.33664730798846965
1.2081821106029473 13.123842213676118 1331.6607854029212 35.59210670028346 0.341033925640629
1.2311256013113798 13.12571854172488 1201.4399304082199 36.97237847743341 0.3455253957194878
1.2541042871036319 13.127221857648696 1084.8764590519172 38.402500657047796 0.35007263061529303
1.2771203749402043 13.128164739640267 980.2189647756843 39.8863473066967 0.3547033928001902
1.3001148935072102 13.128495389172455 886.5406679115347 41.43153235470633 0.35945111268687174
1.3231266064470604 13.128317656153547 802.3486672780335 43.040508135728594 0.3643179806703571
1.346130893563238 13.127511874974399 726.6809346333673 44.71554293105871 0.3693044545648456
1.36908632429162 13.12599749798936 656.0458295972905 46.44877115893593 0.3743423955697936
1.3919881146579247 13.123751562967849 597.4637173036189 48.25427622692074 0.37951210929486257
1.4148133479187956 13.120758744622782 542.387312790487 50.13507876355001 0.38481692309121573
1.4375627718399004 13.117017007282112 492.77633007854416 52.09436294402139 0.39025970569879
1.4602083925533393 13.112437483848307 448.0240692590171 54.13550637990305 0.3958422872731723
1.4827320719200932 13.106961631836954 407.6571031898805 56.25565015695083 0.4015270380038005
1.5051123606391035 13.100590292258882 371.1940229261398 58.462176041434674 0.4073514398548151
1.5273513593952004 13.093408575031964 338.24278022311483 60.762376797336174 0.41333622102565226
1.549384303896737 13.085081753040717 308.49868573296123 63.160493382221716 0.41948457951246976
1.5712787872176068 13.07607848019045 281.57132893397426 65.66103195427043 0.42579747576629057
1.5929106518206844 13.065728512037015 257.1698564834291 68.26884256271425 0.4322797867664303
1.614331046349881 13.054450026949727 235.0763193491613 70.98896384926678 0.438946793015422
1.635504212483891 13.042073037208434 215.04808443837888 73.82682069459919 0.44580577523994497
1.6564313745930246 13.028849991923337 196.8953719848372 76.78351080721262 0.4528395611275916
1.6769931281838766 13.013952894194235 180.4020088003011 79.86997485481363 0.4600718790008917
1.6973047983637453 12.998386387239162 165.43826373942258 83.09345193088376 0.4675246615824399
1.7172493271316758 12.981287275040906 151.81967995125953 86.460985968002 0.47520872716713153
1.736899865495191 12.963317620693719 139.44111912801287 89.98007846322508 0.4831290711838525
1.7561413866989053 12.943828390553017 128.1688148457068 93.65876173216 0.4912931783362246
1.775008549316072 12.923314672633483 117.92189162951664 97.50566698198722 0.4997196959286533
1.7934699324611185 12.901434926778007 108.5733965726319 101.53000385958933 0.5084248722377605
1.8114720504208117 12.878114917375365 100.0475736235549 105.74162565476917 0.5174161965835116
1.8290133807319835 12.85370252088076 92.29116401242426 110.18664957596074 0.5589602150707935
1.843046776596016 12.828369607250186 86.15068534174232 115.09532901438176 0.8342974533198719
1.8515871024424995 12.799044670630066 81.73533918579575 120.72020586163788 1.1044521363642004
1.8555590612255424 12.764481151566606 78.46753745125153 127.12074622631444 1.370094938026941
1.8556822293371842 12.724147287646087 76.01278570647122 134.32515410371056 1.6250211804743635
