M[M_sun], R[km], Lambda[1], P_c[MeV/fm^3], rho_c[fm^-3]
0.23841724892012095 16.20908015294055 2780876.1263280716 3.453507347168396 0.169602847481901
0.24842797272980377 15.865814161818363 2226992.1457884447 3.635788227116332 0.17198151471516523
0.2587235016999592 15.56218402553541 1880771.8308466428 3.825259231768335 0.17438094250747252
0.26930070898231684 15.292610686589462 1557062.7905913973 4.021059882038865 0.17677619196065542
0.28016883510435825 15.052745308924845 1294285.9719811485 4.223463977590867 0.17915786690114802
0.29131336346561254 14.838583438196865 1080027.5128389036 4.433861442924776 0.18156333860396537
0.30275168112218337 14.647149343308426 904400.9013404824 4.652600619278899 0.18399641361154742
0.314469429697367 14.475639788021775 759904.3644085859 4.880049344565621 0.18645873219423492
0.32647218701893854 14.321777068214452 640498.8897270202 5.113623535636514 0.18889260087878332
0.33876009862768025 14.183553796762336 541492.5705231011 5.356327745186082 0.1913462597784053
0.35133120373806453 14.059204668702428 459092.1631443138 5.608747244610145 0.1938299661213541
0.36418564264097597 13.947354854208978 390260.4703557969 5.871295798404513 0.19634919546371324
0.3773298132317008 13.846751469406483 332614.0463565452 6.1410481143434685 0.19884714879488555
0.39075567910071446 13.75618280351018 284156.7695607282 6.421083380175806 0.20137217091233608
0.40446334712893167 13.674700586576213 243341.26789007476 6.712378025276218 0.20393158235681588
0.4184592747487601 13.601254507943883 208837.81034016685 7.015283928854957 0.2065212823460657
0.4327404351787552 13.535287972231167 179603.31171861666 7.3259352073049655 0.2090836280893313
0.4473022140733548 13.475949619062419 154771.14520017584 7.649155144903218 0.2116903943281958
0.4621522803793831 13.422786520391387 133633.2768469085 7.985478612585588 0.2143415105084544
0.47728567433297486 13.375309548615496 115605.82076557908 8.333336625278971 0.21700479996452723
0.4926985680119275 13.33261906721416 100178.00372022657 8.691978210649118 0.21966009122902794
0.5083963959249215 13.294600999253955 86955.78997639829 9.065251559869319 0.22236375405054615
0.524373846376379 13.26077126762611 75602.77313340489 9.453764433443224 0.22511837598781265
0.5406269445389661 13.230856714075466 65848.99277656079 9.852593443204603 0.22785327614600187
0.5571673011347616 13.204384832258139 57433.95157951145 10.266948038397725 0.23062841484574226
0.5739807274286394 13.181093442303087 50165.44521490765 10.698265170011508 0.233454041480322
0.5910714218836712 13.160835374881044 43882.96535213409 11.144170938894085 0.2362910856194327
0.608430302866929 13.143136928671979 38439.66333758887 11.604300440977077 0.23913870723359051
0.6260692318866492 13.127920117413264 33715.04179447187 12.083321774272813 0.242045695875107
0.6439667960347825 13.114948832548695 29615.736910557287 12.581651195150469 0.24500878626529823
0.662139194370303 13.1040044725363 26039.341126088508 13.092816635209921 0.24794270005766839
0.6805715410573543 13.095039998806236 22927.50304886675 13.624993164334498 0.25093524833856856
0.6992491211959877 13.087534398940845 20210.436120369875 14.179091446780797 0.2539885615558146
0.7182047580708444 13.081713380887896 17835.520452980552 14.750003513328672 0.25704717571084296
0.7373971569167742 13.077267847487523 15645.647268866525 15.341562444051899 0.2601452397359686
0.7568393066980795 13.074117115155852 13841.56289216509 15.957445837678227 0.26330887324805896
0.7765198503385526 13.071947642531557 12341.804685003151 16.59580542104584 0.2665080336185713
0.7964379733368364 13.070863740770386 10939.553817448708 17.25367276664322 0.2697106075127109
0.8166031802263545 13.070852517250389 9706.87797868048 17.938671538978756 0.2729855489078851
0.8369813944894792 13.071335669537966 8620.700622965052 18.651839283124612 0.2763341602869128
0.8575765949480957 13.072654243863528 7664.804024368584 19.38493103521268 0.2796777459003128
0.8783834391251931 13.07454744075015 6820.740351247451 20.147221945265837 0.283083561977837
0.8994039820616565 13.077012834998742 6075.9026356917875 20.940900370233983 0.2865624358651815
0.9206273050566463 13.079906794500836 5417.27365753829 21.76216681836599 0.2900765083425484
0.9420259508313588 13.08304318786896 4834.186539414929 22.611165516328555 0.2936255102774697
0.9636188063433772 13.086574188561208 4318.169819987251 23.495105890438712 0.2972581427125719
0.9853844872534531 13.090266290019924 3860.4171388475797 24.415304356537682 0.3009745225234903
1.0073157416264829 13.093930743763512 3453.915533326739 25.36265096401069 0.3046870843897243
1.0293995406808172 13.097877459538235 3093.313439284425 26.34799303223128 0.3084791204425249
1.0516373698242893 13.101756458502024 2772.4134439856603 27.373841482297784 0.31236007975865154
1.073999465102307 13.105578517126396 2487.0878347469575 28.43873485969112 0.31631193062023094
1.0964925382512083 13.109269061346636 2232.819393684331 29.53834627291582 0.32029785689814877
1.1190900149786005 13.112784167096535 2006.3589669259336 30.683163304498215 0.32437221590857845
1.1417971337836952 13.116056549762016 1804.2513686582988 31.875049545661373 0.3285376740532522
1.1645931064420951 13.119007010721838 1623.7929571118607 33.11103305782272 0.3327711641086276
1.187461634593779 13.121706730573493 1462.5550924635156 34.39041360247162 0.3370624298194399
1.2103929272683476 13.124008888079338 1318.4581107123086 35.722537515556 0.3414598625790686
1.2333870608068767 13.125897937086238 1189.3521115520114 37.10691425230683 0.3459483620544286
1.2564119878636106 13.127311620810834 1073.8094394586672 38.53649606075734 0.35047242429679193
1.278427422468484 13.127882292677468 974.4775406082783 40.19217399189464 0.754055385021972
1.2753848263224747 13.113403654716 977.5216146033795 42.52066068612448 2.780664075529827
1.256243100490722 13.08565647892384 1043.3105336744206 48.58101498032887 5.154131979110648
1.2305917086153642 13.04852641986738 1140.0863133000869 56.75825877564695 6.065592833113738
1.1961062070592647 12.989682144558618 1279.9150845922327 66.35355318091983 6.1478811450020245
1.1582415987647292 12.91321132967224 1446.8104110556021 76.33684128852374 6.185288531463301
1.1190391026438704 12.821428517240534 1635.5743543074339 86.62807023336993 6.22218661008171
1.0792780103203856 12.714911504504693 1843.8708181106126 97.04875902200487 6.2594384287606655
1.0397559212105598 12.594274717551047 2067.0289300973436 107.87898193722916 6.29806104640243
1.000811521272709 12.459421135958772 2300.5954814001907 119.11005794450185 6.338013767335105
0.9628537956645833 12.310290888194457 2536.8831250249564 130.7424001128883 6.379288581677675
0.9263319873879653 12.147161022973721 2765.000475967256 142.78137015411713 6.421894969870641
0.8915354193067464 11.969970388187944 2972.289219792592 155.2360841029886 6.465855497076163
0.858776732941115 11.779177275930705 3145.519564822825 168.06989511001024 6.51102436037889
0.8283571560831566 11.575320025431386 3269.370770489484 181.28563267365104 6.557394799445225
0.8004918068975403 11.359221415358634 3331.5830212297324 194.97970656686695 6.605297544038457
0.7754360863016628 11.132689735048297 3322.587124246285 209.16674857300154 6.654781773239459
0.75315006359615 10.896452320639492 3240.9839932598816 223.8632790327468 6.705895794149937
0.7338496260483149 10.653576717031799 3090.0284756444494 239.08810325005433 6.75869265605069
0.7174885425837914 10.405984402549672 2879.8480111154404 254.8617590075585 6.813217043775557
0.7040431169730739 10.156684621663228 2625.3555231058413 271.2077897009753 6.869533725544067
0.6933848077431207 9.90802610841383 2345.5215329840817 288.1508967039116 6.927726987164005
0.6853767760561473 9.66271359504187 2056.715528920385 305.71776726527315 6.987866644740141
0.679838551754761 9.422999688292984 1774.3950239646206 323.9376485965272 7.050025543298584
0.6765725140977422 9.190860127843694 1509.7934175178157 342.8418486316777 7.114304019642773
0.6753771505299367 8.968067579934099 1270.4443293459608 362.46357134240935 7.180792123711754
0.6760238297964286 8.755403462911238 1059.7654351059746 382.83917762922283 7.249584539954079
0.6783060878184464 8.553767307717427 878.8611197455836 404.006898691886 7.320802910485307
0.6820538099008553 8.363699785975195 725.4217085678549 426.00803788753285 7.394551057824715
0.6870270445730469 8.184685216705109 597.5498034993959 448.887287139234 7.470968558794592
0.6930806150632637 8.017120417719315 492.1933637571474 472.69152841432106 7.550165274976054
0.7000550125630016 7.860318801373981 405.66024895177657 497.47215831397745 7.632317871212442
0.7077725221754133 7.714117009949399 335.3042514084655 523.194570869702 7.717205971701373
0.716165035107255 7.577449999725301 277.8118515298545 549.9895646436203 7.805303442922487
0.7250576401607621 7.449777443605784 230.97345875799985 577.9266133256211 7.896780598050852
0.7343679336946808 7.330715105785252 192.94977299312941 607.0722197860506 7.991836686189198
0.7439995269256222 7.219536033328236 161.92420059698426 637.4987407446413 8.09067130236338
0.7538514626244341 7.115603528942166 136.56274180029274 669.1505343813869 8.193001888260442
0.7638800952311061 7.018302007845105 115.75707029407002 702.2207015809647 8.299467563648305
0.7740009703387284 6.926880006106358 98.58541501610615 736.8095425520984 8.41035509492947
0.7841351087508174 6.841122447954707 84.43152782908417 772.9195367129647 8.525580987692159
0.794254208850364 6.760305139689175 72.67638734125974 810.6555075113748 8.645437490476985
0.8042965493873409 6.684174588572376 62.83178712031565 850.2066633517168 8.770510577014264
0.8142191164058968 6.611940335285356 54.60072091806212 891.5185204978529 8.900489791501187
0.8239849274359268 6.5436189913227585 47.66436650865053 934.8507924689824 9.036197756627033
0.8335570963849496 6.4786119625208896 41.79824339267489 980.2358656487621 9.177628733119928
0.842903002270964 6.4166203014342384 36.7460598752309 1027.8557334947477 9.325300317892829
0.8519894010993851 6.357552792209054 32.565567191283776 1077.8036596982852 9.479380330537508
0.8607933920152243 6.3008752928155864 28.909985794276576 1130.3034858131628 9.640547090408834
0.8692850113302459 6.246412408188982 25.744663924407533 1185.4016942518842 9.808745952447133
0.8774400531316338 6.194072175740088 23.069662703698352 1243.4021767133938 9.98489809509101
0.8852464098772558 6.143451837929854 20.696026884054092 1304.4259145313442 10.169220867762652
0.8926689766596844 6.094493248285526 18.65603473391614 1368.6635096807465 10.362153995956453
0.8997071475137758 6.047038171935948 16.894293570023756 1436.3977235030236 10.564473901767363
0.9063447120387382 6.000756588502298 15.30842788300067 1507.8607935485106 10.776720352961568
0.9125420989136349 5.955700459880418 13.935883754076071 1583.3062495403938 10.999486087570496
0.9183360363328941 5.911658582247204 12.724335922057504 1662.9824301185577 11.233303310683393
0.9236540636431348 5.868591243926731 11.667063698586308 1747.2529424888837 11.47911786258441
0.9285336134221733 5.8262289797901365 10.702581569916408 1836.458139915423 11.737728977549025
0.9329272267886569 5.784618433729283 9.870917029447735 1930.9728739035977 12.010015940780766
0.9368513058602516 5.7435739434305795 9.10823007722142 2031.2093767538531 12.296939703930317
0.9402883213830144 5.703191732007945 8.44007763472202 2137.6215676568213 12.599548920176625
0.9432432340978141 5.663194171680844 7.8456744373204135 2250.6629193460976 12.918809646335585
0.9456966237021971 5.623596975697976 7.306381549584057 2370.9156486405655 13.256133852702686
0.9476465826618745 5.58440143879196 6.823617213268717 2498.989348407148 13.612916099872422
0.949078540662364 5.545504137244963 6.38550583799784 2635.5539227396252 13.990685240517848
