M[M_sun], R[km], Lambda[1], P_c[MeV/fm^3], rho_c[fm^-3]
0.23841724892012095 16.20908015294055 2780876.1263280716 3.453507347168396 0.169602847481901
0.24842515753155253 15.865880793116574 2281721.343074175 3.6357328148110164 0.17198080984968456
0.25871550928246256 15.562345782728928 1880880.0507622634 3.8251452401477395 0.17437954803627684
0.2692906265778176 15.29286412643983 1557323.430686847 4.020876217468218 0.17677394517311001
0.2801549320028766 15.053015786637479 1294541.0232793447 4.22321245022298 0.17915492567881644
0.29129673698975767 14.838992504805958 1080312.912419062 4.433538575833464 0.18155970569705368
0.3027295185649472 14.647522443199927 904661.422464317 4.652202752460738 0.1839921045055773
0.31444249829974413 14.47603744433971 760202.6383058166 4.879572668903062 0.18645376518155912
0.3264425055497863 14.322144525058047 640784.9628692798 5.113040223671989 0.18888652270414738
0.33872591551629827 14.183981000521104 541763.6451273877 5.3556545846237675 0.19133954290691071
0.3512925373747231 14.059577905124362 459322.73877132835 5.607980007608401 0.1938225921725513
0.36414077228669967 13.947794807429592 390475.7330472579 5.870429948696469 0.19634117754492364
0.3772827076207144 13.847081629970747 332813.67993243743 6.140038580413416 0.19883780033522644
0.39070292557139136 13.756528983619331 284340.3416414903 6.419962189427055 0.20136217782573046
0.40440534902580666 13.674940861439609 243498.08019842923 6.711140143252871 0.20392099906007363
0.41839490534914225 13.601614898580705 208984.49308779056 7.013867507365537 0.2065091726226414
0.4326691468736563 13.535619952188863 179731.13362920968 7.324387387899287 0.20907086892444074
0.44722821373898297 13.4762993324408 154895.04508748607 7.647469854928118 0.2116769954129124
0.4620709366525518 13.42311967776921 133743.49483748805 7.983649542147519 0.21432750667978187
0.4771978645919096 13.375572601077893 115695.46612749282 8.331277842293783 0.21698903739814465
0.4926046288688873 13.332838367812586 100260.80834336387 8.689758222917826 0.2196437583496536
0.5082960811678702 13.29482316080773 87032.97919479627 9.062863150835998 0.22234679240418972
0.5242643413258117 13.26098163494931 75680.9139628485 9.451199721510383 0.2251007889244367
0.5405186515232644 13.231047943287205 65905.37828676181 9.84973801996507 0.22783369558070105
0.5570473183559128 13.204578611470827 57491.486790236355 10.263895140360097 0.2306082406621006
0.5738516500444413 13.181345689746362 50219.08711673996 10.695005998680399 0.23343330523161537
0.5909376526576579 13.160915570428033 43926.56208602928 11.140563028293291 0.2362681305416142
0.6082920833993551 13.143274676428764 38479.164623743294 11.600461880988638 0.2391151019580676
0.6259163778498432 13.128047942427754 33752.50349335243 12.079241593518733 0.2420214349266738
0.6438103940376436 13.11506837253909 29645.20668853255 12.57715493562176 0.24498205129272155
0.6619746797434762 13.104204052804985 26070.641177861897 13.088050272572485 0.24791536162793676
0.6803916806408331 13.095039589154734 22954.274813164902 13.61994438854583 0.25090730691867325
0.6990678208633042 13.08760043309347 20234.760658849427 14.173746849362718 0.2539599283173989
0.7180186718666359 13.081926835985346 17859.717905826365 14.744144786393884 0.2570157880660844
0.7372015368090062 13.077357432304375 15778.712146021118 15.33537258377323 0.2601131236011359
0.7566331910124321 13.074141741985077 13956.570682741534 15.950908926114556 0.2632761132974529
0.7763108906458794 13.07203378974691 12358.213752007903 16.588660088266582 0.2664722245447247
0.7962180028977085 13.070965089317191 10881.78735326172 17.246139776950297 0.2696740944006839
0.8163739874734429 13.070807189869056 9719.901893223569 17.930731697292664 0.27294822634968086
0.8367436651736891 13.07142610767248 8633.166374893672 18.64347179468288 0.2762959966956647
0.857324527214574 13.072634996708489 7675.510003079052 19.37581694339198 0.27963617709776645
0.8781276515860659 13.074562955374573 6830.870773528775 20.137629219753492 0.2830412330673988
0.8991391836113044 13.076947007327984 6084.6415967355915 20.93080523700163 0.286519240346933
0.9203475523184278 13.07984708180579 5425.305082485957 21.751191474145823 0.2900295465372275
0.9417413792215168 13.083064547231702 4841.754507805777 22.599626807008455 0.29357753190506636
0.9633211031128219 13.086466061923238 4324.640475955313 23.48297386349252 0.2972090951347328
0.9850801671123495 13.090152109086311 3866.3195581279915 24.402548234105023 0.3009245324846482
1.0070072968319963 13.093970273198597 3459.4963567356367 25.348816218077477 0.3046328673272727
1.0290696034439741 13.097779081754888 3098.224933715087 26.33345820492163 0.3084237363188861
1.0513085749154958 13.101717066470743 2776.9399109198744 27.35856859839363 0.31230340163415876
1.0736602752297286 13.10550539039075 2491.1183446019036 28.42219052510129 0.3162505341045881
1.0961450670811899 13.10920820104826 2236.5301350084906 29.52097104338664 0.32023502375875296
1.1187377411536064 13.112743720729052 2009.7478253721458 30.66491233545081 0.3243081007422674
1.1414425550313319 13.116067698657984 1807.3316538395964 31.85587527950246 0.3284719983672061
1.1642180499359602 13.118962080760005 1626.5277572550272 33.09029643106361 0.3327001370259012
1.1870799026891716 13.121661173212567 1465.1097540930907 34.36863554750514 0.3369896147611559
1.2100100930623041 13.123997936009795 1320.745374232253 35.69965836638809 0.34138514806677855
1.2329981235537983 13.125900132893905 1191.47033903698 37.08539176860425 0.3458847342351945
1.2560036669263273 13.127303157948353 1075.7614261381166 38.52455915588308 0.350460729389751
1.2790494490637037 13.12824293634118 972.0245255438037 40.01457163431321 0.3551019928837002
1.302097255820718 13.12856916838342 878.9607940936759 41.566284328167065 0.3598609562110308
1.3251272555137865 13.128230255491392 795.4117910134519 43.18217325398011 0.3647397088731922
1.348153616768539 13.127366104682233 720.3620841432663 44.86483940210678 0.36973921873601867
1.3711368580514154 13.125780177660669 652.9230293455547 46.60946278985754 0.3748093929575602
1.3940740797787206 13.123520474478504 592.2058898330846 48.42325447938964 0.3799933963034074
1.4169188092487697 13.120449491492888 537.5920861817975 50.312846035405485 0.38531341052482276
1.4396922296770158 13.116612780794707 488.37195882961134 52.28145378257114 0.390772127014709
1.4623576951961468 13.111868276673771 443.9632745969307 54.332482176918134 0.3963704393344239
1.4848988984678901 13.106372938692042 403.9559913567499 56.46794383948433 0.4020962619781154
1.5073155047689746 13.09995573665117 367.7941227614707 58.68571056242452 0.40794010294288424
1.5295569471944714 13.092581325873361 335.1353085119944 60.997855121523116 0.4139455647301712
1.5516076028799417 13.08420069792778 305.64211818044805 63.408664248111656 0.42011549787619423
1.5735063248365115 13.074978857314875 278.92769785055896 65.92268722591704 0.4264503537672662
1.5951487556987922 13.064572755165747 254.77057534765473 68.5448329917857 0.43295745864890856
1.6165688029914216 13.05320144914379 232.87667866460137 71.2802096618277 0.4396508369461409
1.6377515555503959 13.040723581920334 213.01681738941147 74.13430365340332 0.44653725849113246
1.658649782130252 13.027131076008702 195.02481303604844 77.1129853920698 0.45362005044228926
1.6792625441380888 13.012419268278416 178.68031486887037 80.2197136192461 0.4608903277396003
1.6995420463709972 12.996419403461042 163.83491346118223 83.46298653983278 0.4683771391280962
1.7194910371853496 12.979360007469325 150.3632265947033 86.85163037426722 0.4760974339236819
1.7391106815841835 12.961160399675137 138.1032537745154 90.39323811531746 0.48405546725111004
1.7583754458516787 12.941719797494459 126.94233104724118 94.09593932594669 0.49225935819508054
1.7771663496437744 12.920635701163086 116.77911914204998 97.96848406613753 0.5007295370382512
1.7956092737817038 12.898730457307332 107.5242077935932 102.02021265451334 0.5094812388941992
1.8135860258449814 12.875153651854584 99.0738531606115 106.26110543021001 0.5185209967385092
1.8311347956291337 12.850535289024625 91.38439578375277 110.7018827561365 0.5278625216994736
1.8482144238871212 12.82451378409089 84.35533221870443 115.34601545874013 0.5375017396158255
1.856164617563204 12.802169858144154 80.62869652644541 121.52038819378565 2.319580659159452
