M[M_sun], R[km], Lambda[1], P_c[MeV/fm^3], rho_c[fm^-3]
0.23841724892012095 16.20908015294055 2780876.1263280716 3.453507347168396 0.169602847481901
0.24842492178399425 15.865909372284381 2281763.747822145 3.6357285309695375 0.17198075535760077
0.25871477894006795 15.562358487165888 1880909.8564535805 3.8251364277280824 0.17437944023304258
0.26929046360444847 15.292848776958706 1557486.1041209614 4.020862018970678 0.17677377148143214
0.2801538056815462 15.053084028532453 1294673.1147779743 4.223193005691806 0.17915469830519187
0.2912954630159421 14.839002960931243 1080371.0078393468 4.433513616591995 0.1815594248551739
0.3027288771337687 14.647492596259779 904705.5870350001 4.652171995683569 0.1839917713935758
0.31444144126399765 14.476034327495109 760196.4212860672 4.879535820241909 0.1864533812144691
0.3264416541411181 14.322128675471143 640809.2956851788 5.112995132216089 0.1888860528462322
0.3387246822804954 14.183948152351064 541761.658310076 5.355602548157432 0.19133902368122077
0.3512897599519181 14.059577513764225 459340.3517136456 5.607920699435444 0.1938220221590744
0.3641376653193493 13.947815400704924 390527.025435549 5.870363018284739 0.1963405577576779
0.3772781737581114 13.847199757001082 332824.60809499474 6.13996054415875 0.19883707770594478
0.390698600694987 13.756570012292283 284349.0803639086 6.419875522961351 0.2013614053742109
0.4044009633619041 13.674956673907259 243499.5786340372 6.711044457557678 0.20392018099333778
0.4183903083893132 13.601629523143362 208996.80819550264 7.013758022358636 0.2065082365784183
0.43266380027833473 13.535672096124884 179743.49910364894 7.324267747263774 0.2090698826888434
0.44722192664792065 13.476308694039966 154901.07983973753 7.647339589425491 0.21167595973569375
0.4620657585655399 13.423126181651483 133742.66801833335 7.983508164208848 0.21432642425431042
0.4771925410188642 13.37557497407093 115712.56764772243 8.33111871083411 0.21698781904719913
0.49259497193870855 13.332878121799753 100271.80901656087 8.689586632682337 0.21964249592708318
0.5082882343384914 13.29482658290644 87041.46243719541 9.06267854420829 0.2223454813924281
0.5242561992767295 13.261077821517718 75688.34549037318 9.451001489484012 0.2250994295829971
0.5405108090443841 13.231070189184843 65915.3118607206 9.849517321223235 0.22783218217769077
0.5570359341626956 13.204613680918262 57496.761176153836 10.26365918036539 0.23060668138949908
0.5738433109524707 13.18127935119574 50221.91254226208 10.694754097595899 0.23343170252865594
0.5909269861552274 13.160932118864974 43930.127862561036 11.140284177029367 0.23626635637003085
0.6082803998425151 13.143338107184817 38485.15247037802 11.600165205266068 0.2391132775467797
0.6259054926787592 13.128031026836421 33756.40402726175 12.07892624561866 0.2420195598530917
0.6437964919722576 13.115092312161902 29647.816308107358 12.576807434847487 0.24497998503662327
0.6619630320530274 13.104194770110231 26072.940512990484 13.087681899057124 0.24791324874769016
0.6803839880899266 13.095021578197848 22955.73135832524 13.619554191162484 0.2509051474508366
0.6990538004406762 13.087643663792777 20236.833050198355 14.173333792115502 0.2539577153973764
0.7180014381843389 13.081802971806571 17859.285321508025 14.743692001179207 0.2570133623067636
0.7371916047019522 13.07732103879515 15779.420250265648 15.334894210581664 0.260110641558371
0.7566178343418061 13.07412865100443 13957.894746760438 15.950403735090278 0.2632735815157635
0.7762901165551942 13.072036805251088 12359.747613205136 16.58810788488967 0.26646945715906006
0.7962004727896832 13.070966836110522 10955.826605181623 17.245557618736427 0.2696712726248755
0.8163553479868615 13.070835524730285 9721.224668767061 17.93011810122539 0.2729453420384011
0.8367179066450695 13.071380307428074 8634.431793238882 18.642825154163578 0.27629304740871496
0.8573062083528091 13.0726250386979 7676.069010758154 19.37511261592722 0.27963296470426785
0.8781073998829522 13.074628030078115 6831.891379090319 20.13688790896701 0.2830379619555706
0.8991178506288412 13.07696500917372 6085.405959585331 20.93002510617475 0.2865159022874351
0.9203285215181558 13.079829683714102 5425.7976825079095 21.750343335602874 0.2900259174832006
0.9417203133418969 13.083012178483083 4842.412767054927 22.598735139467088 0.2935738243190467
0.9632981699731075 13.086442329028454 4325.048770344832 23.48203635297533 0.29720530495026726
0.9850606564404918 13.090106284888746 3866.515152612063 24.401562502894333 0.30092066949714785
1.006983660944816 13.09396660054482 3459.888703066721 25.34774715309515 0.30462867776259317
1.0290473824900903 13.097723783762856 3098.42660408847 26.332335049591794 0.30841945660008874
1.0512828123483224 13.101684799350195 2777.220692933361 27.357388419077598 0.3122990219537645
1.07363458830038 13.105492379920223 2491.483516435853 28.42091211806505 0.31624578989821506
1.09610193544688 13.109156332296585 2236.898532614239 29.519628441178046 0.32023016857617337
1.1187119443389058 13.112701580771178 2009.9533377863524 30.663502073897792 0.32430314653113596
1.141405089456472 13.115960833325081 1807.6294815145125 31.854393684892333 0.3284669236101512
1.1641877228186668 13.118975258624065 1626.785900192817 33.08869413991455 0.33269464885912664
1.187048855623116 13.121690799934196 1465.3049980609346 34.36695279885103 0.33698398848086986
1.2099817773833088 13.124003283857995 1314.9423071496815 35.69789055137059 0.34137937506202726
1.232969913940204 13.125898512571103 1191.6150167213652 37.08353412159188 0.34587882763683586
1.2559723307270145 13.127294748428652 1075.945796602252 38.52255267900604 0.3504543495700384
1.2790051246124703 13.128163442772374 968.0257696682123 40.01246373014393 0.3550954402209292
1.3020593922753272 13.128544003093277 879.1078143089707 41.564069040426865 0.35985421848904314
1.3250994932918927 13.12828754682577 795.532753874685 43.17984423617796 0.36473277553276096
1.348121798209618 13.127351424235382 720.4423168775821 44.862390044532226 0.369732100483609
1.3711048781862891 13.125824545822022 653.0054006462901 46.60682067294746 0.3748017145135236
1.3940423246841882 13.123589172674611 592.3196827665923 48.42047601301513 0.37998548262368714
1.4168868909994254 13.12045479154229 537.6655713004758 50.30992294634222 0.3853052466093164
1.4396569202051561 13.11660128184574 488.4339414648228 52.278377267628755 0.3907637007772329
1.462320343670933 13.111907880120677 444.0607794578419 54.32924299027175 0.3963617540891806
1.4848760864441293 13.106468414233518 404.0197363532953 56.4644524726259 0.40208690056097274
1.5072762570740854 13.099968443070823 367.8570481221227 58.68203418425042 0.4079304214488614
1.529517605380667 13.092577536320432 335.20409915351655 60.99398215184999 0.41393554270501765
1.5515720575556806 13.084242468879268 305.672748463827 63.40458235186939 0.4201051205771151
1.573467263984456 13.074961198248273 278.9736417537485 65.91838335669695 0.42643961482241255
1.5951146286810296 13.064580030762546 254.79431414004222 68.54029313198325 0.4329463113951836
1.616546395902453 13.05330608165717 232.91439661343054 71.27541864798219 0.4396392553745802
1.6377169718445455 13.04073214737396 213.05317766223092 74.12924530686605 0.44652522499247904
1.6586194449571379 13.027164118644562 195.05173576293396 77.1076425019331 0.4536075471623039
1.679216751401546 13.012460556669948 178.71756479640604 80.21395935382401 0.46087686177083775
1.6995113634046346 12.99653822312119 163.86716635238176 83.45690627735115 0.46836311260091373
1.7194609982069784 12.979474742385115 150.39035305874958 86.84520245437879 0.4760828105584326
1.7390619784079286 12.961062714883933 138.11651697066574 90.38643936751035 0.4840402229425264
1.7583056447617442 12.941544938342961 126.94704716805212 94.08874497446105 0.4922434583923419
1.7771394604293398 12.920719776934938 116.78999822413036 97.96086737335261 0.500712917838665
1.7955615591762923 12.898631428565745 107.53546921375437 102.01214472563483 0.5094638530554667
1.8135544461217121 12.875240661360484 99.09370059116948 106.25255527265267 0.51850281274783
1.8311150974098844 12.85066263669354 91.39510612024586 110.69281708860264 0.527843485909419
1.848161789575423 12.82438806737515 84.35839333207728 115.34446436029468 0.5375105078150028
1.8647435313992673 12.79708676738483 77.9453660964486 120.21763902337531 0.5475146795511756
1.8808129598826548 12.768272110916621 72.07267944346707 125.32360255051779 0.557856687234598
1.8963167370910274 12.7379394142922 66.70725171811816 130.67957678298126 0.568572900549006
1.911297508743627 12.706378087954771 61.798489932875896 136.30086931620923 0.5796917966717743
1.9256645372207974 12.673106596685393 57.296367013575185 142.20397442676963 0.5912308279279027
1.939469530373432 12.63858785097367 53.17978791300589 148.4066768302757 0.6032105150770918
1.9526728817294625 12.602647906205027 49.40271850549165 154.92814009531747 0.6156664833212424
1.9652203856406443 12.565009872517317 45.932807224168286 161.78141915410828 0.6286035352084637
1.9771430384497852 12.526158804467142 42.758271968286586 168.98807558405395 0.6420370642999054
1.9883941975327488 12.485688561099828 39.83833175197888 176.57889755429 0.6560357774421944
1.99896110182174 12.443703038864104 37.15538524271484 184.57993727044737 0.6706392081788952
2.008823130929831 12.40012636092311 34.684378877094915 193.00533168227062 0.6858235291244573
2.0179779477889777 12.355211875825498 32.41898740509945 201.89119514291286 0.7016637298216964
2.0264047979250437 12.30876744920519 30.33407332242019 211.27695124185098 0.7182297723546499
2.034070002084867 12.260721136283939 28.41160050521283 221.17865474624116 0.7354872074030061
2.040985682135442 12.211217290498027 26.64340864873876 231.6469843901187 0.7535459093765662
2.0471447065388473 12.160241121928856 25.011574713497367 242.71878114443405 0.7724443536720809
2.05249017933438 12.107675150104809 23.50831129195025 254.430762222365 0.7921998977575501
2.057038450466157 12.0536466385353 22.122263261355386 266.84017133115657 0.8129223256950759
2.060789959209259 11.998213813453681 20.84495655256366 279.9867555574162 0.8346256872370337
2.0637146182821278 11.941224903720686 19.664072889425256 293.9341295232293 0.8574039916726676
2.065802150668076 11.882785737810092 18.575169862816995 308.7425434259782 0.8813370966047378
2.067060169686434 11.822951630903349 17.569992334839927 324.4680043977497 0.9064526721074829
2.0674728470174704 11.761689461731818 16.641616258224172 341.19686517785027 0.9329000958174721
