M[M_sun], R[km], Lambda[1], P_c[MeV/fm^3], rho_c[fm^-3]
0.23841724892012095 16.20908015294055 2780876.1263280716 3.453507347168396 0.169602847481901
0.2484274110671566 15.86587103772911 2281552.100165792 3.635788310719338 0.1719815157786271
0.25872351512762753 15.562186873573854 1880746.8968971937 3.8252594037543797 0.17438094461139544
0.2693008057440214 15.292618034651497 1557086.9048776084 4.021060159147788 0.1767761953505573
0.28016887115310013 15.052725291012559 1294277.098896121 4.223464357093524 0.1791578713388428
0.29131273307355154 14.838584281328043 1079993.7780021164 4.433861930069124 0.18156334408532324
0.30275132050397036 14.647124796139956 904384.5122040518 4.65260121958919 0.18399642011322223
0.31446985604993016 14.475617895560596 759921.6235819635 4.880050063791169 0.18645873968864402
0.3264721795421544 14.321779735660137 640477.644271021 5.113624415768893 0.18889261004985922
0.33876051790402145 14.183486445505757 541489.3757379499 5.3563287608960515 0.19134626991327314
0.35133069631279157 14.059181713650009 459073.77366432303 5.608748402279205 0.19382997724776274
0.36418514270967484 13.947431675395539 390292.6608008956 5.871297104879636 0.19634920756189997
0.37732996958654264 13.846762972743447 332615.2245367095 6.141049637640701 0.1988471629008827
0.390755954203628 13.756187890675314 284165.41510898015 6.421085071967449 0.20137218599114443
0.40446360537327847 13.674692988489367 243341.01028176627 6.712379893161406 0.2039315983263371
0.4184583302479151 13.601265249992082 208836.0496197416 7.015286066170528 0.20652130061908727
0.43274082692653254 13.535332744291411 179606.66930121483 7.325937542912618 0.20908364734248386
0.44730267643063853 13.475950820622439 152982.9161410845 7.649157687969187 0.21169041454686796
0.46215181230266 13.422837140509106 133635.72240815155 7.985481372634197 0.21434153164008884
0.47728477748926 13.375323790481033 115605.99852457955 8.333339731999645 0.21700482375037122
0.49269950028718207 13.332611025889006 100173.93836937484 8.691981560654044 0.2196601158756625
0.5083960359340268 13.294608921283867 86958.88784940726 9.065255164051615 0.2223637796461894
0.5243725011639623 13.26079319474185 75609.7206217888 9.453768303699773 0.2251184025274198
0.5406299486000162 13.230822571243651 65850.4395856431 9.852597752210613 0.2278533056942567
0.5571665963020833 13.204390124087798 57432.642132122615 10.266952645437573 0.23062844529001744
0.5739794354970941 13.181079246204312 50165.824129687404 10.698270088366447 0.23345407277300992
0.5910735893230273 13.160807653312808 43882.07524633173 11.144176383594841 0.2362911202609589
0.6084314833096282 13.143127248592622 38438.37920053152 11.604306233790354 0.23913874285657252
0.6260702463902275 13.127917773470184 33715.054959971734 12.08332793175998 0.24204573248781797
0.6439673137705118 13.114947119034646 29611.30860523478 12.581657980640014 0.24500882661214116
0.6621390094480355 13.103989150948209 26039.17837745851 13.092823828370717 0.2479427413154861
0.6805705665534967 13.095049887139261 22927.620605525328 13.625000783749066 0.25093529050666447
0.6992489448326167 13.08753254437412 20211.50259962263 14.179099512689882 0.2539886047682551
0.7182050768111133 13.081722826667562 17835.469762212757 14.75001235526551 0.2570472230807879
0.7373972182841527 13.077276635249127 15759.031643548444 15.341571785792029 0.2601452882056548
0.7568394092895749 13.074103676788377 13938.386401570002 15.95745570325105 0.2633089226897066
0.7765183217590779 13.071952944874942 12341.791349683423 16.595816205002208 0.26650808766272877
0.7964376824835692 13.070873482403876 10939.870271545306 17.25368413573495 0.2697106626197716
0.8166053771811473 13.070835443505336 9706.867543405531 17.938683522183123 0.2729856052369481
0.836981339593783 13.07134311129222 8620.68959853309 18.651851911833944 0.2763342178856659
0.8575754679028833 13.072676309793174 7664.463392062216 19.384944790933492 0.27967780863929476
0.8783801907208952 13.074542801207082 6820.973481098097 20.147236423469696 0.2830836258644346
0.8994046384402076 13.07700287416442 6075.9059556046 20.940915606811924 0.28656250106014874
0.9206270559825467 13.079935926121953 5417.290974627832 21.762183383684484 0.2900765792229915
0.9420285963527569 13.083049400105056 4834.220525475977 22.611182932054966 0.2936255826926926
0.9636178853808901 13.086582570371542 4318.2540683919415 23.49512420179292 0.29725821674204567
0.9853824845514995 13.090207369620218 3860.313288620623 24.415323609985833 0.3009745979759349
1.0073167180645424 13.09396728833368 3435.524974937877 25.362671845787712 0.3046871662234359
1.0294016474833596 13.097859475631513 3093.1773184187705 26.34801497083097 0.3084792040382974
1.051638175991818 13.101748306694455 2772.3784773679313 27.373864535054363 0.3123601653081139
1.07399690626739 13.105590919710776 2487.126806355798 28.438759831943685 0.3163120232929998
1.0964934681539897 13.10926704727749 2232.8097697309418 29.53837249950363 0.32029795173999503
1.1190898202589614 13.112789954489315 2006.4186608082243 30.68319085312917 0.32437231268618244
1.1418012147145893 13.11604546984173 1804.1947645907192 31.875078488140307 0.3285377731870153
1.1645885463345242 13.119023456029003 1623.7597779213584 33.111064359087386 0.3327712713217023
1.1874611691298802 13.121705486522762 1462.5745481043418 34.390446475960744 0.33706253973214934
1.210397711792182 13.124009981418979 1318.3839359290926 35.722572051359734 0.3414599753597369
1.2333893549737767 13.125921102702833 1189.4103743742758 37.10946999948556 0.3459612936881234
1.256411860978406 13.127326620318701 1073.8214992714115 38.550566925340085 0.35054342402837885
1.2794585414563209 13.128236470766533 970.2956251529454 40.041894304726085 0.3551869285500494
1.3025100707744262 13.128521624032198 877.3753109366252 41.59499912995839 0.35994829129978273
1.3255668798832636 13.128304104915639 793.9422524021413 43.21236247823485 0.3648295803069444
1.34858660029646 13.127354352223188 719.0107381667507 44.896588753956436 0.36983148778756814
1.3715834769377637 13.125774839393014 651.6293197857875 46.64371137016502 0.3749089251948434
1.3945141789548805 13.1234658523622 591.1215095948836 48.45927079767876 0.38009597865252576
1.4173920326210925 13.12048201192506 536.5645428890995 50.35073737225398 0.38541923749956053
1.4401442996439997 13.11653543345663 487.4426051640042 52.31991818313624 0.39087069826789317
1.4628200789161174 13.11182439630805 443.13194174809456 54.37927749605771 0.39836355579299354
1.470816272012251 13.100490358409244 425.5772250114796 57.37104162589364 1.7391990161536346
1.4589583082648538 13.076112688133483 438.5237775463162 62.17552339906323 3.204709047984483
1.438851959914373 13.042771093128145 464.3849454841453 69.77696920433938 4.673409015383854
1.4133215338397032 12.999780152123849 499.79193005099506 79.89783689753716 5.743584443264066
1.3821640337497505 12.94247954817805 545.8180040861158 91.55298031056368 5.992686662932832
1.3465273871687091 12.868142869236857 601.4017286530785 103.71278258055847 6.05879228573187
1.3083512841040539 12.777899662198465 664.4235895856054 116.36871418394858 6.115643491813353
1.2690384536411814 12.67306118719629 732.6879350994897 129.5176978154019 6.174512037538338
1.229430304403586 12.554713655044708 804.4633415216323 143.17273104791246 6.235497754058163
1.1901073406871578 12.423344693019956 877.6881311896037 157.3514674000287 6.298665618585908
1.1515148094429022 12.279407840973262 950.0203907446856 172.0744032844941 6.364078499707448
1.114077088644247 12.123415244364281 1018.4118280821712 187.36657319810166 6.431828743265917
1.0781220562074925 11.955878455643338 1079.373674247683 203.2541128137585 6.502029572597931
1.0439408587002588 11.777391061065709 1129.5813371716774 219.765651449636 6.57478297844306
1.0118181208182728 11.5889171888442 1165.6318485404265 236.93310415321127 6.650198841063708
0.9819471365265297 11.391293408472928 1184.5632221358865 254.79067122534545 6.728418244706167
0.9545038586533381 11.18580461438532 1184.453599232386 273.3746024177039 6.80957318003454
0.9296041127502732 10.973937272876494 1164.7885021781217 292.7251688851797 6.8938060790963345
0.90731338506781 10.75691586885569 1125.8662083177546 312.8845116346161 6.981289295662274
0.8876492420839903 10.536793040940765 1069.9368844011983 333.8984582861479 7.072180062813993
0.8705830612709098 10.315228548094957 1000.3141363662224 355.81694119712563 7.166679533079018
0.8560319881587612 10.093892928785294 920.9021688656263 378.69218290148683 7.264956875978165
0.8438890294959195 9.87449553779238 835.5950387725878 402.5821300023086 7.367263253066769
0.8340072101454086 9.658711238598205 748.4881098042915 427.4454989041801 7.473297411018573
0.8262392621818673 9.447727544917427 662.8310354995934 453.4319042826909 7.583739771840424
0.8203953575958508 9.242840015465216 581.4109545643201 480.6212025021687 7.698857350380606
0.8162963294898058 9.044884319300762 505.94510651831723 509.0891312513487 7.81894287911042
0.8137565046946585 8.854564653645754 437.60766784622524 538.9187350866611 7.944297241604359
0.8125905438147681 8.672161016502741 376.7508247055429 570.0494361459408 8.074536640345313
0.8126173539815532 8.498073760695037 323.3535797335617 602.7011648707531 8.210590005898828
0.8136721636616764 8.332257261110176 277.08059912747774 636.9904797085225 8.35289052214373
0.8156077510181065 8.174667182284367 237.30062578587433 672.9256762696155 8.501349788700823
0.8182685547943793 8.025108014027783 203.28372455778572 710.6290594479459 8.656408541184632
0.8215170453623238 7.883254221690445 174.41584797180593 750.3191484290633 8.818935221797808
0.8252399118904631 7.74875844126337 149.89064544405468 791.945471213131 8.988532420797284
0.8293230089252893 7.621163552568878 129.19372550740937 835.8055835779874 9.166404672904443
0.8336626934292276 7.500184195885572 111.70372700422558 881.9494308460393 9.352597799339435
0.8381889618868971 7.385304227430168 96.86597663801257 930.5920003483106 9.547895689350476
0.8427969818261336 7.276095917774476 84.30248481757945 981.8549179734756 9.75260264712155
0.8474183205371505 7.172247813199857 73.70132116000828 1036.0037951971713 9.967742186293748
0.8519878094709611 7.073353904092685 64.51184749744668 1093.1149650823268 10.19331896914213
0.8564494480474786 6.978886066771941 56.96763880529576 1153.548103316757 10.430718459352285
0.8607556130034292 6.888623651402954 50.399397987044956 1217.4674936451352 10.68034334428349
0.864857641378404 6.802211147333505 44.76734369421632 1285.1186546442682 10.942922600614898
0.8687043828828783 6.719344724397119 39.928487017480904 1356.851384795466 11.219672473604598
0.8722774232930699 6.639661093680007 35.69274601265979 1432.9666957264305 11.511487185818693
0.8755285598150491 6.562952666311226 32.09118179313255 1513.7954181642383 11.819349926355741
0.8784259094564574 6.488937800148213 29.009261129111465 1599.670822997533 12.144171876593026
0.8809581061024233 6.417586820398857 26.2930382930363 1691.0589860712532 12.487474607978628
0.8830976254526675 6.348423655426016 23.925816134671468 1788.4108574318932 12.850588866840598
0.8848154075748734 6.281411322255328 21.846469766447896 1892.2259551349798 13.234981563089026
0.8861084677121064 6.216318166297138 20.031242446410367 2003.0570239535502 13.64226000841008
0.886942677681882 6.153073275719398 18.408789500051554 2121.5165048352696 14.074182559426434
0.8873398441714085 6.091509937958448 17.026191225328958 2248.233575225297 14.532410755218502
