M[M_sun], R[km], Lambda[1], P_c[MeV/fm^3], rho_c[fm^-3]
0.23841724892012095 16.20908015294055 2780876.1263280716 3.453507347168396 0.169602847481901
0.24841233273261884 15.866314806245015 2282230.3483747826 3.6355255837730205 0.1719781737925059
0.25869164799494 15.563041516905729 1881815.177426912 3.82471895537962 0.17437433325095142
0.2692554547582438 15.293740371751426 1558342.9016882065 4.020189419151034 0.17676554349879783
0.28010585112501596 15.054045845613793 1295592.526234636 4.222271930117567 0.17914392775536742
0.2912329320004906 14.839992112797082 1081392.9283650108 4.432331356295107 0.18154612203887713
0.30265196154649565 14.64864096886565 905790.4236545393 4.650715172167983 0.18397599323208577
0.3143523559663736 14.477213346770204 761180.4455975278 4.877790509919749 0.18643519488952265
0.32633412791958594 14.323438767549437 641764.2050069707 5.110859499347722 0.18886379931755173
0.3386011466245261 14.185171004482548 542636.4935130951 5.353138067486016 0.19131443281702357
0.35114906700193804 14.060955823982967 460169.64803943166 5.605111918668773 0.19379502684273184
0.36398218165367935 13.949141027932258 391276.20034024474 5.867193357198751 0.1963112061451037
0.3771022624309703 13.848385901162125 333510.55296514643 6.136265099391649 0.19880285724509716
0.39050283537826125 13.757776485662715 284986.9642441628 6.415771518804948 0.20132482670192836
0.40418662848532944 13.676248149865199 244093.05801007128 6.706513495086097 0.20388144344043663
0.41815522089591856 13.602789086697118 209521.4301983224 7.00857385986913 0.20646391447909726
0.4324116214153116 13.536809163377416 180232.93140956052 7.318602879699479 0.20902318539388068
0.4469477079128483 13.477404495081375 155329.44642479531 7.641171824223086 0.21162692285500506
0.46176523994592733 13.42414519021447 134133.50505739328 7.976814442079386 0.21427517541450006
0.47686904543903463 13.376383552560794 116050.72008503659 8.323584770624729 0.21693013728397922
0.4922552164591762 13.333737703199734 100585.03541807237 8.681463068456921 0.21958272929291975
0.5079171838172322 13.295649940111321 87326.48608926148 9.053938985615137 0.22228341610122365
0.5238648795366431 13.26179508862852 75944.27933774698 9.44161713537875 0.22503507801653924
0.5400946709884722 13.231756039969707 66140.74721937376 9.83906987628515 0.22776054065183754
0.5565960376503044 13.205253218856617 57702.82077167081 10.252489591203432 0.23053287042687345
0.5733717851690319 13.181843904077295 50408.77416295854 10.682830216251705 0.2333558376710028
0.5904300929317484 13.161480397779174 44098.72685062766 11.127085225823109 0.2361823789699269
0.6077581116738212 13.143809640489534 38635.41998166653 11.586122919455137 0.23902692432407724
0.6253540627791545 13.128514087643094 33891.98080492968 12.064000540289179 0.24193081090074062
0.6432236216805276 13.11551260743241 29769.684449890425 12.56036071046677 0.244882192032797
0.6613502022733738 13.104526410356998 26185.10553218876 13.070247727154246 0.24781325155491418
0.67974639314184 13.095296690855504 23054.222220316096 13.601087601327233 0.25080294787568824
0.6983867572283536 13.087849278735824 20326.88952809846 14.153785801395587 0.2538529886546403
0.7173009876412924 13.081936915539604 17940.895056746504 14.722264951794907 0.25689856866272026
0.7364590466510827 13.077421209532035 15852.646386954679 15.312256808342061 0.2599931872330942
0.755860502796163 13.074215110783443 14023.680017533918 15.926497836351436 0.26315377630587955
0.7755009898889704 13.072087876613224 12419.248139114708 16.561978676812764 0.2663385097601794
0.7953825536504098 13.07099648763774 11009.956649461958 17.218011652181463 0.26953775472511526
0.8154989883681844 13.07070505198556 9769.450233499376 17.90108527020371 0.27280886834427953
0.835838651914708 13.071306234853033 8677.910335980227 18.611787331635973 0.2761496426446234
0.8563953731665019 13.07261089656423 7716.187149581835 19.341789278110426 0.27948097904545044
0.87716375725474 13.074476190795515 6867.688836262109 20.10181562428614 0.2828832018099572
0.898136409904632 13.076810220977036 6117.652303398511 20.89311705946025 0.2863579784474343
0.9193140511462812 13.079730655519398 5455.455954446562 21.710219996526618 0.2898542359030403
0.9406894456403535 13.082890108010114 4868.810408426102 22.556553536112226 0.29339843168039126
0.9622218954199865 13.086256904855372 4349.296741591384 23.43768712425331 0.2970260090867241
0.9839534333016179 13.089972318863813 3888.631348416998 24.353976807222924 0.30073040158007436
1.0058390241167328 13.093748304347802 3480.0018130703384 25.297178682584505 0.3044305047034714
1.0278813049474538 13.097599829718671 3116.663905239861 26.279209279481577 0.3082170239080789
1.0500733649115794 13.101485111147621 2779.2726080134885 27.301566723716956 0.31209186598905586
1.0723981889982743 13.105300122192158 2506.427638927748 28.360447744737126 0.31602140481807145
1.094842921096513 13.108946018462683 2250.360471430703 29.456129392418877 0.32000054026677544
1.1173996199992144 13.112511837977312 2022.4068176505746 30.596804676387475 0.3240688403568841
1.1400789984358481 13.115873184724446 1818.7307663001347 31.78432437082728 0.3282269222336258
1.1628317800193642 13.118909292918799 1637.122886265567 33.01292112808631 0.33243511118011687
1.1856592988547274 13.121506033770935 1474.6033733795607 34.287376925753456 0.33671792606866086
1.208555236569339 13.123907118335742 1329.4565253148319 35.614294100163 0.3411063811654747
1.2315201544208143 13.125813456929958 1199.3517367768225 36.995691978106194 0.3455995236263994
1.2545042337499055 13.127248082318776 1082.9371390331887 38.42767857274956 0.350152686640236
1.2775146352015063 13.128150549978834 978.5507787229851 39.912796390671204 0.35478561282252896
1.3005250519969542 13.128471922036358 884.9995994655137 41.45932715560776 0.3595356496243442
1.3235601375996882 13.12830911249331 800.8522913286345 43.06972807799328 0.36440496661220595
1.3465546685940875 13.12750646844972 722.4294813355493 44.7465874669844 0.3693955583693662
1.3695074515931591 13.125961219944205 657.5093602762918 46.48191250900674 0.37443871000646567
1.392415128787704 13.12370107780564 596.4070489445772 48.28912561738278 0.3796113679783915
1.4152355411382491 13.120628933369295 541.4051300908078 50.171739681083174 0.3849193136194031
1.4379934481143357 13.116873870508055 491.85935236584214 52.1310413268108 0.39035245424205695
1.4606586912319037 13.11234413194432 447.1799596227583 54.171596851611 0.39591416038222355
1.4803051930986506 13.10566966009027 411.2271255508497 56.424513756376854 0.6337506783642994
1.4912949242767053 13.090900169546842 389.35730897705946 59.14028993613631 0.92320943648889
1.4958583233708773 13.066923234596807 375.65309198018133 62.31301551748543 1.1952007315574742
1.4957943995526743 13.033986568119998 366.91356459840136 65.95389267446745 1.4494273409656018
1.4922898117246346 12.993107534942887 361.1263492389808 70.0594395250964 1.6860909319937647
1.4861882094393213 12.944757119111626 357.2172488332078 74.62280019713494 1.905244227926169
1.4780930137616952 12.889465100430048 354.4410089095963 79.63615960484505 2.1087847101292034
1.468444634159137 12.8275315670343 352.2231994841339 85.09872284002608 2.310643022916071
1.457618039428318 12.75986928352591 350.33158779803256 91.02240285333068 2.521624751340324
1.4458440938388142 12.687271975140694 348.57673241764496 97.45169314895787 2.774012401570255
1.4332740073052832 12.610826268108301 347.09026604808565 104.46442997237956 3.093469692206362
1.4197297991522864 12.528774036751715 345.7400454837773 111.98342009824475 3.193033991474286
1.40538986435423 12.43706489255734 343.16385494054936 119.8613094351395 3.2368461912532323
1.3909956707920554 12.337908497280205 339.0366794309975 128.0731960621671 3.2818595443499574
1.37696956758488 12.232449350332617 332.98691994474166 136.63637304491616 3.3285355924732922
1.3635613405443472 12.121895020463128 325.0605351258005 145.56994519232924 3.377056176644188
1.3509584357763273 12.00716650846648 315.34648539034487 154.89419479196906 3.4274989676170193
1.339286109377465 11.889038706394611 303.9668728183493 164.63172775636866 3.479975516061633
1.3286203948211959 11.768453110608071 291.2246504988832 174.8063880548373 3.5345949622052433
1.3189876709628665 11.645813327532954 277.2958543626614 185.4439950780429 3.5914589623631277
1.3104372853534838 11.522000687553414 262.4499129602221 196.5647112764865 3.6506680549981545
1.302918123875497 11.397406680655878 247.12479191572658 208.17996013969386 3.712209591014913
1.2964401414155164 11.272721841551396 231.47746239460847 220.34403768283423 3.7763915264023895
1.2909525515416207 11.14835945389257 215.81413980845866 233.09250736910818 3.843342095333054
1.2863860807713963 11.024652082177392 200.39230876240734 246.46266895617856 3.9132394805093367
1.2827014609380938 10.902083879049473 185.3697701754503 260.49584884013564 3.986260664698909
1.2798208786281053 10.78087924266467 170.92070772316933 275.2358677604789 4.062587215120996
1.2776729386185595 10.661306409084798 157.1841604248328 290.6691693568639 4.142062250801026
1.2761795640259253 10.543504000430945 144.1942967407274 306.90081939682284 4.225222282001633
1.2752742365341205 10.427809243967335 132.05064780558007 323.98938914534904 4.312330680901259
1.2748692817940412 10.314131166579706 120.74238100129598 341.9767796901688 4.403513120066771
1.274877759607629 10.202653175863958 110.3046807479964 360.881398196711 4.498768943393518
1.2752347758328717 10.093298949466169 100.69898788081352 380.833420212012 4.5987515922485
1.275872132822324 9.986285394544604 91.90991268321788 401.8743014758599 4.703559116118678
1.2767160295314306 9.88136568644461 83.87866939408363 424.0599487309796 4.813369952451305
1.2776788344610277 9.778740343737326 76.58632795755467 447.535586880579 4.928884439818692
1.2787105463505255 9.678300163563172 69.939332186974 472.2956236628887 5.049855449728408
1.2797483616392915 9.579783661055801 63.97739555028768 498.5452798922788 5.1773329044634195
1.280730206524205 9.48350687002622 58.57313131917921 526.288018788358 5.311040750408021
1.281601641043963 9.388976212638461 53.6814992744105 555.7335463779565 5.452050213210026
1.2823245695686927 9.296344517573118 49.16048419826594 586.9354631991665 5.600322882819492
1.2828340705619086 9.205443372325105 45.293474603208026 620.0761672828186 5.756649612405218
1.2830816683206252 9.116326101636787 41.71375098514503 655.3160068970253 5.921663485132883
