M[M_sun], R[km], Lambda[1], P_c[MeV/fm^3], rho_c[fm^-3]
0.23841724892012095 16.20908015294055 2780876.1263280716 3.453507347168396 0.169602847481901
0.2484232839590189 15.866012306621663 2281872.9801651435 3.635713111861565 0.1719805592207158
0.2587130287388407 15.562450452577664 1880881.5814471252 3.8251047087344516 0.17437905221133765
0.26928697099817783 15.292998521545533 1557532.4406733958 4.020810913794389 0.1767731463065648
0.2801497982139261 15.053167385935735 1294728.08987485 4.223123018526884 0.1791538799138807
0.29129106009793093 14.83909799278021 1080519.010769163 4.433423780514754 0.18155841401785194
0.3027227547734567 14.64756914773947 904748.478508513 4.6520612928494085 0.18399057242391606
0.31443537396151944 14.476079309772897 760265.8251813985 4.879403191337023 0.1864519992067362
0.32643129811605065 14.322328614220654 640916.9687867236 5.112832835788859 0.18888436169966313
0.33871508018448454 14.184007314686408 541844.6597768739 5.355415255350284 0.19133715485261152
0.3512791037028256 14.059729602279509 459397.83562308934 5.6077072345300225 0.19381997053841454
0.3641257774310291 13.947895277342338 390564.5986372503 5.8701221197777365 0.19633832699563253
0.37726516366711627 13.847194296644517 332848.65666541085 6.139679674246067 0.1988344768017354
0.39068395550406304 13.756617212809555 284399.0950901417 6.419563591919733 0.20135862515691305
0.4043850486754573 13.675098831928619 243560.24061738883 6.710700065390841 0.2039172366057236
0.4183701301500774 13.601711264713675 209035.29888171057 7.013363965360445 0.20650486758035017
0.4326442553295226 13.535691526592158 179781.36723697998 7.323837139477579 0.20906633305267328
0.4471991472526539 13.47639918232543 154934.26650118356 7.646870742162794 0.2116722321607087
0.46204213253923077 13.423227140137438 133788.51060804178 7.982999322815351 0.21432252843512944
0.47716830285789696 13.375646968965444 114483.42200060499 8.33054597422927 0.21698343403002224
0.4925703530064082 13.332881292678348 100288.8413126722 8.688969056816271 0.2196379523019168
0.5082591622775277 13.294936338387737 87065.7327677052 9.062014122354402 0.2223407629005953
0.5242295335913796 13.261131542238862 75705.887712528 9.450288029971581 0.22509453715921235
0.540477315566665 13.231125514358672 65931.74256699978 9.848723004994731 0.22782673529312164
0.5570001877254864 13.204634848018399 57511.474895095314 10.262809939526761 0.23060106942983868
0.5738077876810612 13.181381291906165 50236.283346385986 10.693847485595308 0.23342593427347239
0.5908886275356339 13.161009589396134 43945.96227331066 11.139280573766221 0.2362599710147509
0.6082395442090691 13.143257583033565 38493.45949365347 11.599097453227806 0.23910671139146905
0.6258628867605965 13.128092982325027 33764.94825544028 12.077791294104074 0.24201281137751446
0.6437503457454781 13.115178947918233 29660.08667399936 12.57555676949827 0.24497254852109288
0.6619143059304996 13.104138628837308 26079.956499069584 13.086356115219392 0.24790564444834406
0.6803358938874907 13.09514558688945 22964.505640847794 13.618149866029267 0.25089737549980146
0.6990049754723401 13.087680889331574 20243.95683442509 14.17184719746437 0.2539497510895448
0.7179450778835196 13.081888646238543 17866.626293446654 14.74206243317942 0.25700463203104723
0.737133370058704 13.077345408914175 15784.9918108299 15.333172555705994 0.26010170873959426
0.7565606472790758 13.074137917925276 13963.228104620734 15.948585567513252 0.26326446970823225
0.7762301652184659 13.071990420486802 12363.76585315867 16.586120530935236 0.26645949746834835
0.7961386795150718 13.070960952778751 10959.882846642357 17.243462463417437 0.2696611172092975
0.816289124386837 13.070785175905979 9724.313990641693 17.927909807724028 0.2729349615842315
0.836654754675862 13.071447203929823 8637.603812939005 18.640497940948173 0.2762824331348479
0.8572349606145784 13.072655326354873 7679.715293296975 19.372577804151934 0.2796214035863581
0.8780400170124698 13.074560920974527 6834.14837378176 20.134220003436333 0.2830261895417639
0.899040781309735 13.076955183217914 6087.852331599169 20.927217497311457 0.2865038889620933
0.920254234343539 13.079800140506984 5427.813120207304 21.747290989734243 0.29001285696595586
0.9416423674021798 13.083058375368475 4844.445732612431 22.595526145240356 0.29356048120451117
0.9632187893223023 13.08642180951072 4326.840219240353 23.478662383450022 0.2971916646052818
0.9849753050822178 13.090095017396795 3868.1911610712355 24.398015001782206 0.3009067671753942
1.0068977540106623 13.093957012464752 3461.3051422013436 25.343899766245965 0.3046136002169639
1.0289577267974834 13.09770156953724 3099.8487145189324 26.328293009710325 0.3084040546395577
1.0511898136144768 13.101705502195959 2778.3936072969195 27.35314116950068 0.3122832602847973
1.0735428070887434 13.10548619929973 2492.5024630931584 28.416311389702354 0.31622871645900513
1.096010133004399 13.109122561668466 2237.942701487737 29.51479669853534 0.3202126957964047
1.118608273513053 13.112692714012837 2010.937142148092 30.658426851355312 0.3242853174100339
1.1412986757132522 13.115959541180619 1808.3841044641129 31.849061762851978 0.32844866071367096
1.1640838863289489 13.118959484647752 1627.6181817499162 33.08292789052575 0.33267489830484814
1.1869483981027011 13.121632928754407 1465.9786757660434 34.36089701734955 0.33696374093885273
1.2098685457967917 13.12396507632209 1321.5632733260677 35.691528653339745 0.3413585995469447
1.2328515345263351 13.125900453518364 1192.198159807283 37.07684895854746 0.34585757140634515
1.255868181152761 13.127321414392927 1076.4546993777444 38.51533195947088 0.35043139047723415
1.2788930333109816 13.128147087984631 972.6410048607265 40.004878022826034 0.3550718591764691
1.301943416878251 13.128539984276193 879.545576704572 41.556096912781385 0.35982997153513696
1.32497970507972 13.128248918778876 795.9279207630235 43.171462851653786 0.3647078246748767
1.3480010704271568 13.127364838299506 720.8544109869139 44.85357561953354 0.3697064842556484
1.3709995888332616 13.125923894420621 653.3827217345912 46.59731262784145 0.37477408250679245
1.3939181199203898 13.123538113327195 592.5916828121693 48.41047732188297 0.3799570041652225
1.4167549994125275 13.120446353220524 537.9501624363983 50.29940384029043 0.3852758677258303
1.4395255623618421 13.116601023624213 488.68357605058964 52.26730607098027 0.3907333779821704
1.462199538180193 13.111955076252345 444.2894612240583 54.31758643481038 0.3963304993163237
1.4847419748804822 13.106429771735304 404.23039062855037 56.45188849847708 0.4020532127224425
1.5071413494865007 13.09997477268194 368.0572840564515 58.66880447165108 0.407895581892812
1.5293829097772735 13.092655389956699 335.4023788322922 60.98004503387736 0.4138994778352464
1.5514231424136216 13.084318107577424 305.94772324632305 63.38989344565802 0.4200677773513559
1.5733348728799914 13.075079888301351 279.1364795886157 65.90289572015125 0.42640097032224955
1.5949806913890097 13.064645630297948 254.94163139383426 68.52395632883504 0.4329061977137767
1.6163965436172205 13.053293497458059 233.0451689531235 71.25817811941398 0.43959757893159856
1.6375839106109547 13.04080898042743 213.16752570358338 74.11104284169696 0.446481922435312
1.6584861623847853 13.027325641756702 195.17098293930775 77.08841617523402 0.4535625542577787
1.6790907825499903 13.012510096198422 178.80591316739006 80.19325283846501 0.46082840497078553
1.6993849705757764 12.996648176410652 163.96154868578842 83.4350267550416 0.4683126388400619
1.7193214105715633 12.979458762522706 150.4631336137825 86.82207199271662 0.4760301893069015
1.7389403463636837 12.961312454717229 138.19292228002254 90.36197460114599 0.483985367481129
1.7581838860761732 12.941832512714962 127.03590754832753 94.06285676306608 0.492186244416175
1.7770181701488017 12.920957122183685 116.86763480905353 97.93345951867867 0.5006531154257389
1.7954381029557338 12.898814194062782 107.59885653604981 101.98311326892195 0.5094012922381642
1.8134274698475974 12.875383007992973 99.15005053842276 106.2217887083787 0.5184373801620287
1.8309663810523265 12.850623737127677 91.44290874917532 110.66019567769528 0.5277749885453805
1.8480349741788626 12.824609964699611 84.41049579923006 115.3098586143806 0.5374386730298706
1.8646099752447303 12.797197811764484 77.98624009950045 120.18144111642296 0.5474412631629245
1.8806754018705256 12.768352978493237 72.10979371525315 125.28514954510975 0.5577795758181784
1.896195908466061 12.73815986851078 66.7439290592177 130.63870706492838 0.5684917872294292
1.9111863363927524 12.706576153042981 61.83152322165856 136.2574079226904 0.5796064076152404
1.9255665183631188 12.673424716432361 57.33065650574419 142.15773263517437 0.5911409729285854
1.9393602283428926 12.638832556966326 53.206621098944495 148.3574505804341 0.6031158244890137
1.952566579385281 12.60289458925458 49.429621995286205 154.87570782301592 0.6155665705448753
1.9651385890119544 12.565392409648128 45.96058432317932 161.72618922213132 0.6285003146642414
1.9770511679959704 12.526476725804052 42.78332851011681 168.92916840649798 0.6419279704423333
1.9883104323362728 12.48593435406612 39.856566824929196 176.51603226711316 0.6559203528332931
1.9988838953118646 12.444118476961792 37.176853856469265 184.5128085439389 0.6705169928411933
2.0087461624275296 12.4006121328546 34.710264878264525 192.9343312904263 0.685696544567765
2.0178969172868646 12.355610808975833 32.43943619006146 201.81527501121133 0.7015290234635332
2.0263373177565507 12.309171990478402 30.34991460200212 211.1957204629388 0.7180867662105079
2.034017080714037 12.26120827902193 28.429098943458417 221.0924693955472 0.7353379651546623
2.040931526527235 12.211629019459231 26.65727888040941 231.55464025537304 0.7533871843700645
2.0470928243145456 12.160736363603192 25.026515578651043 242.6205835076516 0.7722781969213471
2.0524457262239593 12.108094576054196 23.51998268556005 254.3253963413197 0.792022868250894
2.057010950862072 12.054106210447593 22.132286716069064 266.72788209178555 0.8127362919679446
2.060758192802708 11.998702597171684 20.854876874844404 279.8660916536393 0.834427319178355
2.0636903770457495 11.94177595937715 19.675847716472422 293.80526276923945 0.8571949331589176
2.0657931369786287 11.883346720608893 18.58408276609018 308.60385510874664 0.8811136287777558
2.06705151479661 11.823498068876859 17.57840203442308 324.31957508747183 0.9062167416668993
2.067467868234608 11.762271279432305 16.651263731374467 341.0378088678203 0.9326505095074541
