M[M_sun], R[km], Lambda[1], P_c[MeV/fm^3], rho_c[fm^-3]
0.23841724892012095 16.20908015294055 2780876.1263280716 3.453507347168396 0.169602847481901
0.248405736986747 15.866502583741381 2282684.480571593 3.6353971756008976 0.17197654039199217
0.25867471876458664 15.563574290976458 1882380.206195336 3.824454830113053 0.17437110217945373
0.26923110887854684 15.294202710676739 1558823.9807083278 4.019763909028507 0.17676033818979148
0.28007080890320957 15.054893134940516 1296455.1792349075 4.221689261101372 0.17913711434521346
0.29119383543344496 14.840686196807573 1061383.914002082 4.431583507025432 0.18153770722406998
0.302603789079592 14.64945074460822 906398.4480155692 4.649793698438509 0.18396601318909708
0.3142938268898656 14.478036800942192 761888.2590039582 4.876653634779003 0.18642302508717806
0.3262658334965486 14.324200066973713 642390.2546083927 5.1095088313821995 0.18884972520923765
0.3385225545215367 14.186085668489302 543232.0818360212 5.351579506199933 0.1912988813179294
0.351059648189015 14.061775536255393 460680.1563504993 5.603335712353516 0.19377795564517203
0.36388193114311324 13.949870197432945 391750.3004297004 5.865189041794126 0.19629264583608735
0.37698958420944667 13.849265683710813 333965.9313874528 6.133928471707664 0.19878121966661483
0.390380849007383 13.758655458355982 285401.7769502974 6.4131766891042234 0.20130169918508517
0.4040500837943435 13.676933402589196 244449.16774915013 6.7036488532126945 0.20385695212831262
0.41800754075541874 13.603511423165974 209856.78734801212 7.005296476040964 0.20643589442150084
0.4322466032136421 13.537413670793038 180528.61826470125 7.315021768330046 0.20899366516026271
0.446767656679959 13.47801222780706 155605.99204677076 7.63727298171157 0.21159592506751038
0.46157605499388527 13.424742590746835 134388.87884078888 7.972583318127922 0.21424278085293738
0.4766576707569899 13.376988720753817 116284.51742522228 8.318822891153328 0.21689367912310756
0.4920381816134477 13.33430760984647 100781.41113298535 8.676328741263273 0.21954495505410743
0.5076874526191787 13.296247564266357 87510.18771577458 9.048415572936428 0.22224419075446356
0.5236190248382767 13.262269756455837 76104.15885906335 9.435686465300503 0.22499440948406496
0.5398303795202012 13.232174418087354 66286.70736116437 9.832467854438258 0.22771526844206463
0.5563135640771324 13.205698297203742 57836.31997761091 10.245431523519134 0.23048622925122222
0.5730821933038102 13.182351954918484 50526.75992956912 10.67529582208641 0.23330790061725717
0.5901181032752707 13.161818396714416 44205.51414953628 11.11874578652417 0.2361293198730558
0.607430231432785 13.144080029929851 38730.45776298319 11.577250999012136 0.23897236633172983
0.6250079747033793 13.128780557748005 33978.32944301587 12.05457085282065 0.24187474153146418
0.6428582383822686 13.11574322745962 29848.557602915716 12.54997089532676 0.24482041369881263
0.6609615461609 13.104683598443446 26254.316557207396 13.059234550582554 0.24775008326984446
0.6793446973212373 13.095484443695451 23118.832889403337 13.589422699882801 0.25073839085772204
0.6979662360363832 13.087968618249848 20383.82588523296 14.1414382810341 0.25378683783602907
0.7168600305865367 13.082102365555185 17993.200977214918 14.708731604429442 0.2568260648740594
0.7359955986860612 13.077598087912474 15900.506045477505 15.297959547132065 0.2599190057898813
0.7553817589602253 13.074312674973903 14066.353335536129 15.91139999475992 0.26307811296854067
0.7750037264743327 13.072117053974832 12457.222294515439 16.54547805000001 0.26625581631785733
0.7948684904503973 13.070947965840466 11043.229115959775 17.200616994015327 0.2694534411752256
0.8149642261977704 13.070709499954788 9800.310168398224 17.882752376787934 0.272722691502396
0.8352793345714741 13.07130261598138 8706.009449836016 18.591798859458866 0.27605568347695497
0.8558108531317904 13.072535197636162 7741.563775304095 19.320749679809285 0.27938501875399846
0.8765630193761711 13.074424640819043 6890.7448257771475 20.079672606754617 0.2827854934157456
0.8975162430661467 13.076742475739263 6138.729113049952 20.86981589448576 0.286258276355971
0.9186745405985998 13.079635564640045 5474.275328475184 21.684891098315582 0.289745857453771
0.9400240990970206 13.082854776064174 4886.09963417101 22.529926299386556 0.2932877146630667
0.9615406724187812 13.086145060499945 4364.74910850012 23.409692620379804 0.29691283240042987
0.9832383841288294 13.089866630813173 3902.895432423142 24.323593757254606 0.3006075684364522
1.0051163616418568 13.09367140163367 3492.6703107690437 25.265262435019928 0.30430542794414506
1.0271374293049806 13.097509840702418 3128.2925885188806 26.24568026546903 0.30808926352826865
1.0493034679592272 13.101287023957273 2804.1637195765497 27.266337591099045 0.3119611296345585
1.0716124630733577 13.105156150984332 2515.980886817909 28.322292071731454 0.3158798079855222
1.0940356760927423 13.108827916970645 2259.094025525654 29.41606026099259 0.31985564034956004
1.1165803578538664 13.112375043196678 2030.1972451681431 30.55471897331465 0.32392099440718014
1.1392293079097533 13.11568273054459 1825.9323467590032 31.740112755242777 0.3280754886319091
1.1619758800391318 13.118767082158357 1643.518091712726 32.96511511580346 0.3322713660527788
1.1847724213797894 13.121427273874563 1480.6239447958087 34.23717367194827 0.3365500711864182
1.2076570832811597 13.123764493707839 1328.7641232307403 35.56155648481927 0.3409341603726109
1.230583604707473 13.12566914855005 1204.3332686406866 36.94027823080463 0.345423329362001
1.2535642541393779 13.12716401153101 1087.4338444428122 38.36783460069419 0.3499624059761692
1.2765594266387865 13.128124379234368 982.6592431712974 39.849931648881636 0.3545901905357216
1.299563113206678 13.128490493481218 888.6570727197063 41.39326452679483 0.3593347223955063
1.3225593889575926 13.128353102437927 804.3529723406243 43.000278863767186 0.36419822064209434
1.3455544808543356 13.127539720351065 728.4759919125521 44.672137344703195 0.3691752388471542
1.3684908068570576 13.125988465836167 660.337310297385 46.40314555795979 0.37420979976284996
1.3913833169173533 13.123770258780871 598.9787685935121 48.20630002990733 0.3793754625962219
1.4142174897994682 13.120871715333193 543.7889127333684 50.08460961025929 0.38467596744661314
1.436943540057651 13.117072119698154 494.03629114937877 52.04124937656463 0.39011423345471685
1.4595991128430663 13.112568852182847 449.17905862748387 54.079589346623834 0.3956923566886384
1.4821057975277148 13.107159048138543 408.7193962517326 56.195391122099934 0.4013654651915677
1.5044945816409916 13.100800047117161 372.1448469088531 58.398729599757566 0.407184357928859
1.5267256661405038 13.093633053274152 339.1505394043361 60.69554384856397 0.41316327841308104
1.5487583346080966 13.085365171167497 309.3153196877866 63.09006188049654 0.41930552333009413
1.5706270952538945 13.0762372702527 282.3022499615744 65.58677765992451 0.42561219765226166
1.5922887434305601 13.066161574649787 257.8594026996421 68.19052458256779 0.43208748338396763
1.613691058324272 13.05475220825364 235.70516832854548 70.906321644001 0.4387470176348698
1.6348553942982638 13.042451591658896 215.63146616136012 73.73840360392609 0.4455931593790249
1.6557565959856828 13.029113783673315 197.43107650010674 76.68955952067763 0.45261605673308747
1.6763683576192927 13.01452770034972 180.88531201106824 79.77075844408529 0.4598396955700627
1.6966694380861433 12.998863898851686 165.88096680018776 82.98862634723201 0.46728283996652253
1.7166431814760923 12.981900815760328 152.22403952954352 86.35017940195347 0.4749566448581617
1.7362542638067056 12.963770360542272 139.81308650607048 89.86289325674272 0.4828663158206988
1.7555158778819413 12.944467069775806 128.52253053508812 93.53477275713004 0.49101915777319327
1.774393418649759 12.92399928943201 118.24040645142512 97.37441553661945 0.499433312582477
1.7928371103786882 12.902018814863471 108.86184598971673 101.39099433478168 0.5081253161537923
1.8108713518166581 12.878961202183175 100.32533122275665 105.59432656656384 0.5171029292280266
1.8284395702775025 12.85435396410639 92.52408413325152 109.99495486159573 0.5263781377934925
1.8455484097843893 12.82855345679313 85.4119319065531 114.60420567046566 0.5359738750240757
1.8621501402748057 12.801409259977786 78.91888199728214 119.43423307448067 0.5459103077704965
1.8782884957586048 12.772953028076929 72.9721502337255 124.49806157647107 0.5561962081392945
1.8938460167727131 12.742809790904479 67.53456275170983 129.80548643151099 0.5668381107487404
1.9088689194254125 12.711393796708522 62.56221705797028 135.3714254918199 0.5778657086235065
1.9233438518505739 12.6786542430189 58.009209561374774 141.21515251568735 0.5893093930292936
1.937236660717248 12.644485639389488 53.819707106569545 147.35412568003784 0.6011858496248377
1.950501979099382 12.60886349437451 50.01792013279491 153.82981981186924 0.6320421070372567
1.9617200949088818 12.572708303211115 46.77203359682405 160.83707405209114 0.8433596780454482
1.9696553384360558 12.534769932570603 44.16235472253113 168.62277960482396 1.0508023553453278
1.9744965357915847 12.493436684555636 42.02202266351767 177.22223963307536 1.253680638074572
1.9766136645444266 12.448514215299017 40.23751139680855 186.64840736478104 1.4543559258766243
