M[M_sun], R[km], Lambda[1], P_c[MeV/fm^3], rho_c[fm^-3]
0.23841724892012095 16.20908015294055 2780876.1263280716 3.453507347168396 0.169602847481901
0.24841943168397695 15.866132788839861 2282003.5127282413 3.635636017697722 0.1719795785537945
0.2587044060733738 15.562719937686436 1881340.7194649545 3.8249461193876537 0.17437711217157947
0.2692740178489344 15.293251028921471 1557753.8988597805 4.02055540174747 0.1767700206014672
0.28013089689997017 15.053564111873067 1295122.394676438 4.222773107607276 0.17914978824855035
0.29126687627893194 14.839522601516618 1080851.1351496405 4.432974639514901 0.18155336027441818
0.3026944402275227 14.648014578127047 905202.6929754977 4.651507836092375 0.18398457819743852
0.31440091891756017 14.476570904972892 760660.2017441376 4.878740125940158 0.18644508999258957
0.3263922781163154 14.322734490049065 641218.8972814599 5.112021465999545 0.18887590713748423
0.338667537770898 14.184556496067968 542192.6471844864 5.35447893513275 0.19132781214459943
0.3512267023980702 14.060299154589561 459729.44492793677 5.6066400896306 0.19380971416152493
0.3640663858120713 13.948445428140365 390890.2526221103 5.868917847245928 0.1963271752226737
0.37719805163820336 13.847735365132294 333130.03703625285 6.13827560866442 0.1988214749104091
0.3906100988273945 13.757142078799196 284642.4726935415 6.418004273889097 0.20134472707566042
0.4043047508835095 13.675587124605489 243776.06049586556 6.708978500286816 0.20390251805095555
0.41828339665065406 13.602134761407376 209237.11033633508 7.011394172645326 0.20648802679873152
0.4325480048992882 13.536125832648658 179961.42705683943 7.321684667043053 0.20904858954163205
0.4470949136563601 13.476807140619151 155091.6950561445 7.644527153102036 0.21165359943177298
0.46192717980304504 13.4235665934176 133925.60035006612 7.980455850683471 0.21430305496531282
0.47704228534221305 13.375912149106133 115861.0308319526 8.327683176922903 0.2169615157254189
0.49244087379045176 13.333257393033165 100409.08166901428 8.685882170869856 0.2196152414846026
0.5081213385998804 13.295263474599546 87171.49246802872 9.058693122245982 0.22231717831830522
0.5240756693418324 13.261355140415699 75802.73015231318 9.446721966122503 0.22507008350026012
0.540318167322403 13.231335510042463 66016.55900758484 9.844752880383545 0.22779951085818484
0.5568312175797245 13.204838660096264 57586.65384956974 10.258565342386987 0.23057302025127877
0.5736294209787322 13.181557024231362 50305.28681441355 10.689316193456229 0.23339710424546448
0.5907032089870883 13.161200943708968 44006.95395828792 11.134264621734605 0.23622805737221378
0.6080402768310913 13.143514528037583 38552.76020812165 11.593760949663384 0.23907389449207278
0.6256538566409819 13.128267180157769 33815.39030263732 12.07211899863667 0.2419790836394247
0.6435344104529286 13.115217028322398 29701.999839173935 12.569306292666093 0.24493538288916428
0.6616886024019868 13.10428937897615 26121.114562414663 13.079730290107157 0.24786764069831
0.6800911988077241 13.09514644012587 23002.31575868236 13.611131594056326 0.2508585343049567
0.6987491037419847 13.087695020742157 20277.785247327683 14.164417854379597 0.25390994899872715
0.7176812642325995 13.081879782351626 17896.24033504412 14.733918754574942 0.2569610029467922
0.7368547180324354 13.077451137012886 15814.033034731117 15.324568769716057 0.2600570679337466
0.7562746037950869 13.074194385400993 13988.121269920559 15.939499565910602 0.26321893490776715
0.7759329955701344 13.072043522469142 12386.354788752771 16.576189274821033 0.26640972664667073
0.7958297418731095 13.070958965315318 10980.094256190103 17.232992609415543 0.2696103688387751
0.8159597293374214 13.070705662177474 9742.360180415859 17.916874698015253 0.2728830891992798
0.8363186230226958 13.071375559250317 8654.045903114145 18.628868696603956 0.27622939287900916
0.8568884277790608 13.072631445268838 7694.756689038132 19.359911472309534 0.27956363323932837
0.8776817628190293 13.074533329572825 6847.819491237915 20.120888747474552 0.2829673639724396
0.8986692787337037 13.076862672975212 6100.049826069384 20.91318830378578 0.28644386020655316
0.9198668585967588 13.079769079967827 5439.108930752666 21.732039249015862 0.2899475971195171
0.9412413194931956 13.082905008465227 4854.39285929791 22.579491842609116 0.293493809991854
0.9628088081645787 13.086354193366178 4336.010705674267 23.46180392970148 0.2971235089437303
0.9845550546335479 13.090044234767886 3876.7305847578896 24.380152969461104 0.3008362270419366
1.0064606589257212 13.093903324142577 3468.9111702347545 25.324676500951725 0.30453826605614787
1.0285170540236965 13.097691063671453 3106.951201881569 26.308097384714145 0.30832710037185834
1.0507281612776904 13.101616487186545 2784.786111366921 27.3319204627909 0.31220450961372104
1.0730583859173353 13.10534026963017 2498.2994340961 28.393325164532015 0.31614341389663386
1.0955240706855405 13.109071138798509 2243.1491875289535 29.490656538243535 0.3201253989895277
1.1181206964998809 13.112648547464723 2015.6068191776915 30.63307050397776 0.3241962412396163
1.1407991160412947 13.115918531378183 1812.6080141737739 31.822423212121894 0.32835741836416077
1.1635718446397478 13.11892105241897 1631.359440766763 33.05412016995363 0.3325762261159717
1.1864187016673993 13.121668026844143 1469.6086814696534 34.33064315844564 0.33686258697892396
1.2093242530514463 13.123910001815288 1324.792899811939 35.65974584210935 0.34125480909464867
1.232301161371998 13.12583122452859 1195.101799262067 37.04345156576867 0.34575138062625843
1.2553111264064294 13.127314208423844 1079.1099574561251 38.47926003304582 0.35031669571552987
1.2783283557507659 13.128185269477632 975.0850383599795 39.96698320806603 0.35495405878235736
1.3013536746218655 13.128506909713705 881.7568955473229 41.51627219603141 0.35970884601955255
1.3243935565974574 13.128330648989046 797.9934250983096 43.129594211311115 0.36458318434940495
1.3474041088383855 13.127416115644845 722.7064953960517 44.809544307694004 0.3695785217258572
1.3703689869750177 13.12583592106582 655.0253883193194 46.54981775800994 0.37463605428456065
1.3933003518521405 13.123590019190136 594.151747922248 48.36053220743526 0.3798147495592436
1.4161370785716905 13.120532230509541 539.3595775348416 50.246859861216215 0.38512911728605714
1.4388963441152738 13.116699014063991 489.9807686031059 52.21200509126029 0.3905819146554817
1.4615578363096848 13.112121519608687 445.5045544082497 54.25936237145767 0.3961743828820197
1.4841058082682816 13.10661569037923 405.3094836928081 56.38913375151171 0.40188494814646236
1.5064811805364975 13.100157561161913 369.0482098963948 58.602725424640454 0.407721567178227
1.5287348102857365 13.092865957970696 336.30857675042483 60.910433693121526 0.4137193456196841
1.5508028577182003 13.084592085520837 306.69413452471014 63.31652826540211 0.41988126295404576
1.5726632124694215 13.075287425847467 279.901866496685 65.82554238536551 0.42620795953264884
1.5943244904846925 13.065071839229086 255.66157354715537 68.44236308946796 0.43270585220068986
1.6157379502849014 13.053655248616908 233.69283845303866 71.172072655338 0.439389431632067
1.636913864878899 13.041226787706309 213.7730096042797 74.02013461038948 0.4462656572840492
1.6578269403105257 13.02779576489188 195.72624817009262 76.99170269210161 0.45333483695497967
1.6784252869813943 13.012968588253461 179.30869356813662 80.08984370631791 0.4605864098521887
1.6987459677835555 12.997376918228149 164.4366600493495 83.32576149444903 0.4680605753555607
1.718685931068227 12.980240977212208 150.9058573245911 86.70656167742096 0.4757674060799869
1.7382886002846307 12.96186598752089 138.5908882064536 90.23980320354795 0.48371143196566185
1.7575383262133328 12.942544651894874 127.40257660464832 93.93357944904149 0.49190053641376874
1.7763839841942481 12.921656809932868 117.192137611243 97.79659624789149 0.5003544873889441
1.7948065822193313 12.899566078443256 107.89695191063224 101.83814529160934 0.509088896093766
1.8128241219438535 12.87640843455501 99.44081255586158 106.06815963422974 0.5181106505510676
1.8303671754115884 12.851704533119962 91.71158586589216 110.49730805161973 0.5274329624738431
1.8474478414240265 12.82573674936903 84.65853885536328 115.13706635716649 0.5370799899747418
1.8640441139791761 12.798390583607516 78.21407443085232 119.99975047279274 0.5470711498087049
1.8800826564901854 12.769419193517322 72.32178603024549 125.09315328943474 0.5573945577145145
1.8956309500172661 12.739275518078184 66.93535403599662 130.43464886954493 0.5680867969725107
1.9106146876573566 12.707741663385328 62.00643356173486 136.04041492539068 0.5791800791933079
1.925032985059438 12.67471971966493 57.4944247765614 141.92686336215394 0.5906923579927447
1.938866834057317 12.64034338087917 53.361168130264275 148.1116870812724 0.6026430789449465
1.9520615088190263 12.60422889307494 49.56630020412146 154.6139448706406 0.615067765855057
1.964666597696994 12.567001125887042 46.093948417243375 161.45055638243065 0.6279852112650977
1.975874814258325 12.529371934125914 43.05517664746289 169.175981826209 1.1679128433772294
