M[M_sun], R[km], Lambda[1], P_c[MeV/fm^3], rho_c[fm^-3]
0.23841724892012095 16.20908015294055 2780876.1263280716 3.453507347168396 0.169602847481901
0.24840502201190537 15.866526360962903 2282698.310205119 3.635383096037838 0.17197636129462515
0.25867434038581055 15.563555454488625 1882272.0781256885 3.824425870370926 0.17437074791195564
0.2692292682825208 15.2943123998797 1559059.9941763477 4.019717255754008 0.17675976747549568
0.28007163199140656 15.054747320339425 1270197.5207282596 4.22162537847406 0.17913636733699867
0.29119047712695745 14.840917775962827 1082204.5198847204 4.431501516461934 0.1815367846646242
0.3025971953892685 14.649594627762967 906528.1225005777 4.649692675028046 0.1839649190526643
0.31428799082147757 14.47808565915012 761930.3363238728 4.876527329302168 0.18642165713272837
0.3262577987680755 14.324313723328169 642433.2437032777 5.109360762280082 0.18884818231295644
0.33851451784889197 14.186114618555159 543272.1071868626 5.351408650446446 0.1912971765000828
0.3510494088350501 14.06182287501566 460749.5488277093 5.603141001891613 0.19377608427429943
0.36387227068551764 13.95003299876001 391811.20286461094 5.8649693305212365 0.19629061127151243
0.37697884560891093 13.849269469445801 334008.5541231876 6.133672340375526 0.19877884784596112
0.3903685585755366 13.758692159652194 285435.5483594055 6.412892260869175 0.2012991640981795
0.4040370298362403 13.676994545697841 244485.90496993944 6.703334856523848 0.20385426760743625
0.417990474421865 13.603596688056587 207289.46508989966 7.004937249316867 0.20643282320554718
0.4322291536602532 13.53745043083906 180556.19785981823 7.314629258726141 0.20899042957945854
0.44675224324056373 13.478170790835694 155637.1521518023 7.636845655565425 0.2115925276065896
0.4615578445001627 13.424802823238513 134410.55841894058 7.9721195819130966 0.2142392303704811
0.4766392463264794 13.377048234907786 116302.9843834415 8.318300999951706 0.2168896833912751
0.49201350739515803 13.334382289593181 100806.1386874864 8.675766041388776 0.2195408151622312
0.5076606183630001 13.296358058458297 87532.49532083454 9.04781024233117 0.22223989190802987
0.5235938930239022 13.26239709796999 76123.48489223853 9.435017861398892 0.22498970511402497
0.5397990199872483 13.232282089446505 66310.87147703694 9.83174435180252 0.22771030714931886
0.5562854326469464 13.205703242161812 57843.66283070221 10.244658057683079 0.23048111802850046
0.5730435397054924 13.18230455743712 50539.978198297795 10.674470172158921 0.2333026474775779
0.5900868731761177 13.161952118372984 44219.241098920254 11.117831946524909 0.23612350563023832
0.6073932150968544 13.144096010734057 38409.66681696554 11.576278826391256 0.23896638794331312
0.6249715350510285 13.128850540807477 33988.54108668689 12.053537578659103 0.24186859763425433
0.6428159321372856 13.115706660023925 29856.480464499007 12.548832451876232 0.24481364446001855
0.6609231497094468 13.10469745245029 26262.603588836308 13.058027823991175 0.247743161847235
0.6793021754048333 13.09552613110368 22948.452574655534 13.588144584424521 0.25073131738839216
0.6979194132173787 13.08798852417179 20390.653476754593 14.140085393895646 0.25377958985513277
0.7168118309603118 13.082138994147087 17998.64480765237 14.707248840196169 0.25681812108737456
0.7359448623941773 13.077554030385087 15904.616501145762 15.296393111361226 0.2599108783265529
0.7553293302494969 13.074307608076651 14070.61562875645 15.909745872812918 0.2630698232811627
0.7749495617567979 13.072121237509387 12461.369327235725 16.543670302362184 0.2662467567301994
0.7948131436056446 13.070992519030638 11047.22290060997 17.19871133037088 0.26944420424367893
0.8149040048815003 13.070712337198918 9803.348899211014 17.88074395752659 0.2727132505906318
0.8352206448367853 13.07128446174677 8708.835103445086 18.58960914595177 0.2760453903611662
0.8557481965440464 13.072509139877623 7744.351681039794 19.318444853687932 0.27937450658626667
0.8765000552635711 13.074394042278259 6892.563291426799 20.077246943189344 0.2827747899200941
0.8974493511532862 13.07675185666797 6141.176852960983 20.867263402156393 0.2862473546349343
0.9186048838949332 13.079623028289223 5476.26269365459 21.682116583421298 0.28973398573241893
0.9399464442972524 13.082760639535843 4887.829750224216 22.52700961193397 0.2932755869707137
0.9614659565390491 13.086121789809624 4366.322174448021 23.406626215059315 0.29690043548157125
0.9831646663742835 13.089817410324194 3904.326099523179 24.32026584636233 0.30059411429814087
1.0050390059913827 13.09362329294939 3493.863057206139 25.261766646884766 0.3042917282806632
1.0270582519815943 13.097481014763055 3112.9676850860706 26.242007890765713 0.3080752701556414
1.0492218443314085 13.101370713903826 2805.4335059880254 27.26247906878773 0.31194681054398654
1.0715148470614793 13.105079044632417 2516.9848519797215 28.31811317858648 0.3158642999892983
1.093946669896303 13.108818346899655 2260.0167531911243 29.411671874848725 0.3198397708568528
1.1164802537022849 13.112279976230685 2031.002280157453 30.550109809065184 0.323904802536401
1.139145437316171 13.115735496398925 1826.7162677386987 31.735270846478468 0.32805890412863614
1.1618741572298357 13.118717973702188 1644.2473435212207 32.959879770758356 0.3322534339517703
1.184676531359542 13.1213971460747 1481.273764351315 34.23167589480198 0.33653168933533206
1.2075614442548166 13.12377627748408 1335.3862183194906 35.55578127052764 0.3409153007412495
1.230484938394408 13.125664372332182 1204.854299809276 36.93421006582911 0.34540403494651434
1.2534541530505814 13.127141979122296 1087.9468056556702 38.36128156890766 0.3499415698719273
1.2764573398535475 13.128094055046803 983.1019496266113 39.843047962503114 0.3545687918041678
1.2994514921359264 13.128496824341092 889.1089821770768 41.3860308064928 0.35931272128231123
1.3224527636396362 13.128349828670983 804.6975174313566 42.99267446370789 0.3641755828183998
1.345443487773134 13.127533370938588 728.748095736092 44.66393275556642 0.3691508142980883
1.3683814711919249 13.125988372195946 660.6237581644081 46.394521442651 0.3741847366074267
1.3912674125093618 13.123766494630097 599.2660111425536 48.197231718563955 0.3793496340628146
1.4141033292666167 13.12089871733519 544.0589095421678 50.075070208328675 0.38464932478549085
1.4368278611199823 13.117085788197985 494.2827554002316 52.03121027138593 0.3900867374451517
1.459469462041944 13.112561773701795 449.371870768629 54.06902049157169 0.3956640183716195
1.4819897659759012 13.107198185609022 408.92010495668285 56.18400190583188 0.40133492723645253
1.5043746243027103 13.100854159673386 372.3485160655206 58.386738112968196 0.4071527791569865
1.5265972817848554 13.093628489758972 339.33137043395294 60.68291248205187 0.41313059241665145
1.548633334656641 13.085378035116069 309.4654216580316 63.07675058063251 0.41927168235726625
1.570485809289662 13.076286500124102 282.5274480226529 65.57274407074432 0.4255771812675627
1.5921539942953467 13.066047971927226 257.98103185492585 68.17572320358175 0.43205113981077026
1.613559467160522 13.054814280193824 235.83474988299918 70.89070326519037 0.43870926250042647
1.6347357445591784 13.042503903111596 215.73503419006525 73.72158311503443 0.44555249832020394
1.6556354209392776 13.029204768792914 197.53182753610395 76.6718046752622 0.45257381903608035
1.6762543281624112 13.01462435311337 180.98307100159008 79.75200890506085 0.4597958184305331
1.6965479032244621 12.99891798651061 165.9614990753535 82.9688171390705 0.4672371422030493
1.7165183365773593 12.982098635756703 152.31750410333123 86.32924030833853 0.4749090089169497
1.7361686485763301 12.964153060938935 139.90103402503993 89.84074918193672 0.4828166638672482
1.7553984218366903 12.944701313397339 128.5996675629187 93.51134342005075 0.49096737800699736
1.77426943426959 12.92415985259077 118.30878137476279 97.34961431867559 0.49937919770576755
1.7927493889746942 12.902380076829264 108.93166606754302 101.36472765085016 0.508068713234041
1.8107580864993447 12.879119241212912 100.37933378606736 105.56649406033576 0.5170437366306465
1.8283260218076398 12.854556230034412 92.57864799652796 109.96544879093705 0.5263161819182856
1.8454475250873945 12.828815743482457 85.46023696022112 114.57290954832152 0.5359089103729662
1.86205774526245 12.801621985524156 78.95522109522356 119.40102093944454 0.5458421329581148
1.8781685035551356 12.773007785624321 73.00461300565235 124.4627979510542 0.5561246866555205
1.89375181513121 12.74315443620702 67.57729978757695 129.76853978445024 0.566764783470425
1.9087723787180986 12.711641044956858 62.59747440495347 135.33214261339478 0.5777885291394846
1.9232444667007202 12.678908581326573 58.04267011102484 141.1733638293449 0.5892281911066769
1.937127825049473 12.644704783989429 53.868317164942475 147.30964787569692 0.6011002930475436
1.9504204359452095 12.609085888431284 50.03940982568397 153.75977002458836 0.6134400854852051
1.9630516492439742 12.57183073060291 46.52675009286763 160.54402626829906 0.6262797434572731
1.9750713493062253 12.533288716340287 43.30576266145245 167.67561554784388 0.639606438114781
1.9864087627358797 12.493122845253394 40.3476338876811 175.17838841210212 0.6534643548454103
1.997092938857058 12.4515356587446 37.62835585799763 183.08459870090107 0.6679167774437798
2.007078551439991 12.408423547180341 35.127811837639335 191.42181782595623 0.6829883881156135
2.0163269589700676 12.363748085424875 32.829446918293094 200.20031036383327 0.6986635647066143
2.0248747233424362 12.317649252385843 30.714875729275562 209.46798599087276 0.7150451033302534
2.032686119872451 12.270054493072688 28.76749388964166 219.2594972012346 0.7321639119167486
2.0397192206910013 12.220793606852416 26.969811526323777 229.59092097472453 0.750011860572327
2.0460142565786494 12.170287959748546 25.318394583728878 240.52551300429192 0.7687209292143672
2.0515140782457553 12.11811315569004 23.792273981090656 252.08524467617175 0.7882590982317772
2.0562116692344916 12.064504897211307 22.388509481525244 264.331997671586 0.8087530746868291
2.060111907677989 12.00932297587145 21.089614362151806 277.30127956460393 0.8302108403553415
2.063178596049388 11.952795165338447 19.8952125829918 291.06373868916216 0.8527432268918287
2.0654426205229015 11.894806448491506 18.790780862338792 305.65663867151216 0.8763647929275481
2.0668650461291125 11.835341821336197 17.770935084945233 321.165710596168 0.9012036304587315
2.0674570011532647 11.774521348168832 16.828603445470502 337.650479908917 0.927320821074943
