M[M_sun], R[km], Lambda[1], P_c[MeV/fm^3], rho_c[fm^-3]
0.23841724892012095 16.20908015294055 2780876.1263280716 3.453507347168396 0.169602847481901
0.2484370166615331 15.865536935754003 2281218.999886054 3.635965026469838 0.17198376366980783
0.25873854543536273 15.561741705249075 1879998.2167641958 3.825622951251265 0.17438539192524205
0.26933188405705233 15.291874559250399 1556202.888471937 4.021645938430548 0.17678336124865202
0.2802102105450601 15.051960326381348 1293462.3050559312 4.224266612104094 0.17916725246652107
0.2913700208208345 14.837614781932203 1078999.2785934694 4.4348917682414495 0.18157493184485293
0.30281850707683333 14.64601605302307 903421.2082772556 4.653870332964906 0.1840101652756094
0.3145509116259381 14.47450675656332 758982.0289544269 4.8815706207425515 0.18647458405882067
0.32656599857789165 14.320627502606772 639673.1743697588 5.115485223313702 0.18891199986853105
0.33886806246569695 14.182483994179574 540731.8557664378 5.358476273605552 0.1913676980356413
0.35145158835953944 14.05811515578224 458373.2274199273 5.611196127585387 0.19385350244408425
0.36432347436230067 13.946343611437978 389632.39768651634 5.874059535087696 0.19637478814576384
0.3774836619555886 13.84561811974844 327365.1026080532 6.144270640157023 0.19887698994402542
0.39092734761881365 13.755103239016572 283590.9649039896 6.424662450478251 0.2014040708896948
0.4046503498518063 13.673638195862047 242844.5041962478 6.716329733246979 0.20396536756195216
0.4186633458312938 13.600239257096781 205794.6403912273 7.019805818394533 0.20655994232975594
0.4329626588168252 13.534481289997697 179205.17367047633 7.330876745990837 0.20912436275558163
0.44754305353401674 13.475067299440614 154402.72509831263 7.654535745058494 0.21173317284507984
0.46241307067790505 13.422004427821369 133306.16531443133 7.991318445123362 0.21438622175228247
0.47756424030931627 13.374382057337707 115296.50777310529 8.339910219034065 0.21705512907093735
0.49299729254468555 13.331822263211157 99902.74909312766 8.699066744322145 0.2197122429431075
0.5087159324730405 13.293905344686841 86714.14810841004 9.07287810447387 0.22241791510533168
0.5247098726527513 13.260088309089774 75390.36239785676 9.461954185621812 0.22517453578055727
0.5409882512582428 13.23018615468227 65647.41956741862 9.861711986433017 0.2279158049608761
0.5575515303344645 13.203745057578208 57247.480020023475 10.276697487397811 0.23069284122753048
0.5743885644872699 13.180633596463348 50004.18742372587 10.708673655506688 0.23352026473831017
0.5914751033501732 13.160637013343152 43766.696366817414 11.15569377674857 0.23636439886604738
0.6088870472675458 13.142718252862675 38306.182933772616 11.61656026855722 0.2392140992057791
0.6265460372586398 13.12751571815728 33595.93858286028 12.096353671265865 0.24212318415319836
0.6444712459152944 13.114640395206731 29505.96179876514 12.595840276218688 0.24509219238503555
0.6626678207300177 13.103730724930971 25943.637888520247 13.108041421677754 0.24803002487675804
0.6811213411454786 13.094710203693822 22839.85829431783 13.641120479696006 0.2510245016762413
0.6998385254451973 13.087418599283568 20132.50510979029 14.196164167743238 0.2540800272456472
0.7188139702349706 13.081626843256604 17765.805632981028 14.768719615067157 0.2571474456771977
0.7380335328253731 13.077135581982205 15694.68192046019 15.361336904105508 0.26024783966500303
0.7575038932594739 13.074008808668871 13881.113399750117 15.978329562463777 0.2634135327322484
0.7772065709197522 13.07190984009998 12290.367311425889 16.6186342056199 0.2666224408348475
0.7971598381921495 13.070865807175961 10892.664106337164 17.277740719592224 0.2698272671522581
0.8173412131339866 13.070783052095397 9664.442017060219 17.964040053363405 0.27310479786675734
0.837742495904448 13.071356875049364 8583.114262361776 18.678574869963004 0.2764560996256982
0.8583746683536009 13.072791949320248 7630.283168323863 19.414053864712514 0.2798105733035127
0.8792059029669284 13.07462467028722 6789.87581038868 20.17787498590389 0.2832188217442253
0.9002611212592897 13.077125680021505 6047.69178555608 20.97315967131481 0.2867004684395367
0.9214914108474208 13.079927363771695 5360.3502164527845 21.797240976919277 0.29022658525792616
0.9429529465502132 13.083283483194077 4811.055031283344 22.64804100039551 0.29377883987942416
0.9645611104413874 13.086662500035018 4296.730474147734 23.53387852555159 0.29741489342266836
0.9863405064587352 13.090351693135762 3841.465635720199 24.45607261201484 0.30113428946564585
1.0083170075579904 13.09418694951582 3436.676979284817 25.40686921319737 0.30486037153133344
1.030415716610217 13.098028952221382 3077.596640991756 26.3944500998434 0.30865614242714917
1.0526812990356986 13.10193417103201 2758.2881725070943 27.422658881428273 0.31254124257260957
1.0750734101221435 13.105694325720146 2474.1005292099317 28.491619618937023 0.31650818752803694
1.0975979886264957 13.109442166566321 2221.188318063121 29.59388854164755 0.3204987115175205
1.1202110594318757 13.112860933424896 1995.7058921199898 30.741506598107666 0.32457717433917943
1.142967257272753 13.116237867694245 1794.5119850164572 31.93634606765391 0.3287476268671297
1.1657837584917146 13.119267572116897 1614.989617239332 33.177328499476474 0.33299823921941696
1.1886754045137584 13.121882779446814 1454.5272845076781 34.460040485237855 0.33729522772240056
1.2116360145006237 13.124159740829457 1311.0860297207212 35.795686826966026 0.3416987401302504
1.2346566783137516 13.126035278841238 1182.6780053058912 37.18630294281988 0.34620559270400986
1.2576967675285646 13.127375080705972 1067.7354305264855 38.63356259202878 0.3508073181187909
1.2807532840615719 13.12818438497368 964.7331449099127 40.12908866853597 0.35545798226771963
1.3038308699407422 13.128489046680295 872.2826635704977 41.686638966441926 0.36022701073203445
1.3269112600634505 13.128205038591007 789.3273739941078 43.308710746807144 0.36511640308062904
1.3499646083353027 13.12729688873523 714.8009917154749 44.99791933653684 0.37012597180701906
1.3729680953112795 13.125617897541359 647.8361911979636 46.75302614073286 0.3752266126313745
1.3959147511446863 13.12325610735477 587.599725572022 48.57423157579515 0.38042341208369945
1.4187975334068532 13.120129556264168 533.3522491871431 50.47168705416816 0.3857570386962734
1.44159294091887 13.116303492027068 484.4906162120973 52.44863776533221 0.391230025632894
1.4642786307825408 13.111469349130827 440.4281560961262 54.50851227961101 0.39684242961438937
1.4868405870308947 13.105902568791652 400.7048315037569 56.6550282175679 0.40259243791684024
1.5092575161208035 13.09941471368236 364.84020934745877 58.88552165956296 0.4084662919939139
1.531505127582454 13.091861710882872 332.43479475116624 61.20835883559531 0.414490282013134
1.5535831589348073 13.083408340715945 303.110213514669 63.63053203944673 0.4206795466148337
1.5754761080326045 13.074032868255438 276.63259303746565 66.15662932030477 0.4270340822966657
1.5971473051565013 13.063688054873372 252.66248307837878 68.79161253514245 0.4335634055952079
1.6185711025769898 13.05204196567021 230.91952378345906 71.54065224032102 0.44028041858742417
1.6397428082645629 13.039493232879684 211.24159813353845 74.409290185689 0.44719143472077266
1.6606332304839653 13.025793140417516 193.3924741260624 77.40345306597838 0.4542997946557507
1.6812378757283164 13.010883553124753 177.17194438494164 80.52945748481054 0.4616097955873943
1.7015215444180454 12.994803871227928 162.4597619044319 83.79358345353117 0.4691397914988517
1.7214848550247188 12.977727003379902 149.086189794608 87.20114625809768 0.4768925742674321
1.7410572741248467 12.959127267333033 136.91830007570258 90.76293508810376 0.48488441029995755
1.760271484640321 12.939461675752376 125.86067710161622 94.48716704704529 0.49312398700891674
1.7791149525077767 12.918470881341158 115.77354575737517 98.38269918158815 0.5016333313581322
1.797512229639293 12.89623995252845 106.59971202493449 102.45898945934424 0.5104267731054202
1.8154755083776264 12.872605802941553 98.22373369344766 106.72613265080668 0.5195099902849033
1.8329984943464919 12.847756128640597 90.59191992650119 111.19438411550898 0.5288957499246372
1.850044518921662 12.821626494951493 83.62697442429926 115.87229401941298 0.5385986872880857
1.8665574008964458 12.793824534150342 77.25989506345974 120.77489637718786 0.5486449057351687
1.8825627464924681 12.764796968429772 71.44372593340438 125.91561311150639 0.5590438707176271
1.898053888680672 12.734285868222715 66.11590162762026 131.30883414331822 0.5698217751631903
1.9129744014558263 12.702433067059753 61.25036301261218 136.97007329265978 0.581006588756226
1.9273203532407472 12.669220767902255 56.79935706245194 142.91603744666799 0.592614477219153
1.941089177314218 12.63450076039942 52.71483958580092 149.16474833056438 0.6046687256131081
1.9542024435549985 12.598089749907757 48.968242505706534 155.73280176782535 0.6171956994929213
1.9667184155205333 12.560543397133328 45.537824332368 162.63203857072762 0.6301932782330628
1.97856440171812 12.5213455554598 42.38812091821039 169.89539680268382 0.6437173887680614
1.9897328000100778 12.480508807249548 39.49362938890602 177.54725710532756 0.6578137462939078
2.000230072383392 12.438269070225278 36.83365795031696 185.60981415232186 0.6725072065989632
2.0100102781086617 12.394563668042057 34.39202650083144 194.09914081080873 0.6877798122334017
2.0190915435273262 12.349421383594857 32.14620128607113 203.06089192554072 0.7037391423665856
2.0274378263798987 12.302680329828757 30.077260756515887 212.5227023187482 0.7204129667571638
2.0350102327744546 12.254339464620015 28.17352045722112 222.51284710447672 0.7378087642319943
