M[M_sun], R[km], Lambda[1], P_c[MeV/fm^3], rho_c[fm^-3]
0.23841724892012095 16.20908015294055 2780876.1263280716 3.453507347168396 0.169602847481901
0.24842014673224508 15.866066680858046 2281926.488052088 3.6356527757160273 0.17197979172212527
0.25870669616774417 15.562625672615093 1881280.4788506208 3.824980591681564 0.17437753387468938
0.2692774247722149 15.293176685844182 1557562.9901431585 4.020610941284964 0.17677070002233036
0.2801360773109578 15.053408405028556 1294923.8782790094 4.222849165370586 0.17915067762609133
0.2912727243567361 14.839429486592993 1080756.1795822855 4.433072265196106 0.18155445876051834
0.30269947009258863 14.648014033387067 905140.6868233486 4.65162813467925 0.18398588109412464
0.314407653668823 14.476506230908889 760567.9979019653 4.878884247441601 0.18644659175443887
0.3264015249189859 14.32265568994918 641163.3682518443 5.112197820208402 0.1888777447676794
0.3386778244393895 14.184376927227694 542089.7887981889 5.3546824457684075 0.19132984279651818
0.351238589000759 14.060212691133351 459657.728136873 5.606872032984171 0.1938119433793683
0.36407924132575886 13.948310521864023 390798.93728476914 5.8691795927634525 0.1963295990316599
0.37721209292087443 13.847638405211471 333078.61850044207 6.138580774789455 0.19882430080176777
0.39062635869050055 13.757081174542174 284597.2880673633 6.41834318021247 0.2013477477215625
0.4043205374725356 13.675414813427631 243718.40471331586 6.709352666493923 0.2039057169923135
0.4183020220096494 13.602030741620966 206596.48537285067 7.011822283225153 0.20649168693856662
0.4325698998612925 13.536033140507435 179919.19801503373 7.322152476797974 0.20905244584539628
0.4471171847746573 13.476701942000387 155062.274874796 7.645036495064224 0.21165764896028288
0.461952554849473 13.423532436603477 133896.8004735873 7.9810086294766425 0.2143072871804054
0.4770698374631012 13.37580747223413 115830.52450000367 8.328305347100873 0.21696627921860984
0.49247093911689716 13.33326674829545 100388.93529407601 8.686553036677358 0.21962017717418134
0.5081468880092226 13.295154924641224 87149.843878102 9.059414861814501 0.2223223038605184
0.5241154055049585 13.261341366431244 75779.13818078674 9.447496958354668 0.22507539787390513
0.5403526329050861 13.231233293097198 65997.9970525301 9.845615673061484 0.2278054273080258
0.556866164326333 13.204724688117409 57567.36914194322 10.259487776734064 0.230579115888829
0.5736739587726795 13.181637566722975 50290.95519930242 10.690300924853434 0.23340336952982274
0.5907420247167646 13.161140242223123 43994.55328853144 11.135354663247641 0.23623499268478823
0.6080875736166751 13.143540463018702 38541.71365945773 11.594920643265176 0.2390810260432469
0.6257002565429741 13.128202240119732 33806.5625490645 12.073351655315548 0.24198641307454646
0.6435825027282484 13.115193012995071 29693.51222774421 12.570664575583287 0.24494345930386202
0.6617362621842656 13.104308557720953 26113.24372505502 13.081170129120805 0.2478758991840136
0.6801439224546892 13.095132210689151 22993.084389375334 13.612656703751671 0.25086697471351666
0.6988029869000124 13.08767185232519 20270.02212723797 14.166032280782705 0.25391859815459217
0.7177364985033048 13.081852393007392 17890.19052040605 14.735688383175088 0.2569704835855853
0.736916128151519 13.077378797037811 15807.219487785776 15.326438367043492 0.26006676835300446
0.7563335632214719 13.074153981579041 13982.382152082648 15.941473934742598 0.26322882952310417
0.7759984724870806 13.072011757525027 12381.482065549664 16.578347283437264 0.2664205415789192
0.7958929172002472 13.070881469259756 10975.460990616624 17.235267636889585 0.26962139611166547
0.8160343377065725 13.070786943038689 9739.552502067783 17.91927253532346 0.27289436063592026
0.8363920621436363 13.071329654635038 8650.26111432259 18.63139561718407 0.2762409180056714
0.856962354239663 13.072638746270409 7691.250849117359 19.362663699753295 0.27957618597649875
0.8777630080382438 13.074584493769787 6844.906338383886 20.123785434498195 0.28298014590865095
0.898753372876658 13.076853985148386 6097.2530266496715 20.916236621751327 0.2864569034890218
0.9199521173743458 13.079776373468396 5436.794035186404 21.73535315488963 0.2899617768116865
0.941326693130575 13.082923440757398 4852.119112298785 22.582975760222283 0.2935082962478147
0.9629045753328207 13.086400350732307 4334.013667485337 23.465466892991078 0.29713831763792997
0.9846504459427404 13.090119317718207 3874.942503732964 24.38412885124821 0.30085230080869435
1.0065582265434447 13.093897544598695 3467.221596911401 25.328853188806484 0.3045546341013115
1.0286114608947436 13.097679809925948 3105.1445191228936 26.312485309324053 0.308343820306257
1.050826099721364 13.101601805197449 2783.4582964959836 27.336531075829498 0.31222161973525603
1.0731720177073585 13.105432484805567 2497.0137546029864 28.398319288446803 0.3161619472383885
1.095632974581523 13.109046649400266 2241.8757377768934 29.49590133586549 0.3201443654785476
1.118220409223377 13.112642567285068 2014.5814346135653 30.63857949643682 0.32421559418283824
1.1409077021844745 13.115963867337172 1811.7747328915361 31.828210738015596 0.32837724179471234
1.1636862930180871 13.1189864988645 1630.594323004988 33.060378865983864 0.33259766339821933
1.18653544743187 13.12166863536248 1468.7195339609711 34.337215990689394 0.3368845632832201
1.2094414329955547 13.123905304602724 1324.0972638209494 35.666650796807595 0.3412773580241949
1.232418931573462 13.125863820306785 1189.2514666034294 37.050707240393606 0.34577445086271613
1.25542744666033 13.127309637057214 1078.5190767353038 38.487096619658416 0.35034161302722305
1.2784544331526684 13.128197238515714 974.5369250920398 39.97521575144783 0.3549796505911856
1.3014799270846436 13.128453458366787 881.2693584774055 41.52492393697966 0.35973515999410355
1.3245203659571176 13.128285197288868 797.5267267010909 43.13868991225214 0.36461026168261673
1.3475376044509606 13.127430329393198 722.2927827429577 44.81910975716266 0.3696063205594931
1.370502860266002 13.125840475827985 654.6658220167309 46.560135449062656 0.37466603926101383
1.3934376624329752 13.123603329121305 593.8190987917812 48.3713820933438 0.3798456524065371
1.4162686505643267 13.120502224695008 539.0606079839811 50.258274216212556 0.38516099651646474
1.4390264115278781 13.116683383773076 489.73659414472 52.224018255566556 0.3906148173967911
1.4617140563091195 13.112126551880682 445.21721617465926 54.272010410527635 0.3962082961241887
1.48423864852214 13.10654737364746 405.0838160546477 56.40276573234219 0.4019214996359533
1.5066233633934623 13.100130875280016 368.85205780203796 58.617079397417974 0.4077593673976466
1.5288899730236134 13.092929893148316 336.11702452243037 60.925554821842695 0.4137584743361945
1.5509432080732761 13.084539120299914 306.50140704588574 63.33246465600205 0.4199217776270511
1.5728140119232008 13.075264833025939 279.7354343268379 65.8423449156733 0.4262498849344557
1.594460643371704 13.064928437672137 255.49964699486313 68.46008642214629 0.4327493703917384
1.6158613314277837 13.053526434790069 233.60836953690796 71.19077591839275 0.4394346440206076
1.6370585606348138 13.041115324510624 213.64700460262617 74.03988088730735 0.4463126324754384
1.6579668335339521 13.027673502826476 195.60214988600342 77.01297000906106 0.453385430608085
1.678570438206024 13.012910987680563 179.21518146748812 80.11230460482076 0.4606389722099238
1.6988565224385082 12.997014341518911 164.32420815588122 83.3494940975545 0.4681153239792551
1.7188177608153339 12.98004134313858 150.81120825509475 86.73165042313025 0.47582448238126657
1.738435989816583 12.961693745111754 138.49268979888538 90.26633841199522 0.48377092981988096
1.7576619711463448 12.942191943467238 127.31029489183251 93.96165769245152 0.4919625904477366
1.7765235468736162 12.92152846596351 117.11975022269542 97.82632173957442 0.500419346756786
1.7949593926408018 12.899575161894846 107.84686833110064 101.86963064608717 0.5091567448940749
1.8129482895901619 12.876158432004644 99.37755807847904 106.10152563487193 0.5181816114708645
1.8304932653467263 12.851377594577508 91.64923530076395 110.53268439360686 0.5275072445514124
1.8475603600135357 12.825382278620923 84.5988049506609 115.17459328793991 0.5371578885704106
1.8641416439865444 12.797957020491284 78.16085485824581 120.03957967495684 0.5471529075271382
1.8802075840135728 12.769217420233943 72.27755525535024 125.13485008287303 0.5574781740344372
1.895756273868915 12.739073591658496 66.89555225145203 130.47896454466627 0.568174749414799
1.9107201480351594 12.707440804367522 61.969902202031214 136.08753894279752 0.579272664245481
1.925155987836124 12.67448644033362 57.459842548609046 141.97700007026154 0.5907897814211494
1.9389537204411746 12.639856634038216 53.325225571783626 148.16505742258002 0.6027457410209853
1.9521662676165794 12.60392279768363 49.53597796696305 154.67078872478808 0.6151760851599044
1.964760086810356 12.56658996099515 46.06519719658663 161.51033866369988 0.6280969063797397
1.976691191128794 12.527669845142976 42.87435348110569 168.69895147218296 0.6415016174156759
1.9879533713394686 12.487247462701509 39.94727337676142 176.27035210221985 0.6554692686464371
1.9985454961605433 12.445292028927987 37.25533023977953 184.25047278819818 0.670039381323044
2.0084444963467045 12.401943925270325 34.781050946710906 192.65686934445063 0.6852003024866512
2.0176251977032362 12.357163636707797 32.51176709956751 201.51859452783268 0.7010026183248916
2.0260740295205943 12.31073565684463 30.41613632776896 210.87829503377617 0.7175279412517293
2.033773869948849 12.262808631115057 28.48993797039473 220.7556887835499 0.7347547814079075
2.0407187619275726 12.213397458603357 26.71526309890982 231.19380294739383 0.7527669619356585
2.0468944286969224 12.162486275053666 25.080142236358906 242.23688077526617 0.7716289470885629
2.052288486116791 12.110051326733371 23.571098617963447 253.91369551659398 0.7913311529331072
2.0568713661304376 12.056094712166663 22.17983606458014 266.2891384792664 0.8120094092323491
2.060634657281972 12.000642250275078 20.898171176052884 279.39463987882084 0.8336522657414611
2.06359879626427 11.943766901877542 19.71499294293306 293.30177270668787 0.856378129127575
2.0657261500593984 11.885413356288066 18.62237752988755 308.06200837983846 0.8802405537164714
2.067028155372593 11.825738488858088 17.614714908132896 323.73968523183544 0.9052949987249278
2.0674747433923852 11.76455635625263 16.6827246716051 340.4164170761411 0.9316754404622115
