M[M_sun], R[km], Lambda[1], P_c[MeV/fm^3], rho_c[fm^-3]
0.23841724892012095 16.20908015294055 2780876.1263280716 3.453507347168396 0.169602847481901
0.24841111049268602 15.866402335949331 2282371.2217807192 3.6354931596299838 0.1719777613451436
0.2586869120893157 15.563193562350373 1839426.8193189434 3.824652260311465 0.1743735173633366
0.2692488908801213 15.293826277357097 1558482.165528252 4.0200819702215655 0.1767642290650143
0.28009715531250656 15.05427736468674 1295945.333655023 4.222124793152186 0.1791422072168351
0.2912210207406806 14.840269773538965 1081572.7935446878 4.4321425043836005 0.18154399707342522
0.30263875451056466 14.648927964430843 905925.2410725947 4.650482471571269 0.18397347296277758
0.31433658553714516 14.477453850713129 761376.7754839496 4.877511739957087 0.18643229007594198
0.32631573793890595 14.323681720158648 641908.6460095381 5.110518401655068 0.18886024504218973
0.33858175919781236 14.185422004180358 542795.6901040982 5.352744462235904 0.19131050537974842
0.3511268963512465 14.061104828079861 460320.22038043215 5.60466334162928 0.19379071554893887
0.36395722187017265 13.949276533247222 391371.3922252375 5.866687164167495 0.196306518709653
0.3770737433641954 13.848602231705788 333609.35047990456 6.135674968391636 0.19879739252946654
0.3904707868581319 13.75802623703642 285114.5275462385 6.415116167655779 0.20131898560771846
0.4041542538759838 13.67644752681414 244190.49312559326 6.705789989848781 0.20387525781815868
0.4181182209215792 13.602953711434996 209605.24488695484 7.007746093694273 0.2064568374758801
0.43236940614928254 13.536905822711862 180300.1814531508 7.317698388861908 0.20901572938984286
0.44690372618665275 13.477612477535981 155402.42532465907 7.6401870699183565 0.21161909355577527
0.46171701119769976 13.424219986306943 134189.98058593448 7.975745747333688 0.21426699321560247
0.4768176697490598 13.376551142086933 116106.90311165107 8.322381992437228 0.21692092850813427
0.49219838381582326 13.333900878176655 100633.40026908493 8.680166198958512 0.2195731879730362
0.5078566833489736 13.295785369701461 87371.58414829028 9.052543820182022 0.22227350812383992
0.523804783464899 13.261849825919187 75979.73236791254 9.440119081719516 0.22502480537565972
0.5400263069481651 13.231830800015373 66179.94794272076 9.837402206828207 0.22774910490029998
0.5565257470392264 13.205339945079476 57731.55224775027 10.25070670296935 0.23052108873151264
0.5732959371175125 13.182002132092569 50439.57605562373 10.680926983830766 0.2333437284883862
0.5903473226903447 13.161579547458633 44128.128319538926 11.124978587541591 0.2361689756318073
0.607679229009866 13.143950367148014 38660.15890242231 11.583881744023477 0.23901314218605704
0.6252669822626786 13.1285817417645 33915.38533724371 12.061618437220346 0.24191664680282468
0.6431317948093783 13.11556311601711 29789.81476236521 12.557736002913398 0.24486658539710057
0.6612548937513816 13.10450385680776 26200.49236291119 13.067465512328384 0.24779729360326408
0.6796455744183374 13.095335406772255 23071.523378096743 13.598140710641353 0.25078663891021097
0.6982808832675673 13.08787843468941 20341.361491924785 14.150666426664682 0.25383627686263965
0.7171929964288482 13.082021161576531 17953.673979238923 14.718845920375312 0.2568802514848058
0.7363451784062657 13.077496784195324 15864.42801946167 15.30864474367081 0.25997444600941816
0.7557408508011331 13.074219190850283 14034.290590213608 15.922683470915672 0.26313466048611484
0.7753760611651762 13.072082461817145 12428.516268206156 16.557809808484567 0.2663176173373304
0.7952557441013587 13.070974433062327 11018.054937007 17.2136168598747 0.2695164527520111
0.8153676217183016 13.070771566782968 9776.622237576363 17.896453380865676 0.27278709537118395
0.8356983722872182 13.071309373791996 8685.067534304084 18.606737030076726 0.27612590285466965
0.856243350431879 13.07254645043848 7722.423415468237 19.336473340797383 0.2794567333879717
0.8770151982112745 13.074473721859798 6873.363208530078 20.096220832874405 0.282858514204304
0.897978876283026 13.076823419469477 6123.255819958583 20.887229579925734 0.2863327868304623
0.9191535521765272 13.079698496877413 5460.170977201906 21.703820012632306 0.2898268513589502
0.940513370757805 13.082843420519954 4873.110777614354 22.549825421613782 0.29337045593596234
0.9620486329472181 13.086234786762526 4353.119465244523 23.430613454674575 0.2969974115274861
0.9837661260440809 13.089931473994094 3892.263967261984 24.346299402291727 0.30069936322864016
1.0056565115338454 13.093761159460808 3483.1414047505373 25.289113770332726 0.3043988990741861
1.0276931257736495 13.097545249497767 3119.528235508651 26.270736744569838 0.3081847398010105
1.0498766037913425 13.101408699989511 2796.396142768479 27.292664482813983 0.3120588295094146
1.0721946921779286 13.105271344699668 2508.8077317462526 28.35080572756259 0.31598562300677707
1.094630374611946 13.10890260079031 2252.7354552449547 29.44600372668004 0.3199639233480881
1.1171903305692819 13.112420668051318 2024.2503327082998 30.58616929260349 0.3240314785379954
1.1398663139863277 13.115788933203476 1820.5391870000199 31.773151624595705 0.32818865334929426
1.162613074286321 13.118824482421656 1638.664025983007 33.00083971315428 0.33239372992424543
1.1854357453254143 13.121455986232391 1476.0851711220819 34.27468953796433 0.336675505710977
1.2083301139326323 13.12382456854405 1330.7357066916545 35.60096606936154 0.3410628569367628
1.2312791063890474 13.12577323134296 1200.6326917739411 36.98168745768333 0.345554994672948
1.2542617726591374 13.12722114901357 1084.075372393534 38.41255399534462 0.3501045963391831
1.2772752498525564 13.128195985423218 979.6280914707472 39.89690816834886 0.3547362224543965
1.3002821267125508 13.12849789429338 885.8998078706367 41.442630501023544 0.3594848673197833
1.3232941548099566 13.128302639204332 801.7554177853474 43.05217527430408 0.3643527130126895
1.3463045749364613 13.127562673630045 726.165380767207 44.7281288227814 0.3693419143894335
1.3692482402809454 13.125944182983762 658.1449574373997 46.462003876087486 0.37438085211110433
1.3921598812810354 13.1237835341128 597.0845968348095 48.2681908695514 0.37955174123938107
1.414980596933532 13.120698712009563 542.0222161850339 50.14971664391175 0.3848578053277399
1.4377469157064118 13.117040710804101 492.42039959100646 52.10976801547649 0.390301898502286
1.4603781730118925 13.112379733849897 447.7054149775565 54.151724800558334 0.3958857737950147
1.4829169316723525 13.106911971528307 407.3247227932958 56.27312848107018 0.40157390271028093
1.5052948474430399 13.10054296358989 370.9263040420464 58.48057915438607 0.4073999032118486
1.5275316810363393 13.093275167731452 337.9790059518452 60.7817624847486 0.41338638507630665
1.5495596767698698 13.08497898318151 308.2589206044826 63.1809231885358 0.41953651767984756
1.5714548679262432 13.075896551210604 281.34217646666696 65.68257096469006 0.4258512195566498
1.5930939633898364 13.065609592395456 256.9732845104508 68.29156069794185 0.4323355692858382
1.6145177568010638 13.05430938156556 234.8837444887245 71.01293673455027 0.43900474394092115
1.6356910391922452 13.041951752115398 214.87840240460633 73.8521290068014 0.44586598217487156
1.6565926557740234 13.028555114711017 196.732321836008 76.81076558915372 0.4529043985956003
1.6771946804029199 13.013991696493184 180.26204496155424 79.89875753097145 0.46013923540342333
1.697496981160848 12.998213956176775 165.29296087312778 83.1238623788666 0.4675948152931639
1.7174454586374086 12.981173320047683 151.69430129148793 86.49313212768715 0.4752818589177752
1.7370754819894483 12.963034024272227 139.3244980944523 90.0140757820559 0.4832053007534696
1.7563347989022204 12.943740398653159 128.0719481605872 93.69473363638517 0.4913726776743449
1.7751857244980116 12.92310203189143 117.82991812575005 97.54374664943185 0.4998027836428763
1.7936307476792215 12.901080609677093 108.4799071339405 101.57033518833285 0.508511783511764
1.811642467594866 12.877866793738313 99.96720008739895 105.78436296402631 0.5175070878715341
1.8292275227734758 12.853363365703249 92.20223078713951 110.1827832969301 0.5267533491056495
1.845979219003209 12.827593988932934 85.2197487660332 114.87089915340951 0.6510324314275234
1.8569645571338271 12.800907296159872 80.32957694727219 120.30035055772402 1.019741341892751
1.8614346669972919 12.769675962668636 77.187908380339 126.68875185639911 1.3799323809823298
