M[M_sun], R[km], Lambda[1], P_c[MeV/fm^3], rho_c[fm^-3]
0.23841724892012095 16.20908015294055 2780876.1263280716 3.453507347168396 0.169602847481901
0.24842894942266966 15.86581538921691 2281515.619580131 3.6358117952587725 0.17198181451085062
0.25872463716682864 15.562107141151623 1880597.289166458 3.8253077157846205 0.17438153561742048
0.2693051976202481 15.292461423676754 1556934.5383625603 4.0211380012736395 0.17677714760127314
0.28017503653222436 15.05264010359563 1294122.711175239 4.22357096290176 0.17915911792837497
0.29132004507994824 14.83846647269513 1079930.3473821874 4.433998773997347 0.1815648838559163
0.30276110623620867 14.647067660814187 904270.4808289693 4.652769853699876 0.18399824650894048
0.31448134313519716 14.475432406585881 759756.258128496 4.880252103379218 0.186460844963307
0.32648508070137644 14.321648796693504 640414.8184451462 5.113871657331476 0.1888951863340537
0.33877501354323925 14.183419121254595 541400.3811543593 5.356614089214242 0.19134911695119297
0.3513475911588616 14.05911275179525 458986.9483143731 5.609073610276535 0.19383310283622773
0.3642019992872638 13.947308228997368 390207.3498339513 5.871664116252219 0.19635260615100023
0.37735030138760944 13.846664843635866 332534.7812301408 6.141477560208264 0.19885112553823545
0.3907777248249789 13.756127184676465 284098.1059930309 6.42156032945065 0.2013764219244099
0.4044888917232165 13.674491227408899 243266.68530912328 6.712904620599266 0.20393608449390307
0.4184860000492287 13.601160765247784 206192.46921664124 7.015886485222835 0.20652643391360195
0.4327674782217361 13.535206812188402 179547.8688465769 7.326593668796069 0.2090890559956544
0.44733403685724743 13.47583729732638 154728.60878974487 7.649872096026566 0.21169609445547716
0.46218758802751925 13.422741772779093 133607.25444869063 7.98625673882856 0.21434746804096128
0.4773223961840999 13.375058473423707 115557.33609509422 8.334212491534231 0.2170115058194377
0.4927387112758353 13.332486762212458 100136.00304104152 8.692922668112232 0.21966703978536534
0.5084389452811905 13.294519768051469 86927.43337535378 9.066267679982387 0.22237097018051932
0.524415595400868 13.260666967670657 75579.29965339685 9.454855570675294 0.22512585827048406
0.5406769531318008 13.230755969128245 65822.57867882657 9.853808283044673 0.22786160669766553
0.5572176069576142 13.204305928438279 57406.24477752479 10.268246906908315 0.2306369980383468
0.5740343188133581 13.18101420262435 50145.487491626205 10.699651812029574 0.23346286389277981
0.5911315368562609 13.160673981090666 43861.08162383563 11.145705983024776 0.23630085222990999
0.6084887945230102 13.14304142885203 38421.27664305581 11.605933634419971 0.23914875057831297
0.6261334569064227 13.12788684851915 33699.707017817105 12.085057786772813 0.24205601828783338
0.6440336692576573 13.114929615304801 29600.808885713122 12.58356427427535 0.24502016152458078
0.6622091510744719 13.103987742142406 26026.260020990547 13.09484465752402 0.2479543321867667
0.6806410097085167 13.094946200874178 22915.872639751924 13.627141369545809 0.25094713714218014
0.6993242229282824 13.087555270190471 20201.18070551513 14.181365542148328 0.2540007448335706
0.7182840490731913 13.08170532879148 17826.53325802244 14.752496415445105 0.25706053122765055
0.7374844666509488 13.077306059778342 15750.376577945837 15.344196268198386 0.2601589053516054
0.7569286716456215 13.07405444152085 13930.243639546055 15.960227359487018 0.2633228129374946
0.7766151670874776 13.071994728204508 12334.98016446149 16.598845891664716 0.26652327103861645
0.796532886298556 13.0708792488388 10932.830262767879 17.256878221142898 0.269726144653211
0.8167030911464428 13.070806625345575 9700.75456878255 17.942050148218186 0.2730014306275684
0.8370904154096158 13.07152612969463 8616.300126078817 18.655399898978242 0.2763504000330417
0.85767978815564 13.072687866937025 7660.151155318013 19.388809430682524 0.2796954350193884
0.8784904504026829 13.074577742767964 6816.959753964974 20.151304054062734 0.2831015747123242
0.8995152818302864 13.076985112503328 6072.013541532407 20.945196312858883 0.2865808175411611
0.9207430045817372 13.079914841785008 5413.584256256724 21.766837426992446 0.2900964931565684
0.9421513748058769 13.083082039672135 4831.11385972298 22.61607591134189 0.2936459278782656
0.9637451762172073 13.086541828151393 4315.254391071793 23.50026882305156 0.29727901550986535
0.9855132124432403 13.090226693008708 3857.5652791595394 24.420732929469953 0.3009957965880169
1.0074569986202928 13.09412187990841 3451.8701289197097 25.3685386864884 0.3047101578179472
1.0295379801677742 13.097905460904686 3091.129455557921 26.35417874783533 0.3085026907561248
1.0517773193364128 13.101769141430196 2770.4720468051582 27.380341358562745 0.3123842009919723
1.0741429583492268 13.105575564324369 2485.268263170366 28.445775995766617 0.31633806048473867
1.0966391551808854 13.109299412026584 2231.3032570177247 29.545741099713542 0.32032459842592015
1.119238797584314 13.112774899027777 2004.986076870217 30.69093091508988 0.3243995033169144
1.1419622182281588 13.116159662537294 1802.9469777040515 31.883210188471896 0.3285656258825799
1.1647487811840485 13.119046999632314 1622.5713712983224 33.119858844095326 0.3328013941869808
1.187619764707253 13.12172541901544 1461.4997846659676 34.39968272379363 0.3370934211825503
1.2105535903160431 13.1240480276821 1317.5026517742606 35.732275377160356 0.3414916626943254
1.2335598457736272 13.125948496352484 1188.4747571339165 37.119666580165394 0.3459937148673388
1.2565754877966557 13.127280912753134 1073.042804286053 38.56158087503196 0.35057844412462896
1.2796249474965733 13.128200291478658 969.5328811828533 40.05346521506996 0.35522289805689017
1.302686726365972 13.128507983333721 876.6710727258743 41.607159721398524 0.3599852773232426
1.3257388391501632 13.128257817455406 793.344645235386 43.22514761588723 0.3648676408626527
1.348773627941283 13.127366613973976 718.4773867353068 44.91003474998689 0.36987056415381153
1.3717725928005464 13.125773837237107 651.163152857045 46.65821614816157 0.37495107856272997
1.3946930799925183 13.123409225373488 590.6493260047266 48.47452440706406 0.380139424267114
1.4175672552074101 13.120370356295552 536.1362384222292 50.3667852694594 0.38546405778180454
1.4403346191131425 13.116478142216103 487.00696654769774 52.33822484730348 0.39092761674323745
1.4630174468156998 13.11178936908389 442.781860443977 54.392255771823066 0.3965307105344183
1.4855591255438994 13.106199076559442 402.8373140759535 56.532372685851946 0.402269015324104
1.5079914596047428 13.099885553202844 366.7965936490967 58.75355443417238 0.4081187652044124
1.530212263948728 13.092303553706783 334.21712286263624 61.069327832205666 0.414130513584592
1.5522887980938458 13.083923351594049 304.77684312107925 63.483993554353646 0.42030700562012
1.5741641168582061 13.074595463796804 278.1486283244229 66.00211402382031 0.426648538228495
1.5958345678424295 13.064278851309 254.03971251486237 68.62861611608544 0.4331631812449969
1.617241664143905 13.052756442967723 232.21874586965893 71.3686291123325 0.43986457796764444
1.6384399190048116 13.04039922461284 212.42347588899767 74.22765818293583 0.4467593432370354
1.659331595386581 13.026639465084394 194.4525917436354 77.21159282255614 0.45385080875482525
1.6799309738123462 13.011905913096959 178.17705583093377 80.32591636445163 0.4611388603922558
1.7002224482887207 12.995907084945777 163.3646671620573 83.57520777221393 0.46863602172916813
1.7201749907539832 12.978779319778903 149.9177316465694 86.97027011588409 0.47636733652123436
1.7397810177788964 12.960405097000079 137.68997635098083 90.51872428908133 0.48433683523387727
1.7590196236334208 12.940988046202897 126.57622780720328 94.22872951324175 0.49255282978704135
1.7778513180066422 12.92000216609972 116.42977526654263 98.10907209541018 0.50103629229068
1.7962604205797625 12.897922034068355 107.20971250194833 102.16913221119447 0.5098021504237321
1.8142366659331992 12.874347596662512 98.79071536154835 106.41892896202346 0.5188566468843917
1.83177722875414 12.849628954373896 91.11201119178483 110.86922500203232 0.5282139014349696
1.8488157292862872 12.823367378518524 84.1042461191301 115.53160730543158 0.5378989801018387
1.8653829571837082 12.795994378321915 77.70549779319305 120.41339396500625 0.5479117086063574
1.8814192757788812 12.767004768199861 71.85233128549518 125.53155787964803 0.5582737087342466
1.8969208129587187 12.736721557622392 66.50286907457884 130.9006072612353 0.569011575359428
1.9118671115835675 12.704863993883167 61.60265333700867 136.5359219930462 0.5801536071358626
1.9262467680587059 12.6717225182335 57.12148514069347 142.45407087070294 0.5917168042498326
1.9400281862616389 12.637093186978511 53.013817624120385 148.6729216763671 0.603722658113181
1.9532257643485176 12.60111924803867 49.24748884416046 155.21173278157275 0.6162068858519241
1.965746215737259 12.563482600369309 45.79674828031006 162.080148228215 0.6291618371382427
1.977634698089602 12.52432328225989 42.62237875494499 169.30670344116513 0.6426271510007857
1.9888700736911067 12.483869662825787 39.715634549138315 176.91894482533192 0.6566601255527438
1.999416478327639 12.44182999175507 37.041210241454834 184.94305711848472 0.6713003083838658
2.0092600726124306 12.398265562238471 34.584122040689365 193.38987592994744 0.6865106961332935
2.0154658293965206 12.359929882720555 32.82403567863262 204.2811168139548 2.6755826883292255
