M[M_sun], R[km], Lambda[1], P_c[MeV/fm^3], rho_c[fm^-3]
0.23841724892012095 16.20908015294055 2780876.1263280716 3.453507347168396 0.169602847481901
0.2484193846221506 15.866097432014122 2282020.659216838 3.635633991132863 0.17197955277512306
0.25870670928799444 15.562602756881939 1881310.680795698 3.8249419506316276 0.1743770611747591
0.2692741255968409 15.293206388308116 1557781.6559769497 4.020548685342013 0.17676993843898983
0.2801317054909972 15.053492812243748 1295120.5972366377 4.222763909961174 0.179149680696349
0.2912672486910377 14.839492136946268 1080816.954985799 4.432962833705535 0.18155322743521715
0.3026926518446192 14.648072831100238 905217.1363085518 4.651493288510835 0.1839844206395131
0.3143991075274364 14.476591765613977 760695.732192971 4.878722697533832 0.18644490838668445
0.3263911142976773 14.322759380125866 641244.0054403617 5.112000139820999 0.18887568491636517
0.3386667725555794 14.184579839460136 542188.88523694 5.354454325054837 0.19132756658248534
0.3512250608199471 14.060328119242554 459734.2387106737 5.606612041332694 0.19380944458809157
0.36406365235764887 13.948460252567678 390883.74697615707 5.86888619514322 0.19632688211870117
0.3771965049316479 13.847806572246126 333142.43141212343 6.13823870598409 0.1988211331851752
0.3906082802178856 13.757160668911917 284661.56428407005 6.417963291239988 0.2013443618004721
0.4043029980966585 13.67556691232236 243785.4060266867 6.708933253919666 0.20390213121624834
0.41828303617104456 13.602169869824516 209241.78888257916 7.011342403219629 0.2064875841950068
0.4325444187356769 13.536174226171799 179970.59239821346 7.321628097132731 0.20904812321796987
0.44709159107818297 13.476801856903567 155102.14401981505 7.644465561070623 0.21165310974369364
0.46192522738131686 13.423591355763339 133933.0792183906 7.980389006238423 0.21430254318723327
0.47704112601325804 13.375876448026782 115860.81854250086 8.327607941678863 0.2169609397052473
0.49243739843326295 13.333250275900495 100415.13434591526 8.685801047364876 0.21961464464327657
0.5081168232818402 13.295276903801044 87174.37017501859 9.058605847118647 0.22231655852084803
0.5240726096913969 13.26134031180375 75805.54123942895 9.446628251735362 0.22506944087024588
0.540314428570742 13.23132468558096 66019.67132236167 9.844648549345754 0.22779879542634618
0.5568271606526968 13.204859974254008 57588.74079084198 10.25845379959592 0.23057228315337272
0.5736260156542266 13.181580920092863 50308.025890853525 10.689197117847481 0.23339634663526637
0.5906966313527726 13.161225960816214 44008.49174549315 11.134132812397151 0.23622721874456104
0.6080403207154507 13.143623749074527 38553.782725729536 11.593620718220587 0.23907303213695674
0.6256484637190917 13.128263487396554 33819.62393611363 12.071969944755837 0.2419781973579743
0.6435290256243696 13.115222630274943 29704.742878893052 12.569142048684776 0.2449344062866554
0.6616812040072255 13.104310768300172 26123.524689140864 13.079556184727359 0.24786664208195333
0.6800840625987485 13.095169305124829 23001.099657355586 13.6109471781501 0.2508575136927356
0.6987419720408814 13.0877357410209 20279.65360922859 14.164222638744853 0.25390890314711756
0.7176718752691575 13.081892552223223 17897.287144521073 14.733704772939411 0.2569598565578862
0.7368492493543287 13.077397522476831 15700.310759792697 15.324342700456697 0.26005589497175907
0.7562653035998916 13.074164555176665 13988.672574280348 15.939260828331822 0.2632177384664183
0.7758996051878864 13.072200527942211 12393.754827996541 16.575928333020638 0.2664084189281237
0.7958197420123954 13.070909044288875 10980.271712858459 17.232717518530382 0.2696090354472908
0.8159509254268631 13.070720529259654 9743.424138900384 17.916584757873935 0.27288172628699164
0.836309808245253 13.071347425420324 8654.365313049686 18.62856314870339 0.2762279992941521
0.856877160331939 13.072560450236091 7694.596856856195 19.359578682540157 0.2795621154060121
0.8776720848440345 13.07460385100651 6848.487399610866 20.1205384908963 0.28296581842844254
0.8986604069016472 13.07684783143533 6100.382059643309 20.912819713338752 0.2864422830648737
0.9198565728893446 13.079776579637803 5439.55470253688 21.731638546692473 0.2899458825760709
0.9412331629290922 13.08289146965791 4854.240748691234 22.579070584136836 0.2934920583838274
0.9627986221357403 13.086355804500327 4336.416702533828 23.461361022835195 0.2971217183518452
0.9845432938444166 13.090045041949663 3876.8509684814853 24.37967222848861 0.300834283493643
1.0064507970845609 13.093882619630078 3469.149139810813 25.324171480734663 0.30453628692962253
1.0285035499911235 13.097695358692299 3107.015256337988 26.30756682414755 0.3083250787013292
1.0507117846066398 13.101581132686663 2784.9550162923256 27.331362977333594 0.3122024407686784
1.0730455945865052 13.105341339917505 2498.4038251179427 28.392721310528618 0.31614117297654337
1.0955138068816939 13.10906758287266 2243.280071917053 29.490022375951234 0.3201231057013933
1.1181110709570012 13.112667790607208 2015.6374600582776 30.632404398671788 0.32419390122948527
1.1407850193178866 13.11592835811716 1812.822968698614 31.82172343024981 0.32835502147167217
1.1635615634217151 13.118973568373693 1623.9182600428926 33.053363421921446 0.3325736341030224
1.1864088518914664 13.121633649069286 1469.6275255138526 34.32984842956537 0.33685992979811397
1.2093124307754615 13.123926004640088 1324.9171060982399 35.658910957854076 0.3412520826833869
1.2322774821350964 13.125810120234146 1195.2351674738363 37.04257427772154 0.34574859118988827
1.2552967467815226 13.127322659045163 1079.1931509696572 38.478312511758276 0.3503136829646442
1.2783107595726206 13.12816158707697 975.1483310783262 39.96598781406355 0.35495096448551144
1.3013401264091669 13.128482201394498 881.8287995274045 41.51522611956387 0.35970566441371044
1.324373662379973 13.128290710321275 798.0533345596234 43.12849445868003 0.36457991045455773
1.3473847082962374 13.127404672258203 722.7574364484371 44.8083877611594 0.369575160603642
1.3703548986962193 13.125846848297362 655.105854234618 46.54857026598272 0.37463242885917525
1.393282545996474 13.123581958164738 594.1998303540706 48.35922037219863 0.3798110131656692
1.416115867530123 13.120531559172807 539.4076254190765 50.245479780994856 0.3851252628505352
1.4388795118942994 13.116682253911982 490.01662055089037 52.210552614531004 0.3905779364808007
1.4615424012958524 13.112080026323273 445.49967143549844 54.257833138146175 0.39617028254209047
1.4840882621457105 13.10664927459833 405.35472806551024 56.387485562804805 0.401880528850914
1.5064688761296663 13.100197854815844 369.09261455363196 58.60098994777153 0.40771699691691604
1.5287186620878912 13.09284913229918 336.31974874634096 60.90860546815677 0.41371461474954324
1.5507815497239033 13.084611451207252 306.7222196208928 63.31460147678221 0.419876364529249
1.5726441274289618 13.075296179546553 279.9330092647602 65.82351088246477 0.42620289055947486
1.5943023137693757 13.065042981565917 255.67258288931828 68.44022026414602 0.4327005906687062
1.6157133290834615 13.053623214684984 233.71150212594577 71.16981135968099 0.43938396528228885
1.6368979885559438 13.041234831622859 213.78366510546212 74.01774721835126 0.44625997782364346
1.657811412498933 13.02780845425578 195.7378607853737 76.98913141762091 0.453328720049431
1.678414240401155 13.013084113012532 179.33119838558366 80.08712813411255 0.4605800549471213
1.6987027217374646 12.9971562968422 164.4365613312535 83.32289218054942 0.4680539561496417
1.7186747021253186 12.98026727318719 150.9158219908374 86.7035284145311 0.47576050547887405
1.7382731795669883 12.961868183307889 138.5987354074072 90.23659507337467 0.48370423862245726
1.757506573678301 12.942429526242538 127.40974827054016 93.93018477758001 0.4918930340549102
1.7763620152087527 12.92165680288385 117.19934321839416 97.79300243753372 0.500346645894834
1.7947979448190938 12.899689334248029 107.91430170735869 101.83433872927172 0.5090806932104828
1.8127952510439196 12.876342009016788 99.44454080065333 106.06412571945346 0.518102071449665
1.8303417989839987 12.85158093748507 91.71731044989622 110.49303110677621 0.5274239818859479
1.8474139066068556 12.825670229247214 84.66710111234606 115.13252942917681 0.5370705721963155
1.8640116293722908 12.798349436883322 78.22252396810914 119.99493522642526 0.5470612655143853
1.8800700353836288 12.769492658216214 72.32996607650014 125.08811226573671 0.5573844487393269
1.8956195416735722 12.739287618294513 66.93538777279015 130.42929125572059 0.5680761638225159
1.9106002501597306 12.707782775661657 62.0143457387476 136.03471782007557 0.5791688860306308
1.9250127433553625 12.674656909902069 57.494198486126926 141.92080206457504 0.5906805799480145
1.938855819740545 12.640370371933283 53.36355700255655 148.10523488503287 0.6026306676347556
1.9520481929795273 12.604320113528347 49.5734570945175 154.60707278054304 0.6150546706834965
1.9646393565497702 12.566862207427652 46.09284319063284 161.44322459784598 0.6279714752927469
1.9765700346542534 12.528054857483088 42.907774347228376 168.6273721477847 0.6413690552230027
1.9878508866158064 12.487751023393477 39.97651448481072 176.19396674319182 0.6553290203379103
1.998442353064428 12.445774965399504 37.2833040079316 184.1689109592718 0.6698908889117576
2.0083441132729742 12.402498420696336 34.81036819125723 192.57060601547292 0.6850460200903926
2.01753516568436 12.357609686289523 32.532228894834795 201.42635849134936 0.7008389623842655
2.025989810100544 12.31121480190979 30.43637004083863 210.77961212185576 0.7173542107653862
2.033701284806363 12.263355573700174 28.509705774937995 220.65099050981627 0.7345734813883112
2.0406453437291225 12.21390766718221 26.733888806402202 231.08162903952274 0.7525741526759778
2.0468303517994912 12.16295904805379 25.09483838556225 242.1176010368853 0.7714271180587906
2.052226267866866 12.110574633551938 23.586598973339434 253.78571588328464 0.7911161291405662
2.0568250525959115 12.056672416698559 22.195514446907115 266.1527554098226 0.8117834583677039
2.0606025014924727 12.001275556781186 20.911620529962242 279.2480940044303 0.8334113484521948
2.0635712899949707 11.944375013310005 19.72680810424816 293.14527178663315 0.856124240139654
2.0657105378031746 11.886118647204777 18.633412230701374 307.89359041611687 0.8799691826512738
2.0670132765117644 11.82635044017849 17.62451371968636 323.55944727553776 0.9050085080017707
2.067466509067165 11.765211242514878 16.692748210028572 340.22328494999624 0.9313723834209577
