M[M_sun], R[km], Lambda[1], P_c[MeV/fm^3], rho_c[fm^-3]
0.23841724892012095 16.20908015294055 2780876.1263280716 3.453507347168396 0.169602847481901
0.2484129906638027 15.866312439529088 2282449.347787357 3.635515365401977 0.1719780438109616
0.25869065617442627 15.56302155140433 1881797.4455663436 3.824697936540939 0.1743740761253403
0.26925356534470124 15.293796338261604 1558354.6573725373 4.0201555566494696 0.1767651292553403
0.28010290409905 15.054121196658214 1295760.2433572903 4.222225559752483 0.17914338552588974
0.29122972309989126 14.84005386532254 1081411.130000281 4.432271839186177 0.18154545235118763
0.30264720654159755 14.64878737035376 905825.3866097374 4.650641835763926 0.18397519896042971
0.31434783082236234 14.477250877477076 761240.6229287806 4.877702654265581 0.18643427942397203
0.32632912937911834 14.323498640093439 641775.8917369082 5.1107520003252205 0.188862679165949
0.3385944821321301 14.185271061347384 542698.5435982952 5.353014019935399 0.19131319505666838
0.3511418571259027 14.061023119299334 460193.14384001744 5.60497054586034 0.19379366810240892
0.36397547409726416 13.949152075238418 385617.85078155325 5.867033825678633 0.19630972885549927
0.37709371656548957 13.848485563260232 333581.51508653833 6.136079113153688 0.19880113498020743
0.39049392210756 13.757800255565781 285015.6698367561 6.415564977031193 0.2013229858110406
0.4041766288526391 13.67631390898157 244125.15723357533 6.706285472988415 0.20387949396102095
0.4181436868875658 13.602831330311234 209548.0009051083 7.008312977324649 0.20646168405864437
0.43239920172109086 13.53685465319454 180239.10456736144 7.318317815354567 0.20902083551832815
0.4469329956774625 13.477464985241602 155354.18583325754 7.640861462631576 0.2116244553219791
0.46175209310787385 13.424157547914112 134160.87197166428 7.976477624242389 0.21427259665143825
0.47685333356448417 13.376437709422461 116070.78512726049 8.32320569218437 0.21692723496298505
0.4922368322075446 13.333734891867481 100595.97608261426 8.681054334131533 0.21957972215538532
0.5078986062865753 13.29566233961627 87340.93404931239 9.053499270078593 0.22228029339513594
0.5238457187666684 13.26178990072489 75953.35343912116 9.441144991112097 0.22503184036983362
0.5400728356447982 13.23171608187834 66153.4184589264 9.838544271266247 0.22775693640737646
0.5565742869826821 13.205285833725009 57711.92574174336 10.251927670711444 0.23052915713967628
0.5733476908620854 13.181864708691773 50415.840837081705 10.682230364709845 0.23335202115769452
0.590405150728009 13.161548066350978 44107.35892739554 11.126421262404076 0.2361781545493026
0.6077293248533984 13.14381252677692 38644.51685035907 11.585416551136042 0.23902258050273717
0.6253279346861813 13.128551327440354 33898.34580145169 12.063249752719514 0.24192634668221458
0.6431944459983432 13.115563221546484 29778.256867120344 12.559533454847507 0.24487727313161844
0.6613156502866311 13.104429397070945 26189.496994271223 13.069370826058526 0.24780822191264595
0.6797138241821158 13.0953296425389 23060.83452739645 13.600158795116146 0.2507978075871447
0.6983531577599452 13.08785747378096 20331.52207778799 14.152802628819291 0.25384772138891776
0.7172661179365019 13.082025408223085 17946.288311118733 14.721187326870979 0.256892795376361
0.7364233838792764 13.077445207056071 15856.218797271711 15.31111833945946 0.2599872802790613
0.7558248634587215 13.07419290783923 14027.025197496947 15.925295602231706 0.26314775126943907
0.7754622776412776 13.072068684403703 12421.626975140138 16.56066470117351 0.26633192472738215
0.7953436082978205 13.070918026745835 11012.089532847405 17.216626464618642 0.26953104059026023
0.8154549268484388 13.070717958039898 9708.025983455083 17.899625348746227 0.272802005738484
0.8357939542904679 13.07134821397486 8680.481548058591 18.61019552221905 0.2761421600773428
0.8563410810190311 13.072622286921584 7718.632128408973 19.340113738510542 0.27947333701417004
0.8771200642392981 13.074512272123807 6869.687763000563 20.100052187767666 0.2828754204608132
0.8980853568323935 13.076835182878956 6119.52976217358 20.891261365199995 0.2863500382178764
0.9192637806374189 13.079720768892832 5456.942140590576 21.70820275269407 0.28984560442777646
0.9406293642279961 13.082864540151796 4870.078601514117 22.55443286180404 0.29338961383960144
0.9621678392798443 13.086287663341755 4350.765073020345 23.435457526781175 0.2970169952297611
0.9838960048383147 13.089964045649678 3889.6227551733127 24.351556900048926 0.3007206183356086
1.005783595118027 13.093762481257796 3462.1218310371946 25.294636627226108 0.30442054262865
1.0278201633465702 13.097593234120426 3117.656071293475 26.27653873493235 0.30820684795164366
1.0500186562422469 13.101530961622021 2794.5830960288995 27.298760728570954 0.31208145285796624
1.072329724153778 13.105290165335022 2507.278675348101 28.35740855292677 0.316010126287254
1.0947807866988046 13.1089696327412 2251.169207068337 29.45293774488173 0.31998899847768614
1.1173378063991815 13.11248704015788 2022.951062224257 30.59345235503111 0.3240570637415858
1.140008362537731 13.115789587029543 1819.3904645610392 31.780802661052924 0.32821485967521713
1.1627619538204563 13.118833436542465 1637.4368270541138 33.00911297723046 0.3324220675038712
1.1855913110694976 13.121535323048318 1475.1301084567579 34.28337775699417 0.33670455482376577
1.208483309225307 13.123862069739678 1329.8458740994165 35.610092983932724 0.3410926619337011
1.2314415057312544 13.125797222411332 1199.724297859048 36.991277613921824 0.34558548765720176
1.254427840165592 13.127228346746303 1083.3249893188067 38.42291112466953 0.3501375280009376
1.2774379303482999 13.128171327901796 978.8627944114305 39.907788218317656 0.3547700443422299
1.3004440401435615 13.128495554738976 885.25203687917 41.45406413973061 0.35951964234133826
1.3234654151541188 13.12831410653901 801.1621959851328 43.064195175742064 0.3643884955080155
1.3464773675512653 13.127591392739221 725.6551906710779 44.74076901295121 0.36937864894590244
1.3694350889603493 13.12596492276331 657.6190529882085 46.47563695364838 0.37442047216830115
1.3923368781210117 13.123717527483183 596.5738437640946 48.28252659192337 0.379592572511068
1.4151590595776147 13.120688642220433 541.5975850789832 50.164797584428776 0.38489992499001247
1.4379137543049791 13.116914337557896 492.0370508718983 52.12563946968253 0.39034536867705705
1.4605604183735306 13.112279246094907 447.34890986310506 54.1684343365462 0.39593057714653446
1.4831066960667647 13.106930625934181 407.0239013783922 56.29113632137985 0.4016221872108255
1.5054754962738832 13.100518093671113 370.63927438038655 58.499539928128335 0.40744983513097177
1.5277141562914658 13.093187366235455 337.73604654716104 60.80173574511318 0.4134380695806189
1.5497759438540908 13.0850004564185 308.008538423643 63.201972363235626 0.41959003045142834
1.5716340817905041 13.07573354119121 281.1117856319988 65.70476313130911 0.42590659309179163
1.5932964021684466 13.065587517250151 256.7637329486394 68.31496791845325 0.4323930437976932
1.614693431291188 13.054205761596531 234.72174777696577 71.03763695117495 0.4390644530829999
1.6358840134664066 13.041863105679209 214.6994159288138 73.87820536918444 0.4459280162544487
1.6567833103791096 13.02848393777694 196.58145317210386 76.83884791077399 0.4529712047301568
1.6773834506797323 13.013821103033012 180.1188678796002 79.92841437769881 0.46020863751513225
1.697679269688088 12.99802124769923 165.1610042064778 83.15519669422443 0.4676671002689258
1.717638171048074 12.981057971966328 151.58240139366637 86.52625516650683 0.47535721304527434
1.737253434879112 12.962828516212515 139.2095365008504 90.0491065389362 0.48328384752163206
1.7565371489634118 12.943594457399191 127.95967370924278 93.73179933163945 0.49145459433411465
1.7753557880188857 12.922755093543921 117.72435869862744 97.5829845566956 0.49988839857189793
1.7938143344492878 12.900822575206774 108.38711756836281 101.61189363341066 0.5086013391381179
1.8118283302149374 12.877609379436135 99.8812703231172 105.82840101687611 0.5176007455073351
1.8293960645042882 12.853122906537411 92.12781600364328 110.24311155721207 0.5268992090483956
1.8464832755506546 12.827077050608365 85.03105324265556 114.86742537593322 0.5365202678407991
1.8630752187616695 12.79984937363463 78.56974030499646 119.71357637525422 0.5464837179743164
1.8791776718418292 12.771266142806864 72.65352941490009 124.79356464392265 0.5567937801015931
1.8947332876864127 12.741165523598225 67.24112771716796 130.11625468718748 0.5674548863478385
1.9097401141612627 12.709641588009056 62.286520300554685 135.70185563050234 0.5785149081890982
1.9241761544072047 12.676723551757885 57.75570310824252 141.56667262179482 0.5899924513149847
1.9380277936211874 12.642371040131243 53.60212373625624 147.72827957538877 0.6019055642587271
1.9512630323900864 12.606532495876367 49.79404673037966 154.20559949718367 0.6142896397470738
1.963897684459503 12.569299936537039 46.3000665937381 161.01908731325292 0.6271767033513057
1.9758500464897628 12.530426062621114 43.09305384880477 168.17637946898438 0.6405338338950018
1.987163654017708 12.490216121131308 40.15158556765869 175.71271295209272 0.654445408202907
1.9978130941677397 12.448546806852915 37.44568576010829 183.65506531004007 0.6689553755657746
2.0077326543002063 12.40523134089494 34.95802634599384 192.02715505786097 0.6840740553287373
2.016961643688567 12.360489658679866 32.67217325564266 200.84530585279168 0.6998079909793563
2.025472394670174 12.314287943428608 30.56821662176847 210.15797489652383 0.7162598233442592
2.033209444032009 12.266437421443985 28.629409923506213 219.99148101191207 0.7334314464661488
2.0402054224076602 12.217168987301351 26.84639861046641 230.37506335871143 0.7513596776842574
2.046429973934959 12.166372689172487 25.200340053340454 241.3660744316478 0.7701550900212947
2.0518874647612138 12.114146612924939 23.684052255693615 252.97966094692376 0.7897618434239178
2.056535261138154 12.060376202683926 22.286566429171703 265.292160006765 0.8103550791790044
2.060368807729816 12.005085046443721 20.995616022969514 278.3251871966116 0.831894115658643
2.0634031419338874 11.948418837045782 19.805584043195957 292.15971139080335 0.8545253809678052
2.065584937452534 11.890206619145578 18.707686385751504 306.8330421664887 0.8782603262927516
2.066952896727219 11.830557206121854 17.691143277501943 322.4245178973611 0.9032045220658169
2.067471594096474 11.769669700441122 16.757564346324738 339.00704080310715 0.9294635706448957
