M[M_sun], R[km], Lambda[1], P_c[MeV/fm^3], rho_c[fm^-3]
0.23841724892012095 16.20908015294055 2780876.1263280716 3.453507347168396 0.169602847481901
0.24841342182519294 15.866228459472364 2282104.774885434 3.6355268741357305 0.1719781902064076
0.258692406323449 15.562955762986112 1881618.306388811 3.824721609617261 0.17437436572051293
0.269254588179923 15.293718044992941 1558311.695286674 4.020193695283344 0.17676559580916332
0.28010370185986516 15.054169592223356 1295762.5858118592 4.2222777857462885 0.1791439962278605
0.2912333208390538 14.840019883829376 1081420.0091008537 4.43233887210413 0.18154620660690923
0.3026516951595261 14.648683560834913 905768.6817293635 4.65072443309341 0.18397609353275732
0.31435337483893616 14.477186997909186 761162.0697109386 4.87780160435845 0.18643531049479053
0.3263340358485788 14.323460487595835 641771.2103353183 5.110873074389252 0.1888639407709731
0.3386016631506336 14.185178825864865 542662.8131405314 5.353153732315144 0.1913145891224433
0.35115018819222554 14.060939641445978 453210.0342516128 5.605129771378758 0.19379519842591814
0.36398145278816463 13.94911748932498 391263.65870428574 5.8672135030463135 0.19631139269915365
0.37710300410966935 13.848441756724698 333524.64486815914 6.136288586032493 0.1988030747354736
0.3905043140946627 13.75776093887248 284996.9545172249 6.415797601277184 0.20132505917299026
0.40418897761478456 13.676221678073974 244082.7046404627 6.7065422901816705 0.20388168962467346
0.41815742962313485 13.602754433362993 209515.2819374977 7.008606804731081 0.20646419614184344
0.43241136842961525 13.53683859806119 180229.9325280131 7.318638878355508 0.20902348214218763
0.446949171414782 13.477357887140505 155324.47530006766 7.6412110175435775 0.2116272344619028
0.46176878290208645 13.424123789951507 132644.5747348508 7.976856976435059 0.21427550106834978
0.4768704608113777 13.376392168818898 116050.0280038936 8.32363264189663 0.21693050379861753
0.49225689265619615 13.333737439645889 100577.21263902356 8.681514684851182 0.21958310904472167
0.5079195915414286 13.295619253382117 87324.99703232109 9.053994514508707 0.22228381044802195
0.5238682392804537 13.261786015556089 75939.7457972279 9.441676759580254 0.22503548687906963
0.5400964931620051 13.231722889918295 66140.29457613232 9.839136251889498 0.22776099581093173
0.5565992390414012 13.205215825624686 57700.61824806183 10.252560552981429 0.23053333935702544
0.5733759686036051 13.181800629066473 50405.22076238258 10.682905968237195 0.2333563196376905
0.5904360589786092 13.161513599153022 44098.82386263027 11.127169074371537 0.2361829124504277
0.6077632141008069 13.143788000022914 38633.13909009022 11.586212123227295 0.23902747288385637
0.625357111234016 13.128520050664152 33892.902936860206 12.064095353681342 0.24193137466567083
0.6432282850359435 13.115500546807816 29772.569985561906 12.560465180929558 0.24488281321912755
0.6613539514223841 13.104517466185278 26183.46521495621 13.070358467276895 0.24781388672711818
0.6797496400344452 13.095305868382388 23055.214781157774 13.601204896485461 0.25080359702181887
0.6983912943244149 13.087821558548155 20173.509417278685 14.153909962427155 0.2538536538370929
0.7173028460142177 13.081936600919912 17940.440025141783 14.722401041223506 0.25689929775057296
0.7364644723964344 13.077484849726671 15852.923812514546 15.312400581729085 0.25999393320235287
0.7558663167312493 13.074189708561205 14023.40375925586 15.926649662634748 0.26315453718836873
0.7755076251388721 13.072067887203042 12418.349049551025 16.562144615045657 0.2663393413651752
0.7953882695554368 13.07098834922641 11009.517492132143 17.218186583793084 0.26953860263514734
0.815502236104149 13.070725310649491 9769.439247559068 17.901269639997466 0.2728097350054336
0.8358453434051684 13.071288054881908 8677.476663194562 18.611988357812862 0.2761505876019014
0.8563996205889965 13.07261627456049 7716.088090311293 19.342000878666 0.27948194414234506
0.8771727545759384 13.074470224535192 6867.219904476625 20.102038325456753 0.2828841845022998
0.8981422687669812 13.076803462924646 6117.853101795949 20.89335141199528 0.28635898120579034
0.9193220056369659 13.07971226977443 5455.222317311899 21.710474751648388 0.2898553259609185
0.9406892825472465 13.082868507874029 4840.697685342202 22.556821353682565 0.29339954527557505
0.9622279821984135 13.086263408976606 4349.226925779491 23.437968697974494 0.2970271474380539
0.9839601141644155 13.089972798059472 3888.436215047384 24.354282415909307 0.3007316371003959
1.005846711307003 13.093782672606421 3479.821652059929 25.297499717715514 0.3044317628098241
1.0278873170243432 13.097597664222825 3116.556130955616 26.279546541903773 0.3082183090271444
1.0500810903733895 13.101487280409959 2793.564885782245 27.301921092632906 0.31209318106259804
1.0724133164379788 13.105380917726482 2506.352146329555 28.360831565250056 0.31602282918736224
1.0948556997398202 13.10903113527091 2250.3847115710664 29.4565324671577 0.32000199788500194
1.117410495654798 13.112467472578235 2022.2159836529402 30.597228043277724 0.3240703276334505
1.140090377188437 13.115840104950129 1818.674603879195 31.784769130504177 0.32822844562422987
1.1628356558915034 13.118806404357004 1636.97858694951 33.01340206420623 0.33243675848225396
1.185664991625051 13.121517627399921 1474.5850629642173 34.28788198646969 0.33671961474221535
1.2085667027704958 13.123901748515925 1329.415528461252 35.614824665868085 0.3411081137892538
1.2315282897009872 13.125825810752891 1199.369015549211 36.996249476041804 0.34560129625401353
1.254513722576461 13.12724765966225 1082.894791317613 38.42828066429666 0.3501546010582714
1.2775234091541385 13.128162102419104 978.560573299686 39.91342888475076 0.35478757900318764
1.300534261545507 13.128473320498589 884.9162933518481 41.45999183548515 0.35953767122548586
1.3235687709403023 13.128338916229263 800.8368384419311 43.07042684358979 0.3644070467937133
1.3465823424215264 13.127670409315993 725.3529900820876 44.747322296855074 0.36939769391076366
1.3695244206395814 13.125978775406846 657.4501142395966 46.48270507032328 0.37444101332532764
1.392428130340512 13.123705684596963 596.3547866255024 48.28995903217996 0.3796137417259522
1.4152479007937624 13.120624051265299 541.3797333904661 50.17261642502095 0.3849217622835642
1.4380047668004174 13.116896771715023 491.83851714347503 52.13386819917965 0.3903679062659093
1.4606547586361691 13.112283600280831 447.1826462664629 54.17709762216752 0.3959538060519505
1.4831967676228086 13.106842973044945 406.8437290949864 56.300472830067186 0.4016472212321765
1.505572594969197 13.100457263998067 370.47536112204267 58.509370554307985 0.40747572342213567
1.5278243358914936 13.09324234254162 337.5939880289237 60.81209137202916 0.41346486668005206
1.549873579065929 13.084959218316431 307.8755036188135 63.212885883685544 0.4196177756117639
1.5717293830511276 13.075729604702975 281.008913002005 65.71626933117092 0.4259353031755493
1.5933859255570288 13.06545233888588 256.6422405672108 68.327104168814 0.43242284336594594
1.6147995167389373 13.054164002266816 234.61443186322023 71.05044367299824 0.4390954114500673
1.6359863588446504 13.041843765795727 214.6118310694474 73.89172568442898 0.44596018026181555
1.6568810968854968 13.028377283479482 196.4917663475381 76.85340846162728 0.45300584339474703
1.6774869804340689 13.013694161681189 180.03191918561816 79.9437914079515 0.4602446224052711
1.6977826340982134 12.998020773873636 165.0957019059359 83.1714435929181 0.46770458015846117
1.7177519689832141 12.981063930699845 151.51176407941222 86.54342963375227 0.47539628455080823
1.7373577671719775 12.962796523609533 139.16270990217538 90.06727028957467 0.4833245747007574
1.7566124192018848 12.94335975988605 127.90249323882674 93.75101834736334 0.4914970691227666
1.7754599699626774 12.92265409574418 117.66915478774473 97.60333003405789 0.4999327912707382
1.793909397591257 12.900772571482852 108.34669750522397 101.63344250202508 0.5086477754863107
1.8119273455394918 12.8774950395558 99.83625421376307 105.85123577978581 0.5176493091873755
1.829491335576319 12.852952229142161 92.08201293127468 110.26732079731634 0.5269500428132878
1.8465798554841946 12.827010564283876 84.99956715304263 114.89310487496095 0.5365735734767919
1.8631625840356603 12.799614489274315 78.52871435928542 119.74082971518658 0.5465396611208394
1.8792498923633008 12.770967660311596 72.61755352070836 124.8220951827433 0.5568509935816925
1.894807475593844 12.740861890645261 67.20848142499268 130.14657529308116 0.5675150630535459
1.9098263124575343 12.709371769794327 62.25784885166596 135.73409565152568 0.5785782504971773
1.9242643891398852 12.676600318835442 57.73124280631772 141.60097155681842 0.5900590994848937
1.938107442845852 12.64218023088643 53.579900524617806 147.7647882365371 0.601975791558292
1.9513354954176603 12.606315111928293 49.772039194211764 154.24448160624013 0.6143637318910209
1.963957147159514 12.56896924327767 46.27850671158809 161.06052048144878 0.6272549330663058
1.9759214022170546 12.530241437617581 43.076522434631244 168.22005537099918 0.6406147200082298
1.9872419922693914 12.490070687852512 40.134439527886265 175.75931796408358 0.65453097792705
1.9978835033845992 12.448296914631756 37.42974847701227 183.70482490752656 0.6690459684658194
2.007798001447875 12.404958057525441 34.94182699966225 192.079780468423 0.6841681761393045
2.0170127072888406 12.360207382571627 32.65951982725294 200.90157049480482 0.6999078222737585
2.0255245225862906 12.3140195830913 30.555737632290068 210.2181672962043 0.7163657915880731
2.033254928981447 12.266159735476254 28.620747158766328 220.0553389877363 0.7335420256749117
2.0402531384177367 12.216863043813916 26.834035351630384 230.44347505678448 0.751477266605864
2.046481204255436 12.166132270635412 25.191465883466098 241.43904361709514 0.770278955030098
2.0519207929505114 12.113815238440182 23.676097500552583 253.05770030291927 0.7898929605232538
2.0565575338942113 12.059987175026174 22.27788110701382 265.37594035339055 0.8104948643869141
2.060394424349529 12.00474830540584 20.98791621655259 278.4145333878458 0.8320409982801288
2.0634139421625264 11.948025731590608 19.79887360892025 292.25511997848776 0.8546801608231421
2.065599793534815 11.889766074436976 18.69939462503554 306.93570557326996 0.8784257473525923
2.066964474739471 11.830163069068927 17.68469463951072 322.5343777249248 0.9033791457804392
2.0674633865572916 11.769128563860125 16.74964172435743 339.124929360604 0.9296488773331296
