M[M_sun], R[km], Lambda[1], P_c[MeV/fm^3], rho_c[fm^-3]
0.23841724892012095 16.20908015294055 2780876.1263280716 3.453507347168396 0.169602847481901
0.2484158302362482 15.866189255030724 2282197.3038349836 3.635574019276243 0.17197878991042534
0.2586980647452871 15.562857577470348 1881532.159527936 3.8248185866597035 0.17437555205062757
0.269262922855309 15.293570510273197 1558119.4020481687 4.0203499325087595 0.1767675070751792
0.28011826773196874 15.053786774960546 1295329.2011040947 4.222491735005438 0.17914649803251154
0.29124603881469363 14.839878003923834 1081246.5038631225 4.432613482355954 0.18154929652690643
0.30266933640669497 14.648397223067997 905528.934029916 4.651062808697942 0.1839797583177333
0.31437290677159146 14.476963513674509 760966.8090236629 4.878206976163913 0.18643953451345624
0.3263332550236078 14.32427163768428 631554.4248020687 5.1113690881435945 0.1888691092886859
0.3386303660993413 14.184869845998302 542470.9485582274 5.3537261086313155 0.19132030035744058
0.3511828173040774 14.060575951049751 459944.56299078104 5.605782095578537 0.19380146794269207
0.3640182552777516 13.948857632218497 391107.77198500914 5.867949622250165 0.196318209290926
0.37714481312354603 13.848143034358417 333359.8655431622 6.137146784944497 0.19881102180656207
0.39054902759781607 13.757502892533568 284827.5851061931 6.416750658514772 0.2013335536985881
0.4042381141551958 13.67588104315508 243957.371818739 6.707594474567315 0.2038906852958043
0.41821396038623376 13.602512397727612 209393.15967398608 7.009810635879195 0.20647448831995718
0.4324716231520148 13.53649949777046 180107.43787809962 7.319954306675304 0.20903432563385882
0.44701235256053606 13.477143147272766 155232.89036194384 7.642643191963688 0.21163862097936248
0.46183676069075463 13.423848532528307 134043.4322098145 7.978411246938416 0.21428740095880056
0.4769457208598589 13.37616012680275 115969.45081681217 8.325381950238665 0.2169438969483877
0.4923365832676883 13.333511116401219 100508.81606427694 8.683400859422662 0.21959698599607624
0.5080054327386637 13.295486660930333 87261.43528125231 9.056023673185251 0.22229822082387987
0.5239562613025097 13.261604727319066 75882.77230759186 9.443855584261954 0.22505042778813292
0.5401943251707888 13.2316521325442 66090.93640904466 9.841561817076109 0.22777762869983953
0.5567021317712423 13.205076573811667 57652.6587345248 10.255153726738534 0.23055047558723876
0.5734865477968374 13.181752346472376 50364.9436177852 10.685674208431825 0.23337393237151877
0.5905507696295582 13.161341042198366 44056.08721101131 11.130233225350002 0.23620240789583666
0.607879156107587 13.143621686190821 38599.765478079156 11.589471994145812 0.2390475195032742
0.6254844332599909 13.128450654776717 33861.17688256144 12.067560243357695 0.2419519770641505
0.6433605050527368 13.115434249466016 29742.00244852302 12.564283025280865 0.2449055143028578
0.6614959085119525 13.104465265942888 26157.71210937692 13.07440545795277 0.24783709905455378
0.6798971727344911 13.09524866634593 23031.213368447683 13.605491464907605 0.25082732016049775
0.6985480766939379 13.087791042033759 20305.80900650949 14.158447470746541 0.2538779631624469
0.717463135665673 13.081899768139225 17921.636626057 14.727374535180079 0.2569259428329015
0.73663601965246 13.07740121768148 15835.173314578029 15.317654921264369 0.260021195381041
0.7560424952727635 13.074180211399815 14007.548659415615 15.932198333932389 0.2631823445398786
0.7756900781689824 13.072019984311655 12404.371116525224 16.568209096897732 0.2663697337185045
0.7955782972732162 13.070983352376238 10996.754280157216 17.22457977835248 0.269569591052585
0.8157045409785688 13.07074691679165 9757.904672942659 17.908007806986976 0.27284140889007746
0.8360495334932243 13.071359460231802 8667.589297891293 18.619335356139928 0.27618512340041346
0.8566031963504763 13.072536104522106 7706.643419106611 19.34973438602342 0.2795172161855344
0.8773934242808195 13.074512752544369 6858.493587252588 20.11017757881407 0.28292009981395466
0.8983705417426404 13.076832251048355 6110.286118835523 20.901916544518055 0.2863956300869564
0.9195571846875357 13.079746621659018 5448.261429873989 21.719785676322925 0.2898951659716873
0.9409195282283817 13.082822114000876 4862.511175322327 22.566609745036146 0.2934402457623075
0.9624794129326003 13.086341829914298 4343.726085600385 23.448259915630477 0.2970687529588197
0.984218066561523 13.090051084467111 3883.4649305284424 24.36545222977794 0.30077679462581186
1.0061114845706278 13.093786632462354 3456.3095334126606 25.309233423583596 0.3044777460947294
1.0281575299165988 13.097676075228756 3112.3544897885554 26.29187341708232 0.3082652798761559
1.0503739045012992 13.101611114971757 2789.7187422135357 27.314873279212886 0.3121412470105906
1.0726923372561734 13.105325920049387 2502.690545121865 28.374860393781066 0.31607489058552113
1.0951528685706617 13.109122892586845 2247.2633639189285 29.471265130672805 0.3200552748502795
1.1177074214481637 13.112511611763212 2019.4275468188107 30.61270248769853 0.32412468894298063
1.1403958942782357 13.115895323993083 1816.0975117381402 31.801025594690383 0.3282841272565419
1.1631449277699992 13.118815474387816 1634.5565765765768 33.030981057782746 0.3324969700415162
1.1859927480625612 13.12152899373036 1472.39832224952 34.306342881903255 0.3367813388575709
1.208894563721321 13.123899842776135 1327.3635114973738 35.63421793162916 0.341171444745419
1.2318584574189517 13.125831487712466 1197.4999256333501 37.016627293910695 0.34566608982608354
1.2548584783470034 13.1272460766577 1081.240673673084 38.450288790300924 0.35022457837907967
1.2778741195019467 13.1281345739229 976.9953126349285 39.936548451640476 0.3548594488383761
1.3008886732917928 13.128486078130583 883.5087615992423 41.484288044140484 0.35961156731415356
1.3239202115776765 13.128342299631097 799.6165750479759 43.095969160874134 0.3644830846758505
1.3469114845243904 13.12752297329138 724.4609431965378 44.77418306544198 0.36947575590249
1.3698854833778509 13.125883067237861 656.3504074174564 46.511676562936835 0.3745252094424038
1.3928107510425147 13.123696430374965 595.3986940465185 48.320424099321244 0.3797005128980724
1.4156331853835187 13.120587325469364 540.477552081066 50.2046655888855 0.38501127261327944
1.4383865325111667 13.11681217503553 491.0571923834838 52.16759777224943 0.3904602878723619
1.4610444075987457 13.11221360117421 446.4523568464776 54.21260875122496 0.39604902219674226
1.4835910303467965 13.106749854773556 406.1821679377917 56.338744235839 0.4017498385189279
1.505987500282436 13.100489497276765 369.88584556040274 58.549667767156826 0.4075818434149276
1.528214495709852 13.09303255029845 337.0293665415394 60.854541034071445 0.413574713029663
1.5502674153206821 13.084751557377235 307.3545176810088 63.25762287966043 0.419731509317762
1.5721446488628876 13.075590973987365 280.52085861792784 65.76343631101162 0.42605299346062037
1.5937897574693207 13.065258087178128 256.2239786124927 68.3768543863514 0.4325450009483146
1.6152246103610721 13.054050560087687 234.22214615360892 71.10294289206222 0.4392223205933249
1.6363953474720139 13.041603572026716 214.24617112982168 73.94715074842617 0.4460920331169059
1.6572814748802747 13.028051611807575 196.14773497696262 76.91309905138091 0.4531478436760898
1.6778942326301354 13.013393078675064 179.71808594993632 80.00682981525559 0.4603921430984146
1.6981827180105797 12.997595434079642 164.79947505612205 83.23804877972755 0.467858231331597
1.7181640200885424 12.980728338357249 151.24682931860744 86.61383824723788 0.4755564624761041
1.737744040780978 12.962380479765361 138.91711054148402 90.14173544730636 0.4834915421887998
1.7570145888869462 12.942968446826335 127.68002086026993 93.82981067201032 0.4916712032920111
1.7758619357610999 12.922245791582704 117.46229845989122 97.6867415426101 0.5001147905383414
1.7942832029404359 12.900167055024903 108.15029557090702 101.72178873229922 0.5088381556117797
1.8122972012318381 12.876910416333322 99.66414686107987 105.94485513654935 0.5178484135312845
1.8298616048740055 12.852286931956113 91.91483743372183 110.36657663055254 0.5271584569423218
1.84695222470373 12.826375893512013 84.84565178917128 114.99839007111125 0.5367921250277925
1.8635367115978017 12.799044908622662 78.39249919959286 119.85256916564045 0.5467690295749317
1.8796155535838093 12.770398460991286 72.49464868868688 124.93907187646535 0.5570855718271452
1.8951537474933966 12.740154875085402 67.09189026636479 130.27089317996484 0.5677617943002571
1.9101637383557835 12.708624434589291 62.14773958271405 135.8662853461576 0.5788379649792549
1.9245992871873747 12.675809728897383 57.63101941304019 141.74160532771597 0.5903323727935623
1.9384244058181277 12.641323054745978 53.484780140878605 147.91448477714272 0.6022637447033886
1.9516549587396674 12.605455240308746 49.685468519891245 154.40391258689291 0.614667536994571
1.964261728752863 12.568151148505978 46.20054620168624 161.22923199540767 0.6275715393867525
1.9762227178867449 12.529360861841111 43.00211992146708 168.39914735682032 0.6409463915702378
1.9875105350108502 12.489010587111407 40.064928572457845 175.95042404887872 0.6548818606810586
1.9981383128842491 12.447237720320667 37.365871932977285 183.90887019344495 0.6694174556788511
2.00803831601092 12.40386528915208 34.88484970379193 192.2947555243876 0.6845515278746389
2.0171024990771067 12.359503706455047 32.63042003136373 201.33716829274167 0.9431037159235895
