M[M_sun], R[km], Lambda[1], P_c[MeV/fm^3], rho_c[fm^-3]
0.23841724892012095 16.20908015294055 2780876.1263280716 3.453507347168396 0.169602847481901
0.24843426387550718 15.865557656577574 2281395.0461952095 3.6358990553433914 0.17198292449212896
0.2587340475357107 15.56182833174211 1880262.0834440442 3.8254872296586133 0.17438373162906767
0.2693202001263257 15.292170559814762 1556518.0027930595 4.021427247125341 0.17678068597546734
0.2801955285515349 15.052219299994594 1293784.9161617628 4.223967096950095 0.17916375010148225
0.2913458646395661 14.83805021939547 1079472.281232183 4.434507279228178 0.1815706055668538
0.30279271689703013 14.646401620767593 903805.0942727441 4.653396501702904 0.18400503343493624
0.31452129207371454 14.47494399419275 759364.0414413563 4.881002900878831 0.18646866835558493
0.32652983847618233 14.321025455390405 640008.3630381293 5.1147904505232376 0.1889047602598661
0.33882848706257085 14.182800457769266 540993.1400360656 5.357674438708062 0.19135969723721694
0.3514068887144625 14.058499124675908 458636.1486758315 5.610282183673024 0.1938447184886662
0.3642718809445119 13.946788334643312 389890.93741901935 5.873028067355215 0.19636523657528196
0.3774248663813827 13.846084826597535 332241.24284703075 6.143067917284287 0.19886585252117894
0.3908621770811003 13.755497541707816 283815.7847302285 6.423326634400278 0.20139216486409547
0.40458355855447087 13.674093305268658 243024.1427978496 6.714854813559139 0.20395275770702817
0.41858663609206787 13.600619109100078 208548.28766428476 7.0181180458881744 0.20654551268546728
0.43287766647325554 13.534664614758567 179342.88930545322 7.329032312228451 0.20910915850473838
0.4474535076793269 13.475393692581173 154537.19451689272 7.652527399939352 0.2117172054765505
0.4623136301643921 13.422271366067383 133423.590862529 7.9891386551917645 0.2143695327259285
0.47745930912053924 13.374719058412131 115413.54647341381 8.337456483432671 0.2170363426468312
0.49288645854719926 13.33206071071206 99997.4691787052 8.696420756927072 0.21969277590176284
0.5085971788987148 13.294194605513367 86806.85346547955 9.070031248382406 0.22239769772816664
0.5245864646410372 13.260302546823723 75466.4952012528 9.458897050105184 0.22515357200860642
0.5408537161872782 13.230365237133206 65719.04932084038 9.858308059163345 0.2278924631251509
0.5574074442324435 13.203980838036303 57319.31669569383 10.273057993543885 0.23066879069702903
0.5742363032063856 13.180812499629598 50065.58748204987 10.704788087977054 0.23349554308778142
0.5913432755537159 13.160499662468226 43789.54841532791 11.151392102662388 0.23633702976677523
0.608717092151769 13.142877337243577 38357.5388570977 11.61198340141098 0.23918595370060422
0.6263666547832772 13.127666439248232 33642.02320481088 12.091488508146714 0.24209425566236256
0.6442839441320088 13.114731240911418 29543.68180445883 12.590651090512795 0.24506230007031074
0.6624717776179091 13.103883795922211 25980.1789452122 13.10235736889207 0.24799742285095921
0.6809171353903175 13.094831886612646 22872.586539078307 13.635099396450503 0.25099117921903
0.699616514475244 13.087454209052531 20161.991090129424 14.189790037959824 0.2540458783727754
0.718591256144948 13.081783294259951 17791.947460279735 14.76173173897198 0.25711000870924655
0.7377931549480097 13.077194554011182 15719.274429993504 15.353953783052164 0.2602095322880091
0.7572537093435815 13.074019173279602 13902.441632672979 15.970532180059907 0.2633744558899323
0.7769538044168852 13.07199671564715 12309.558454892078 16.610110359939156 0.26657972329755864
0.7968921045157787 13.070917360973816 10910.506464447055 17.268754078331312 0.26978370805388113
0.8170664640778464 13.070731075600355 9679.840211635856 17.954567681680835 0.2730602713941358
0.837455211836019 13.07138326766822 8597.21785323566 18.668591920802427 0.2764105680191871
0.8580776666451622 13.072710697840407 7642.958525150146 19.403179224357512 0.27976097474925493
0.8789009602555021 13.074629261166928 6801.573911002405 20.16642881244634 0.28316831429975386
0.899944746265864 13.077113486486573 6058.16224373864 20.961113552755325 0.28664892495595073
0.921176928861567 13.07992429347262 5401.033640299502 21.784143370250405 0.29017054261887865
0.9426052042694264 13.083148081351874 4819.604981282668 22.634270559514828 0.2937215818861423
0.9642148412650269 13.086641933888455 4304.625035130269 23.519399447892535 0.2973563571457815
0.9859827889880252 13.09025616923574 3848.381527658367 24.440848106638143 0.30107462606721497
1.0079411093163686 13.094142656467044 3443.176454356583 25.390355853495144 0.3047956572345488
1.0300387590762092 13.097978690817774 3083.5159825703718 26.37710043029413 0.30859003250902367
1.0522896836785034 13.101854699340144 2763.635304602849 27.404427498278043 0.3124735853697952
1.0746714860323636 13.10568502958934 2479.0158962522664 28.47186863680195 0.31643489104838507
1.0971876251459693 13.10938086660089 2225.533489278522 29.573144784144596 0.32042369694550654
1.1198018258423994 13.112868105943102 1999.6293866348967 30.719716436384022 0.32450062608361957
1.1425333244921048 13.116215141067915 1798.1444771485521 31.91345262526662 0.3286692122606837
1.165338216114035 13.119157785765825 1618.2938426089106 33.1525672521783 0.3329134270086034
1.188223533773183 13.121796866609145 1457.5079140609275 34.43403459825582 0.3372082768822434
1.211168276737595 13.124050844922728 1313.7991656761992 35.76836492503281 0.34160951729408656
1.234176945430399 13.125973487372844 1185.1838256480405 37.157591217399016 0.34611430053218456
1.2572133143338504 13.127363990271872 1070.0618674329487 38.60254691554722 0.35070870027450857
1.2802743867365332 13.128227390592611 966.7881527140036 40.0965034656301 0.35535668741329607
1.303338119988327 13.128521162881738 874.1892688893921 41.65239195970661 0.3601228496309253
1.3264078418863525 13.128238495742789 791.0542811601517 43.27270360476948 0.3650092120692623
1.349451849194824 13.127317687381508 716.3451133701639 44.960049641030835 0.37001591598908135
1.3724477226416678 13.125677136868912 649.2704105658787 46.71217118890516 0.3751078811475291
1.395392286332269 13.123345932910086 588.8923337309077 48.531265838187885 0.3803010362689375
1.4182573408432744 13.120179762473938 534.5352624185392 50.42648229273732 0.3856307860078266
1.4410725544229386 13.116501390534612 485.5841941948876 52.401057514084215 0.3910997085358878
1.4637437320943165 13.11168883274345 441.44356088822457 54.45841319754642 0.3967080987277516
1.4862752436780637 13.105985273192477 401.5929962801862 56.602256659296785 0.4024534675765253
1.5087047022198399 13.09953646116343 365.6693146055366 58.82864992885935 0.408316524125973
1.5309568739819275 13.092090331816852 333.1967514902641 61.148442119354115 0.41433523643107
1.5530273592441162 13.08364469327829 303.84799271616015 63.567379011845944 0.42051899430868267
1.574917682264274 13.07432536717858 277.28624400666257 66.09003760096732 0.4268679237158392
1.5965672362433647 13.063840317075815 253.2556134479592 68.72136465404724 0.4333909176796593
1.6180119307395708 13.05250138824321 231.4905837860157 71.46651292264455 0.44010119768746075
1.6391714337517636 13.039790051979148 211.7442968560484 74.33100837605737 0.44700520705846286
1.6600701579273354 13.026123374957425 193.8459069103784 77.32076166008606 0.4541062825726265
1.6806712347784463 13.011263403038415 177.59865549400175 80.44206892870247 0.46140819936331845
1.7009696088053419 12.99528781563456 162.85085182262807 83.69945955762687 0.4689226575530047
1.7209342755921597 12.978189588098758 149.44102970071802 87.10163274712485 0.4766661833908415
1.7405127799050562 12.959709942877138 137.25056797361137 90.65767216812989 0.484648387361614
1.7597638033559642 12.940235835563504 126.16220175583464 94.37576994862152 0.49287779499367695
1.7785696955376022 12.919138452508651 116.0564579073201 98.26475261198387 0.5013759785101033
1.7969859889604018 12.89698506001452 106.85658916286539 102.33404455835206 0.510157525330458
1.8149527177359068 12.873392785541247 98.46879619624147 106.59370790458756 0.5192283568372408
1.832472357609611 12.848568101602527 90.81671379035308 111.05455223890614 0.5286030454620759
1.849505569778168 12.822256286341714 83.82521125040381 115.72553651393736 0.5382974369953677
1.8660450575014458 12.794678058922972 77.44751026742183 120.61905785392287 0.5483288349318605
1.8820745747586198 12.765723101967946 71.6155989491019 125.75004885274612 0.5587118578004049
1.8975679306002555 12.735273935125033 66.2807192627936 131.13284575362434 0.5694724944934145
1.9125160271780317 12.70361513125155 61.40368725073647 136.78290456802455 0.5806388563961875
1.9268653616149019 12.670326772419937 56.93601967686632 142.71687257798712 0.5922274688762235
1.9406292604870055 12.635581945832213 52.841211763683205 148.95270505962733 0.6042608435971585
1.9537871261437598 12.599482988393252 49.089538224085416 155.50961136049597 0.6167742950308344
1.966296231692472 12.561748036824602 45.646345882829024 162.39409081347446 0.6297485719638177
1.9781573785612303 12.522575685111693 42.488650347645624 169.64157492410345 0.6432473202803256
1.9893617978002063 12.481999321023363 39.59055344363282 177.2763459806507 0.6573163364829114
1.9998768415629173 12.439814543523132 36.9234417809782 185.32347812642595 0.6719908373688841
2.009706585700136 12.396283023848909 34.47550457863824 193.79310733569392 0.687232469829212
2.018776917225294 12.351029403233522 32.22236075592122 202.73360798748635 0.7031584370069857
2.027159476933461 12.304461692515881 30.148599300296134 212.1756921683404 0.7198075002586904
2.0347733152653507 12.256248545266597 28.23996297038536 222.1340149674487 0.7371386366343586
2.038001598631399 12.217816149607966 27.06046525314139 235.55141900218405 3.8510802557769064
