M[M_sun], R[km], Lambda[1], P_c[MeV/fm^3], rho_c[fm^-3]
0.23841724892012095 16.20908015294055 2780876.1263280716 3.453507347168396 0.169602847481901
0.2484136342686361 15.86620606963445 2282303.3736308813 3.6355310594753343 0.17197824344551027
0.25869104329455933 15.563136600585432 1839370.3833152237 3.8247302187450596 0.174374471036857
0.26925456432801975 15.293762693883833 1558375.0725797876 4.020207565107873 0.1767657654801505
0.2801070729621237 15.054039460931108 1295599.3683359753 4.222296778756485 0.17914421832164776
0.2912343104783616 14.839983021554373 1081364.9930897062 4.432363250011922 0.18154648090761097
0.3026540070431372 14.648686013453887 905753.9335452003 4.650754471403291 0.18397641886338187
0.3143522712428357 14.477248466630622 761216.0718446414 4.877837589800539 0.18643568546704323
0.3263369610442475 14.323399552433482 641691.9692152435 5.110917105857321 0.18886439958369886
0.33860494288347953 14.18518359879405 542608.2889657279 5.353204542181203 0.1913150961089783
0.3511524314184568 14.060943561561393 460153.5352447611 5.605187677825429 0.19379575496734164
0.3639855402175096 13.949110958707228 391238.26102217264 5.86727884749204 0.1963119978000786
0.3771072286762629 13.848367892648962 333505.1161995964 6.136364766659826 0.19880378018132364
0.39050851602275616 13.757740239761969 284972.1522469922 6.415882201742394 0.20132581321040688
0.4041958322384905 13.676291644780072 244084.09743199855 6.706635689320489 0.20388248814245055
0.41816115807600845 13.602747540705108 206906.1620588699 7.008713664087526 0.20646510973801627
0.4324187247731697 13.536768718147966 180207.04460572582 7.318755643034733 0.2090244446703677
0.446954261327185 13.47739860231321 155326.52915804993 7.641338144484352 0.21162824518595316
0.4617746882660063 13.424186112761792 134133.9540200971 7.976994940417679 0.21427655735570503
0.47687734547170346 13.376372101837248 116036.66814933001 8.323787916831982 0.21693169262303158
0.49226316728888825 13.333741906168063 100581.68422971477 8.68168210756317 0.21958434080601516
0.5079254261528623 13.295609424419313 87320.1679259064 9.054174627916106 0.22228508955050302
0.523875776796794 13.261696778964152 75932.19997585847 9.441870156657236 0.22503681306568968
0.5401054062838813 13.23181577288842 66141.13944431848 9.839351548084908 0.2277624721669251
0.5566073767020067 13.205203341260697 57696.01071890016 10.252790725069175 0.2305348603819369
0.5733817405340046 13.18182448378212 50402.90775650749 10.68315167804093 0.23335788294906087
0.5904451983211548 13.161442245974474 44093.19732089038 11.127441046601898 0.23618464285464308
0.6077732926050826 13.14374675481381 38630.06014561349 11.586501465923911 0.239029252200604
0.6253689592975212 13.12852673472834 33889.739909247706 12.064402892029303 0.24193320330328538
0.643239807809582 13.115452522234552 29766.693547512514 12.560804043556438 0.24488482811239137
0.6613669104411556 13.104503835903591 26181.87146811606 13.070717666540592 0.24781594698660267
0.6797617883585512 13.095317314194176 23053.346705441578 13.601585358061296 0.2508057026088145
0.6984047291162084 13.087821269140603 20172.2311018374 14.154312694581881 0.25385581144128677
0.7173208254638164 13.081949382002328 17937.938283773412 14.722842465240554 0.25690166264321757
0.7364805858468338 13.077562482438118 15851.965773114305 15.312866929973492 0.25999635285359246
0.7558825962585569 13.074195082601475 14021.845325841776 15.92714213183576 0.2631570052142159
0.7755237764349995 13.072072768776033 12417.208653740385 16.562682859003548 0.2663420387927452
0.7954065109035507 13.070982233185337 11008.35488723721 17.21875399938962 0.2695413529520981
0.8155294875849832 13.070798068976263 9768.165469430656 17.90186767005183 0.2728125461460576
0.8358637136307278 13.071302615212206 8676.613467021203 18.612640416155838 0.27615365271156234
0.8564193462072933 13.072648864412038 7715.547605316485 19.34268723700466 0.27948507457978383
0.8771925411722247 13.074486988922002 6866.314754042194 20.102760690761006 0.28288737201519465
0.8981603857940507 13.07680613351507 6116.817542236228 20.894111570749313 0.28636223380786857
0.9193411464843589 13.079732692254703 5454.835427918412 21.71130109052724 0.28985886173754466
0.9407153777000252 13.082943217306578 4868.368688898483 22.55769006323295 0.2934031574014344
0.9622532572678204 13.086238208122175 4348.3354446623025 23.438882028389067 0.2970308398667635
0.983985427690442 13.089986116357021 3888.0734882665183 24.3552737091088 0.30073564471846165
1.005870006674345 13.093780874276549 3479.3129813736614 25.29854104983316 0.30443584369202664
1.027912979052469 13.097640381540641 3116.264471112273 26.28064051068888 0.3082224775322915
1.0501055243353223 13.10151287504841 2793.3877996354745 27.30307055000451 0.3120974467329466
1.072440178898038 13.105396649473704 2506.002355052649 28.36207655587667 0.3160274493844495
1.0948761339439261 13.108978488536597 2250.064083095906 29.45783991315503 0.3200067259340021
1.1174405046048672 13.112519319315481 2022.0169669594595 30.598601311435957 0.3240751518877751
1.1401034021635763 13.115740091908467 1818.412050418035 31.786211791031903 0.32823338702428684
1.162867995901446 13.118866098355072 1636.7192275550688 33.01496207214504 0.3324421018205997
1.1856996014702326 13.121534613825622 1474.353340784925 34.28952024822471 0.33672509228028563
1.2085943491718372 13.12382539770103 1329.149044784005 35.616545659134566 0.34111373389215255
1.231554767783129 13.12580464377351 1199.1490444465296 36.99805783048832 0.3456070461210951
1.2545440451555896 13.12723942085602 1082.729628471731 38.43023367002316 0.3501608108604253
1.277556332081455 13.128171245323811 978.3888187175997 39.91548050868073 0.35479395671235575
1.3005662454965767 13.1284799625111 884.7842509148279 41.46214786217664 0.35954422870701824
1.3235999325982897 13.128337260763237 800.7210368481865 43.07269343601619 0.36441379429770254
1.346599116118704 13.127537432617416 725.2234912810808 44.74970587307066 0.3694046209912833
1.3695565460494417 13.12597362792867 657.3486790231157 46.48527591496154 0.37444848463994146
1.3924607883678735 13.123693161650992 596.3023747216112 48.29266239601273 0.37962144149721316
1.4152811717980325 13.120637709582857 541.3072752856788 50.17546033865175 0.38492970506946184
1.4380343365466874 13.116871654320478 491.76917725362034 52.13686120680406 0.39037610378598747
1.4606896860234801 13.112274968058102 447.1067354792804 54.18024869675904 0.39596225504195787
1.4832281714368094 13.106847993235974 406.80423791161394 56.30386879121463 0.40165632683757135
1.5056114394859992 13.100427919167236 370.41602600775184 58.51294624906113 0.4074851397731586
1.5278592688695625 13.093287886069868 337.5689932699559 60.81585803467071 0.4134746136161049
1.5499056132022655 13.084949237806741 307.8404488464352 63.21685547955582 0.41962786741251634
1.5717716441836105 13.075726963793127 280.94680996604956 65.72045451430343 0.42594574597679713
1.593421694087673 13.065458035160113 256.6193306445146 68.33151853372036 0.4324336824772372
1.6148352175530054 13.054190116310787 234.5822766030894 71.05510192371436 0.4391066720862825
1.6360343103826758 13.041901042027078 214.5914031845704 73.89664350760881 0.44597187946395134
1.6569135696292456 13.028362371408715 196.47214125454704 76.85870468408744 0.4530184427857482
1.6775260972678423 13.01364028089767 179.99498492799074 79.94938463100343 0.4602577115072458
1.6978235341219423 12.997991609380227 165.07297770524292 83.17735323842781 0.4677182130902024
1.7177888996684787 12.980919223621465 151.47461524190385 86.54967669197181 0.47541049646005157
1.737391866584556 12.962699417959199 139.1226115133655 90.07387721135268 0.48333938889260997
1.756655666289372 12.943404095085302 127.89218606532249 93.75800913587788 0.491512519043248
1.7754938876633692 12.922681374514681 117.65478182164118 97.61073058971188 0.49994893887113845
1.7939398412421477 12.90068942297934 108.32415436989903 101.64128081098636 0.508664666509718
1.8119539284962973 12.877397162548316 99.82243592125965 105.85954185593563 0.5176669740795456
1.829517471247156 12.852791807533997 92.06218880404093 110.27612686650824 0.5269685335072954
1.8466058029792538 12.826845483767727 84.98167001957356 114.90244578212844 0.5365929633798728
1.8631988827630308 12.79965453937694 78.52364048710818 119.7507431431749 0.5465600104929117
1.879293792800574 12.770997648936659 72.61099163749434 124.83247320945489 0.5568718050717408
1.8948404954562783 12.740792089220456 67.19523816597618 130.15760450270793 0.5675369525073459
1.909855936673161 12.70939255211395 62.25335311918646 135.74582310128258 0.5786012915409453
1.924292725273094 12.676467173970613 57.722131617362535 141.61344799712523 0.5900833431505601
1.9381513706182605 12.642216306911058 53.57295516590683 147.77806853397635 0.6020013372616193
1.9513712886939136 12.60622126882804 49.765121380486505 154.25862532440834 0.6143906835772307
1.9639884800505156 12.56895948151192 46.27323258920329 161.07559223748243 0.6272833899579798
1.9759459998295203 12.530132455800375 43.06948454178471 168.23594298583447 0.6406441432680415
1.9872653701244203 12.48997019101165 40.129031328009404 175.77627115614993 0.6545621050506465
1.9978870064594516 12.44814185712539 37.41204440752276 183.72292570908752 0.6690789229949832
2.007819112189677 12.40484484349195 34.937382735240156 192.09892381085058 0.6842024141031894
2.01703595121061 12.360097088220488 32.652272972239295 200.92203777023647 0.6999441377025273
2.025544921719562 12.313891252283153 30.551160734612356 210.24006347801839 0.7164043396430665
2.0332685650051556 12.265995108766537 28.61404207539663 220.07856867830344 0.7335822512030399
2.040271039345467 12.216747435617934 26.830361940236138 230.46836139657384 0.7515200422998022
2.0464920373621105 12.165872929036514 25.1845439508514 241.46550490217527 0.7703237292353968
2.0519344246931825 12.11367628491915 23.67098406062547 253.08608920169556 0.7899406578679257
2.0565680638205133 12.059854024077657 22.273824950124826 265.40641787103164 0.8105457152882487
2.0604047051513787 12.004604622073522 20.98472838904829 278.44703578743673 0.832094431309456
2.063417995040087 11.947872502633913 19.795377109249188 292.28982792286047 0.8547364669769112
2.0655975677915017 11.889663872205924 18.697519692162786 306.9730529304143 0.8784859249718119
2.066966582769749 11.830024982959166 17.68204757746355 322.5743432326445 0.9034426715074456
2.067468155365904 11.76897967645131 16.74681061573371 339.1677506478109 0.9297160711908407
