M[M_sun], R[km], Lambda[1], P_c[MeV/fm^3], rho_c[fm^-3]
0.23841724892012095 16.20908015294055 2780876.1263280716 3.453507347168396 0.169602847481901
0.2484342989436798 15.865575721080093 2281421.8578824433 3.6359068419262517 0.17198302354040787
0.2587341874952217 15.56181477802031 1880174.0281012256 3.8255032487231246 0.17438392759192817
0.26932177147628894 15.292143032113186 1556469.0218140073 4.021453058706716 0.1767810017311918
0.28019584963462824 15.052270128865672 1293757.2819216927 4.224002447587166 0.17916416347233752
0.29135041318905397 14.83790515502434 1079377.7823488344 4.4345526585359805 0.18157111617572474
0.30279440741131286 14.646450263376884 903808.0023888609 4.653452425063402 0.1840056391142128
0.3145238727024255 14.474917331689861 759304.9691821535 4.88106990467036 0.18646936654244026
0.3265341329536028 14.3209716661848 639952.4755829186 5.114872448448687 0.18890561468724112
0.33883373023712965 14.18274077951384 540984.4673189461 5.357769071332085 0.1913606414921397
0.35141479882422777 14.058464668709385 458606.38060805976 5.610390046413496 0.19384575516224184
0.36427689440850425 13.946707936913308 389859.99784931116 5.873149799038961 0.1963663638318316
0.3774331012535911 13.8459956221249 332194.0792355531 6.143209858397196 0.19886716692055523
0.39087056953530447 13.755401568387763 283779.57618322934 6.4234842813177995 0.2013935699589035
0.4045926681318712 13.674025642711387 243013.51050544006 6.715028875357026 0.20395424585179786
0.4185966232579052 13.600559782083462 208525.75666815063 7.018317224877021 0.20654721557015582
0.43288762270566594 13.534687919757868 179329.98711445442 7.3292499774545785 0.20911095278803843
0.44746343916542664 13.475365735799372 154523.25171277887 7.652764406726412 0.2117190898014491
0.46232513241703616 13.422231721447346 133410.92016688074 7.989395892289689 0.21437150219860304
0.47747161069618704 13.374664877574013 115399.03345792537 8.337746045139284 0.21703855960493468
0.4928997527114086 13.332049465736869 99990.75702776678 8.696733003543248 0.21969507316054726
0.5086113342815399 13.29411724140614 86790.70823338974 9.070367196456838 0.2224000835139986
0.5246032107457675 13.26029545990041 75459.96025933354 9.459257809840667 0.22515604585537655
0.5408693629299952 13.230322470358136 65709.54974984287 9.858709737052664 0.22789521756100226
0.5574234841135587 13.203995226045283 57311.89083636592 10.273487466118985 0.23067162874091138
0.5742567527613086 13.180741255493908 50055.79099650959 10.70524659474928 0.23349846030491936
0.5913620966601835 13.160503128142786 43783.59305726649 11.151899704223084 0.23634025934605693
0.6087407218755744 13.142979556254625 38352.5961139004 11.612523472161227 0.23918927487284064
0.6263874372614706 13.127662132828712 33634.61275086544 12.092062593804707 0.24209766920293446
0.6443059542213276 13.114713123204773 29536.704411214214 12.59128300496203 0.24506605324089245
0.6624959002551162 13.103929891918568 25975.679353743548 13.103028069032794 0.2480012697862562
0.6809431659109255 13.094896338401012 22869.163425739443 13.635809860247607 0.2509951111360147
0.699642568387251 13.087416576914691 20157.571707645497 14.190542154738576 0.25404990777618186
0.7186180521190982 13.081755985160866 17789.214250494664 14.762556263266237 0.2571144260299258
0.7378198881918412 13.07722547288631 15717.012062900818 15.354824937844889 0.26021405228095296
0.7572718122360391 13.073951148697528 13900.652776439108 15.966764809710558 0.2633313091355273
0.7769968169004274 13.07201131658554 12306.950730171067 16.590598371124667 0.26637777389964507
0.796958721414132 13.071009474501304 10906.886093162777 17.25325636621402 0.2696138361405487
0.8171357622507411 13.070821760038609 9676.665096447774 17.95775163773089 0.2730542089481588
0.8192170247350182 13.060923232606301 9497.109056638732 19.038666948648537 1.8249697039061135
0.8048147773202079 13.035939379314165 10171.74649285992 21.483583492442364 3.386172393298935
0.7862957553118902 13.004753517245833 11133.553886833937 24.933604475542655 4.4214179442657215
0.7635870542881384 12.962239658585274 12431.61306205765 29.378760622868345 5.107653262255044
0.7376874508697034 12.906765895027021 14085.584820402459 34.26161687763317 5.265930365116198
0.7097178664768699 12.836933724654914 16086.22493070295 39.35026780642334 5.323988585252097
0.6806864843383608 12.751872990618594 18411.685517832906 44.69294836215394 5.34384263007914
0.6516407758838656 12.651710947580371 20997.24361205193 50.24260520825927 5.363400369450386
0.6231923547351202 12.535770000034105 23757.162049229955 55.77711845626157 5.3828420479411925
0.5957735097723581 12.403116305396562 26578.87549285089 61.52087194413621 5.402987183541307
0.5697642291331719 12.252529355449372 29296.43429567492 67.49092205592066 5.423893201226344
0.545425349934682 12.082843098642387 31713.11901690696 73.67840071960126 5.445524569609933
0.5230697860191521 11.893104103910305 33592.317126596594 79.89695612871384 5.467209262663468
0.5028860384540115 11.682896466605625 34714.3369801578 86.34635998994821 5.4896457983934255
0.48506829018574626 11.452437084472503 34902.8342575132 93.03291232255496 5.512858604196034
0.46973828471100043 11.203246806255594 34074.32047601431 99.95479450841188 5.536842560434027
0.45696857941763896 10.937758347179608 32277.893646284723 106.98108032723829 5.561123549796011
0.44676183420846843 10.659446411303836 29652.52072497306 114.231535764725 5.586124409784657
0.43908869743004364 10.372796524321013 26457.337837088948 121.73901856805979 5.611957243444205
0.4338372840706014 10.082616809287815 22980.292844243224 129.50498270965585 5.638621288430482
0.4308893839445453 9.794125357755874 19490.27158091444 137.4878857511787 5.665960998905869
0.4300902866026883 9.511511148379643 16194.0007288736 145.65568393322783 5.693854060237422
0.43124566111477053 9.239019097983485 13239.829371984188 154.10830939830737 5.722651927326111
0.4342016968263347 8.979370041233215 10694.8200857747 162.85026191045222 5.752363278299274
0.4387586269668099 8.734703567418293 8564.343785977897 171.88730223137708 5.783000846995266
0.44474327597837565 8.506198401638178 6822.112295289538 181.198905806172 5.814482387432858
0.4519875285336975 8.294383321704867 5418.693656465118 190.74850159547555 5.846667261918504
0.4603615599779132 8.099023912615287 4311.288953164346 200.62649474393072 5.879870892049135
0.46971455537976864 7.919705363451071 3434.3906444102986 210.84140470919812 5.914113953925872
0.47991985022870665 7.75555696381539 2746.033370805845 221.40280527022344 5.949420313356984
0.4908787898322837 7.605688359290541 2206.297523466965 232.32135655276667 5.985817110836419
0.5024886797959361 7.469005620098042 1782.483421770388 243.6085070339076 6.023333654577883
0.5146673911187174 7.344437389023255 1448.8070319569583 255.22072260890508 6.0618007321600365
0.5273245889538268 7.2308680013680044 1184.5863147963553 267.2250110186091 6.101445925175787
0.5404141697436202 7.127364612668107 974.8399137408168 279.6458483837763 6.142339513268626
0.553856178783087 7.032973006312956 807.0771708316373 292.49838987158137 6.184513001972579
0.5676044430376807 6.946740230057925 672.3436201322189 305.7992118891832 6.228014406457151
0.581605910137738 6.867907818541384 563.3683666359411 319.5658117359044 6.272895032332125
0.5958122715623675 6.795752352526785 473.5372096611259 333.8170079634692 6.319204521250384
0.6101679654394364 6.729597310801712 402.36731253666915 348.5728267765809 6.3669869311423
0.6246774713936598 6.668798233440939 342.5403108482263 363.8551943266221 6.4162891831411
0.6392752448346013 6.612838223499992 293.11793870853194 379.68704292396274 6.467187979093887
0.6539256774559314 6.561213419373321 251.4493728257393 396.0929134123404 6.519745148986396
0.668599409963701 6.513513356380337 217.0875832920114 413.09929629207295 6.574015146846289
0.6832879622804271 6.469282856912213 188.55464872586236 430.73437928365877 6.630080782148411
0.6979397400859138 6.428192110997948 164.0719992841043 449.0280631384506 6.6880224192305056
0.7125547002313208 6.389875751868666 143.3067004483249 468.0126933569593 6.747907025509077
0.7270835070782091 6.354095608074171 125.57483549850731 487.7223913230159 6.809840027990392
0.7415357826050046 6.320571570111803 110.43617052427668 508.19385080085686 6.873904641463836
0.7558580163377926 6.289028901624484 97.27513570773925 529.4664866839544 6.940209197573603
0.7700422838067611 6.259249820401451 86.17845478705102 551.5818599804347 7.008848168575956
0.7840678977795897 6.231087754724721 76.38178992783884 574.5851111034423 7.07995639768489
0.7979224312260342 6.204314638182896 68.0262148381279 598.5144186506539 7.153589416124664
0.811580847702923 6.178793392881738 60.6867552617451 623.3685318025497 7.229724354801297
0.8250325652276767 6.154318117797503 54.2625673282596 649.2572616039408 7.308665756006419
0.8382559595898303 6.1307833423427285 48.59672307182133 676.2388895160824 7.390584089748413
0.8512330085973379 6.108074936686539 43.66807572366271 704.3764641418253 7.475630673513
0.8639647790992979 6.086109725580678 39.322539286405 733.6864119637601 7.563791909836675
0.8764097977320391 6.064692068988251 35.48436569105542 764.2340389366941 7.655217941006764
0.8885673448753012 6.043832388475134 32.09871825627779 796.1458134986221 7.750289727118159
0.9004408311597916 6.023319058331578 29.110995915696424 829.4745580295896 7.849100143445553
0.9119974164390077 6.003153308270243 26.43864108103104 864.2390291661798 7.951619122222255
0.9232152941962886 5.98326176496112 24.039717870155165 900.625792085767 8.058406426510496
0.934103831504765 5.963478184353355 21.912504328153535 938.644786065654 8.169393617921843
0.9446287055930563 5.943850274527741 20.028807167525812 978.4375355249658 8.284947437898152
0.95480835733167 5.92424770634519 18.325878856695397 1020.1053373364668 8.405315492809839
0.9646020328363036 5.904697375320895 16.800314789863517 1063.7442015300599 8.530685084580668
0.9740190188580166 5.885053716077529 15.427910203005903 1109.494820723689 8.66139715635036
0.9830364128658542 5.8652853242304905 14.191278392502864 1157.4925969775393 8.797784285703566
0.9916641896973707 5.845341616093258 13.076819490306354 1207.8409845770514 8.94001117618904
0.9998625604256581 5.82525592614918 12.072518672254736 1260.7620519705042 9.088676970057065
1.0076387506822682 5.804876282216392 11.156590887247054 1316.3526798816606 9.243903278733427
1.014982749558998 5.7842799341146725 10.335196962264913 1374.8168844084134 9.40618372894113
1.0218913272939856 5.7633414088377 9.589027061202621 1436.3719006335707 9.576039352347827
1.0283548015375246 5.742067969194201 8.911186912253592 1501.2193621053837 9.753895031011206
1.0343637468798828 5.720480950983402 8.29992593157695 1569.5662389165755 9.940165477094041
1.0399026421012318 5.698487917692484 7.737058858155196 1641.65602346403 10.135378403263328
1.0449812504526654 5.676068315521153 7.225884909545723 1717.7803808145861 10.340206954283202
1.049575838678843 5.653216531704533 6.760718286686059 1798.2301130140845 10.555272941180641
1.053699482088243 5.629895926573821 6.339649165438091 1883.3243372275883 10.781258612308699
1.0573200901885103 5.606086770735469 5.948799816544044 1973.412936701975 11.018907968343358
1.0604566494980898 5.5818837753067285 5.595238689027123 2068.8799766597976 11.269030464123295
1.0630953852932088 5.557132909059268 5.271270729897723 2170.115740442872 11.532391981107246
1.0652436634911617 5.53187638301557 4.976706860473518 2277.5992141289403 11.810041891964563
1.0668734579888808 5.506111309619101 4.70325661660695 2391.8461772485452 12.103071106780808
1.0680059894648342 5.4798703384506835 4.454821223932146 2513.4171240112173 12.412652272678052
