M[M_sun], R[km], Lambda[1], P_c[MeV/fm^3], rho_c[fm^-3]
0.23841724892012095 16.20908015294055 2780876.1263280716 3.453507347168396 0.169602847481901
0.24840757824999404 15.866467520541464 2282454.6159987208 3.6354241119304285 0.1719768830322912
0.2586800213992879 15.563410047072162 1882224.0217954693 3.8245102349036615 0.1743717799519444
0.2692366692285615 15.294045401855515 1558756.3305407483 4.019853165221506 0.17676143006996234
0.280081948145931 15.05451721985681 1269972.3430883307 4.221811481100358 0.17913854351848157
0.2912015713292957 14.840569707948116 1081914.8215268308 4.431740372207433 0.18153947227420744
0.30261465610229576 14.649261248121638 906222.5621915505 4.649986978831863 0.18396810651696183
0.3143056230072463 14.477875231693476 761713.338997602 4.8768952874758815 0.1864256423124185
0.3262806906620433 14.324094570986825 642246.197512943 5.109792125073067 0.18885267716056228
0.3385391488832279 14.185862595255793 543109.7470778927 5.351906398718022 0.19130214308809165
0.35107853786502236 14.061518422681182 460573.80245154764 5.603708247707184 0.19378153609895482
0.36390204035767876 13.94982938797729 391673.3371390365 5.865609413338554 0.1962965385496534
0.37701376606184206 13.84900263533886 333870.4376407802 6.134418529664151 0.19878575768846873
0.39040858852374427 13.758497298671314 285326.3564637017 6.413720891102655 0.2013065496154935
0.40407873823313634 13.676786665656929 244383.87503274385 6.704249632729602 0.2038620885046265
0.41803773899009633 13.603344546520718 209774.94622052484 7.005983801678874 0.206441770725581
0.43227979561799823 13.537232436984304 180459.9173808852 7.31577278010577 0.20899985598785284
0.4468046577904382 13.477928777926842 155552.57356378777 7.638090614737963 0.2116024256672976
0.4616168993522796 13.424577058948808 134327.96264545634 7.973470622090498 0.21424957427784533
0.47670861617458926 13.37688069356772 116230.49486267359 8.319821476808173 0.21690132454896663
0.4920853401653349 13.334301641944116 100741.80982309672 8.677405416078564 0.21955287635909287
0.5077365795502707 13.29615535158495 87469.69487193882 9.049573824006949 0.22225241624883077
0.5236705721563566 13.262191773179703 76070.15103816467 9.436930101294813 0.22500293750031836
0.5398868633711515 13.23208170391337 66258.76448606023 9.833852238278217 0.22772476161204533
0.5563720314761855 13.205552470154753 57802.392992772286 10.246911516979688 0.23049600935507558
0.5731388542828956 13.182149719643448 50501.44679307404 10.676875675619183 0.2333179523244083
0.5901837771398601 13.16177829788466 44185.588555464456 11.120494405378965 0.2361404453377161
0.6075003344876467 13.14401991564009 38710.331103913966 11.579111245769862 0.23898380594382107
0.6250820884445635 13.128697215526657 33960.60580442335 12.05654802682301 0.24188649790193054
0.6429316077301827 13.115632307604688 29832.13379624449 12.552149332275016 0.24483336678830842
0.6610468231134407 13.104614445660719 26239.19638661514 13.061543660108317 0.24776332763107223
0.6794274597365554 13.095503456480007 23105.239174264625 13.591868426041334 0.2507519262303361
0.6980550026492334 13.087952234091466 20372.206638966592 14.144027098202496 0.2538007072097908
0.716955033582519 13.082070852669156 17981.983831076286 14.711568976007676 0.2568412658575046
0.7360935223862096 13.077523116037009 15889.744493865035 15.300957044130453 0.259934558324741
0.7554810975805187 13.074299676041695 14057.068321682735 15.91456530094405 0.26309397600619006
0.7751096428151617 13.072100322276555 12449.018535601113 16.54893736736876 0.2662731528023771
0.794981731752589 13.071004497421074 11036.382699318396 17.20426370101468 0.2694711171082383
0.8150769820353873 13.070730410507739 9793.312209575017 17.886595736291206 0.2727407578586827
0.8353964050139627 13.071303240883898 8700.249137582163 18.595989191496884 0.2760753808358655
0.855933138345579 13.072555658131694 7736.287952257466 19.325160316785432 0.2794051353932832
0.8766911573782082 13.074383175747235 6885.503716874658 20.08431450605676 0.2828059762847249
0.8976521104202023 13.07683536741545 6134.217086949769 20.874700523619495 0.2862791769307358
0.9188082359909734 13.079656150432111 5470.275322405135 21.690200661926863 0.28976857625763264
0.9401536014557548 13.08279195759579 4882.39336881772 22.535507963080136 0.2933109234234134
0.9616850309422671 13.086181897978202 4361.546003401881 23.41556082635174 0.29693655648960815
0.9833833365973929 13.089820997449726 3899.8617946297113 24.329962478130597 0.300633316016332
1.0052704053562136 13.093667851501698 3489.692802740786 25.271952458721113 0.3043316455150756
1.0272956027144162 13.097508361056327 3125.7232811229633 26.252708262587948 0.3081160433071456
1.0494664058063417 13.101410955975838 2802.156636726772 27.27372186262273 0.3119885328848768
1.0717828529470104 13.105287479989553 2514.015385324755 28.330289544600053 0.3159094868441921
1.0942049420936621 13.108859171891824 2257.247662263889 29.424458697196417 0.3198860111778599
1.1167482573592176 13.112378298026359 2028.5981223049316 30.563539974488236 0.3239519823484673
1.139414571559266 13.115737564174406 1824.438206172551 31.749379227302274 0.32810722814698057
1.1621438686201073 13.118724515328894 1642.1703969706134 32.97513466407879 0.3323056850040962
1.1849651427861927 13.12142912597658 1479.2600955743064 34.24769552249525 0.3365852510572567
1.207845284908876 13.123818332435091 1333.7114702043536 35.5726093609169 0.34097025482004756
1.2307934517653165 13.125799183587459 1203.3019610096717 36.951891829332254 0.34546025610941006
1.2537555521475068 13.127161304803026 1086.494734270177 38.380376314359474 0.3500022837704198
1.2767739530480273 13.12822355113548 981.7870807212779 39.86310626476368 0.35463114534584544
1.2997655982032905 13.128515731889442 887.9196162991733 41.40710914305421 0.35937683032292767
1.3227661297696858 13.128342229555239 803.6062301784415 43.014833003406025 0.3642415474061521
1.3457638774790615 13.127517916763976 727.7885298578276 44.68784038628279 0.36922198582048216
1.3687199572036537 13.126043485329115 659.7023394022038 46.41965163742807 0.37425776925541
1.3916045096754937 13.123793940271105 598.4511211272687 48.22365637512973 0.37942489726221773
1.414437000443016 13.120820403496904 543.27192616854 50.10286770857274 0.3847269606147007
1.4371619811544967 13.117014124346817 493.57580291249354 52.06046400501953 0.3901668602175989
1.4598174599245217 13.112516267252568 448.7624228408964 54.09981802804348 0.39574659594011036
1.4823278699986535 13.107053468580837 408.33302259600265 56.21719024916734 0.40142391528578536
1.5047186822589809 13.100722793084358 371.80947729224545 58.421681626028295 0.4072448005423853
1.5269431732350607 13.093502260287687 338.8439814583589 60.71972077775692 0.4132258406877583
1.5489958553050658 13.085283324270769 309.0101002231713 63.115540397080174 0.41937029670280823
1.5708630049299264 13.076154137539937 282.0268595518463 65.61363885715096 0.42567922127704344
1.592506849867042 13.065905869080382 257.60983067565184 68.21885557506995 0.43215704781446623
1.6139260404282132 13.054632824491161 235.47088340727052 70.93621664976318 0.43881928441591156
1.6350897916764833 13.04236148209892 215.42463033099568 73.77060000400418 0.4456709894424571
1.6559863534272272 13.02897276821945 197.24247868928256 76.72354464006828 0.452696905264403
1.6765783251460569 13.01430223158593 180.71556354625568 79.80664780953126 0.4599236828453365
1.696900660729812 12.99868132596018 165.71628806801627 83.02654436820403 0.46737031285991754
1.7168858606517468 12.981848451327005 152.08076765380943 86.39026052428684 0.4750478284605799
1.7365031038540675 12.963661437957274 139.67941027226163 89.90528127093525 0.48296135920029293
1.7557353995204552 12.944194541580448 128.39307527018067 93.57962138437173 0.49111827502200495
1.7746300376534623 12.923869472956602 118.12985046001448 97.4218906353304 0.49953690060461875
1.793085089097761 12.901936437537548 108.76402531915288 101.4412751055008 0.5082336677994538
1.8111008347265563 12.878763734125284 100.22703384312229 105.64760517823596 0.5172162391608021
1.8286747561968197 12.85422494020669 92.43590864891648 110.0514376289397 0.5264967384477575
1.8457624587803387 12.828268439236794 85.33068714720717 114.66411565706244 0.5360982364820005
1.8623610433840327 12.801033973768043 78.8375512197306 119.49781149017849 0.5460408156874679
1.8784777761658953 12.772450243430503 72.89643497828018 124.56556785783437 0.5563331239938073
1.8940463002090677 12.742440397937823 67.46949838668607 129.87621488829157 0.5669784841154124
1.9090838057610677 12.711141794744325 62.505940823659145 135.4466270808815 0.5780134579757455
1.9235393461712191 12.678226173305777 57.95030268982396 141.29515198623173 0.5894648444537124
1.9374067936043955 12.643961171494407 53.78335808662817 147.4392740874879 0.6013496393264969
1.950671734259991 12.608152051136729 49.95887418296519 153.89781434311882 0.6137031370471658
1.963307553220526 12.570992988135401 46.45440982959372 160.6911178928965 0.6265574662666119
1.9753073077591161 12.532280385942888 43.23736815752424 167.83066317386175 0.6398935804348083
1.9866568701019207 12.492253423089709 40.28520663325573 175.34382263579738 0.6537681024528176
1.9973102155257472 12.450461431306994 37.56705024991927 183.26121806331716 0.6682383327025356
2.0072849627914255 12.407486404285953 35.076304317541265 191.61048881604054 0.6833286313441184
2.016517740470739 12.36272322966148 32.78168776195736 200.39999482225852 0.6990178681775566
2.025053857411993 12.316495559971445 30.665274974104197 209.68159352238695 0.7154211577009071
2.0328506864288354 12.268985640824752 28.724744790767986 219.4861008792559 0.7325563085609411
2.039877312514877 12.219680262633556 26.931108499334925 229.83366389499386 0.7504290973757701
2.0461383693477346 12.16896497372183 25.27937340958389 240.78571277853214 0.7691648804903144
2.051621286057217 12.116862761008822 23.75972683980546 252.36210889855798 0.7887242690841777
2.056316015854943 12.063153013986991 22.35479659227075 264.62920319430583 0.8092489539408385
2.06019765533213 12.00809490368265 21.061410978785915 277.61820835380456 0.8307318623568287
2.0632500889925107 11.951436741815954 19.867379869544546 291.4044590419836 0.8532996308259324
2.0654895593019633 11.893341862093719 18.76369431289896 306.02074580270863 0.8769514770190512
2.0668932505144553 11.83386974690696 17.745737097923207 321.55531085085335 0.9018229054494147
2.0674656132859557 11.772985318002641 16.805204890887318 338.07031842167873 0.9279839750819047
