M[M_sun], R[km], Lambda[1], P_c[MeV/fm^3], rho_c[fm^-3]
0.23841724892012095 16.20908015294055 2780876.1263280716 3.453507347168396 0.169602847481901
0.24843204004735905 15.865709374399895 2281535.8212507544 3.6358684376489085 0.17198253502347546
0.2587311534703718 15.561846951652864 1880398.9423281008 3.8254242414069726 0.17438296108731977
0.2693149331368398 15.29226450816049 1556675.4439529972 4.021325754696656 0.1767794444081693
0.28018742081800246 15.052424248444947 1293934.9813459334 4.223828097460111 0.1791621247180997
0.29133828671892037 14.838138295834439 1079650.7023087444 4.434328848005649 0.18156859785520083
0.30278122265336455 14.646601837710865 903978.4386970317 4.653176612779771 0.18400265192276136
0.3145074320009481 14.475076777131806 759469.8731261983 4.880739445749909 0.18646592312425125
0.32651526860267716 14.321246152075364 640127.9524304313 5.114468041865793 0.1889014007263004
0.33881032578533415 14.183065321866096 541143.4781596068 5.357302353860825 0.1913559845329323
0.35138827458381733 14.058743174617007 458761.9117598777 5.609858082086885 0.19384064242953936
0.3642468342727147 13.946898732450093 389977.0269877849 5.872549437828989 0.19636080438267864
0.37739938776939574 13.846284419414477 332346.39170332265 6.142509832046957 0.19886068455488062
0.39083372487168727 13.755665023402882 283912.8820216832 6.422706800547931 0.20138664033281076
0.40454823622049646 13.674198712735652 243109.31775072336 6.714170443793094 0.20394690667423274
0.4185516060943385 13.60083223672388 208625.79461224374 7.017334927793537 0.20653881740189142
0.43283943596677044 13.534867044414742 179418.1287341332 7.32817651594783 0.20910210390533415
0.4474110188792106 13.475526506103957 154601.20203625108 7.651595563302131 0.21170979689978062
0.4622702751348695 13.422428712297055 133482.12855508993 7.988127284639062 0.21436178941563838
0.47741155528856477 13.37484275968665 115462.78078754182 8.336318032969896 0.21702762638041462
0.49283449241764365 13.332233944168278 100048.90812822389 8.695193124048016 0.21968374396908727
0.5085400900555954 13.29430123149347 86845.8920036162 9.068710437218472 0.2223883177888205
0.5245310124741596 13.260482628291271 75505.78445782319 9.457478696636803 0.2251438458978419
0.5407935269901135 13.230470264168064 65753.18615993121 9.856728846673656 0.2278816339517905
0.5573396738663334 13.204167799147324 57353.09415442427 10.27136951338012 0.23065763286978447
0.5741683133714596 13.180931606951455 50091.67047799794 10.702985467911327 0.23348407404420898
0.5912693161596877 13.160585117258382 43814.24939031605 11.149396484094124 0.23632433278378445
0.6086392400257122 13.14291095035248 38378.26559550341 11.609860141293483 0.23917289668437122
0.6262846897352503 13.127756560543821 33660.63118643158 12.089231530676154 0.24208083556719315
0.6441958175992101 13.114769744853948 29562.65344100368 12.588163811391567 0.24504751059059499
0.6623809480451157 13.103871149780291 25994.67873870962 13.099720594405715 0.2479822991015728
0.6808230693118598 13.094930171710827 22888.07389234782 13.632306308698205 0.2509757214445203
0.6995175881890667 13.087474349070831 20175.235224799624 14.186833210644076 0.2540300374151011
0.7184860436890373 13.081807438724798 17804.346873388757 14.75849028315682 0.2570926428779389
0.7376838367084994 13.077201749699878 15729.285869524685 15.350529023754222 0.2601917628996174
0.7571389972447293 13.074048619997564 13912.533787527977 15.966915300172477 0.2633563297755882
0.7768327708592451 13.072033400389278 12319.02082931715 16.606156598700462 0.2665599088910723
0.7967406553330977 13.071098391874262 10924.837620126382 17.264585696426387 0.269763503513364
0.8169466491373685 13.070882540998248 9687.516259983562 17.950174045627445 0.2730396183705852
0.8373291829301224 13.07137652707313 8603.23491241835 18.66396151065441 0.2763894490082162
0.8579360316229699 13.072678596902287 7649.038006692042 19.398135342946127 0.27973796992172173
0.8787545923370004 13.074605271656434 6807.005563526361 20.16111990011002 0.28314488816559424
0.8997932757683325 13.077059877577573 6063.010120766025 20.95552643738527 0.2866250185509169
0.9210227716467579 13.07991096328933 5405.674161093311 21.77806871627865 0.2901445501113554
0.9424407950027833 13.083105126990361 4823.804077867716 22.627883915531537 0.2936950259885165
0.9640519481616225 13.086642983837033 4308.483987322125 23.512684216321794 0.29732920868620144
0.9858139880485413 13.090202971188383 3851.5576080674764 24.433787231949 0.30104695516629404
1.0077709869045406 13.094097553712322 3446.12600691408 25.382697426822062 0.3047656445838489
1.0298687997136549 13.098005245961396 3086.1213918920125 26.369054236034643 0.30855937294849395
1.0521163148474375 13.101866205845532 2765.946717749314 27.395972489390825 0.31244220858140964
1.0744870691821833 13.105637939553336 2481.2027182353972 28.462709139353777 0.3164008998820856
1.0969946502718895 13.109356145132208 2227.6239132914907 29.56352499726582 0.32038890941024567
1.1196161062335184 13.112908859232133 2001.5169072112085 30.70961150183078 0.32446512771869657
1.1423277185797838 13.116169275442589 1799.882460531519 31.902836179870498 0.32863284881767196
1.1651324125583897 13.119146121686455 1619.7940500488048 33.14108495721596 0.33287409785812716
1.1880141354115248 13.121796480835894 1458.9257955526894 34.42197528069516 0.3371679564811609
1.2109533793119571 13.12404491437201 1315.1075228157201 35.755695503585514 0.34156814383052436
1.2339572937734429 13.125957013931993 1186.3586964982019 37.14427748359621 0.3460719680127645
1.2569914080037197 13.127309136797976 1071.0893960972278 38.5881652363906 0.3506629721022912
1.280044159593574 13.12817187933277 967.7142224718136 40.081394199364205 0.35530971851973814
1.3031101607116575 13.128517943472081 875.0623469440982 41.63651234116099 0.3600745523135659
1.3261733156964703 13.128247665648075 791.8594617320437 43.25600806403725 0.364959510487989
1.3492112424464917 13.127314458247291 717.1304467203638 44.94249071523986 0.36996488674487404
1.3722102764134747 13.125719175561267 649.9497461408793 46.69322865379901 0.375052830897796
1.3951404953871696 13.123301383813919 589.5016277117655 48.51134489944292 0.38024429707986507
1.418008583405751 13.120239928167049 535.1323168628716 50.40552352681493 0.3855722501266389
1.4408063385995795 13.116415346651182 486.0899865459391 52.37899768621775 0.3910392890834341
1.4634725992917925 13.111645269686017 441.92439257136436 54.43518588875479 0.39664581924366504
1.4860344965068886 13.10608333167457 402.03627665607866 56.57779067761366 0.4023890380635067
1.5084462729804404 13.099629326701578 366.0753907355941 58.80228383615588 0.408247090798707
1.5307086751664472 13.092174501014894 333.5412449078876 61.12066477656371 0.4142633574204815
1.5527756342569996 13.083773937572703 304.17226780002113 63.53810177572492 0.4204445635496908
1.5746603417944425 13.074450168231904 277.5925747003712 66.05916670893714 0.4267908951654486
1.5963001568569666 13.063931938275726 253.52148572117565 68.68879935519749 0.4333109562569055
1.6177391918662547 13.052534871793236 231.73032692853826 71.43214422044544 0.4400181164030391
1.6389062198217046 13.039935973210362 211.97332021699967 74.29471996649546 0.4469188791399662
1.6598155249299043 13.02634236027324 194.06445060055498 77.28242980772139 0.45401657945872903
1.680405042452562 13.01153349934745 177.80936714787043 80.40156042871601 0.46131475050680976
1.700709580462053 12.99552749040071 163.02441308466786 83.65583039309087 0.4688220096510167
1.7206657569740387 12.97835245876856 149.6097678978171 87.05550620679116 0.4765612466058949
1.7402458580876343 12.959955479053686 137.4110621089302 90.60888160051415 0.4845389880295893
1.7594855709024178 12.940406987290633 126.30482352414867 94.32413713938807 0.49276368443301116
1.7783370686259987 12.919526493275916 116.18914908898701 98.21008521543749 0.5012566972945264
1.7967212170108813 12.897194806469196 106.97663833295101 102.27613468867332 0.5100327334947325
1.8147107666824764 12.87379908900726 98.58032027361935 106.53233256003351 0.5190978272316968
1.8322268104179593 12.848907301528863 90.9149146702781 110.98947192447008 0.5284663919616396
1.8492657385201858 12.82265090281363 83.92255108060631 115.65752037393726 0.5381578197266074
1.8658181785147987 12.795236165536124 77.5446089249218 120.54683470027065 0.5481823523438968
1.8818484233055117 12.766157775920771 71.69664738612877 125.67332013737786 0.5585579905055257
1.8973452291579223 12.735759513835161 66.35413357564654 131.05128808395875 0.5693106286025128
1.9122873914495104 12.70394174095888 61.46975566564409 136.69616779632983 0.5804684437494187
1.926641704096928 12.67076365401554 57.00031112784957 142.624578971595 0.5920481280320808
1.940414558785756 12.63612176343995 52.9031840625738 148.85444613455348 0.6040718347770857
1.953575629638204 12.59991018121874 49.14310106668919 155.40509241935487 0.6165753440056547
1.9661046322921059 12.562348179743228 45.69954422451284 162.27711305431382 0.6295209368960438
1.977972032515808 12.523153693780733 42.53512546601931 169.50380139749507 0.6429703792546174
1.9796144968724818 12.499773566968981 41.5102486195683 182.5076642426492 5.314361843783256
