M[M_sun], R[km], Lambda[1], P_c[MeV/fm^3], rho_c[fm^-3]
0.23841724892012095 16.20908015294055 2780876.1263280716 3.453507347168396 0.169602847481901
0.24841212821706518 15.866423073707969 2282497.608848652 3.6355013530512874 0.17197786556856134
0.25868956582318653 15.563103593681262 1881868.8086863733 3.8246691137491355 0.17437372353316957
0.26924987332402944 15.293768068501715 1558380.0662084706 4.020109121778913 0.17676456121280237
0.2800985469538317 15.054235536783892 1295829.8886106452 4.222161973419638 0.17914264198237906
0.2912245598874334 14.840148907513015 1081496.4614071446 4.432190225458901 0.18154453403191048
0.30264309463056543 14.648834432816503 905883.6740241816 4.650541272543686 0.18397410980809797
0.3143408039843463 14.4773510962096 761293.1505652992 4.877582181881866 0.1864330240885228
0.3263207974550917 14.32360275999913 641892.2266733939 5.110604592639997 0.18886114316170435
0.33858615458436975 14.185405853996963 542785.2723726009 5.352843920808837 0.19131149778852996
0.3511322938220189 14.061039645859907 460248.5193544392 5.604776690371879 0.19379180494872394
0.3639638833703868 13.949187745944075 385667.34689136123 5.86681507113292 0.1963077031503843
0.3770819490455231 13.848534356764729 333595.9132337647 6.135824084388861 0.19879877336951865
0.3904794844455516 13.757908856600674 285058.72277694684 6.415281763061793 0.20132046154679095
0.404160838709581 13.676286686614839 244166.24632827195 6.705972805910217 0.20387682080767702
0.4181282874224441 13.602890089357988 209580.2113265128 7.007955253421041 0.20645862569108409
0.432377808909398 13.536864405175857 180275.9254230029 7.317926934561115 0.20901761336432367
0.4469133782025428 13.477536783964855 155383.61535448086 7.640435895651218 0.211621071847324
0.4617297701698671 13.424210508975307 134189.62839385495 7.976015782068188 0.21426906067023893
0.4768308042022188 13.376510540060135 116089.60442039874 8.322685905363599 0.21692325534282783
0.4922129115055596 13.333792091496159 100618.00981838923 8.680493885415965 0.219575598825721
0.5078734671426833 13.295724731940592 87362.15333729298 9.052896342438103 0.22227601161371835
0.5238189417955333 13.261936897367637 75977.21002595931 9.440497599985612 0.22502740099844665
0.5400436590032237 13.231779059372949 66166.2194819082 9.837823580183136 0.22775199439436095
0.5565421888947488 13.205376457523762 57727.13674439864 10.251157187497814 0.23052406562674232
0.5733129627246594 13.181970077693967 50431.966132264584 10.681407874419218 0.23334678812098286
0.590364718063156 13.161503132780528 44121.724075750535 11.125510869799331 0.23617236224029065
0.6076987331547092 13.143854547519725 38652.37089761977 11.584448017975287 0.23901662449522876
0.6252884820684436 13.128580466683845 33909.11940143113 12.062220317354045 0.24192022561066842
0.6431543827211624 13.115598063359784 29785.782300231695 12.558399177527457 0.24487052866483394
0.661277730715951 13.104485421129846 26196.517920879323 13.068168481663472 0.2478013256250032
0.6796702012299238 13.095322243390445 23067.7692153422 13.598885285744137 0.2507907596092599
0.6983073310688958 13.087867447927504 20337.757114606764 14.151454580166805 0.2538404993298096
0.7172170646875758 13.082014722393545 17950.958775221858 14.719709781260294 0.25688487954801487
0.7363761018115873 13.077494170553054 15861.773441646734 15.309557374262447 0.25997918119984476
0.7557706396198598 13.074208447257742 14031.475110015777 15.923647212500411 0.26313949030925154
0.7754090342634021 13.072087066407228 12426.000152674986 16.55886311283202 0.2663228960072435
0.7952868730485503 13.07091884078568 11015.582250132022 17.21472724302147 0.26952183488392467
0.8154006473988679 13.07078516624529 9775.49788047582 17.897623665472295 0.272792596490359
0.8357349937300016 13.071291062649738 8682.99344643986 18.60801302211312 0.27613190086935674
0.8562788786980514 13.072515159322146 7720.847889196991 19.33781644379234 0.27946285919669683
0.8770533263150558 13.074489503176066 6871.888330327912 20.097634386151377 0.2828647516568386
0.8980191754131694 13.076795505029875 6121.65726163234 20.88871707833655 0.286339151606763
0.9191934595072209 13.079710065840462 5459.003663516343 21.705436987430616 0.2898337701447453
0.9405621124810843 13.082901947161893 4872.081079922796 22.551525294937193 0.2933775240709752
0.9620927014825198 13.086243021903885 4352.234320649974 23.432400628362657 0.2970046367455776
0.9838101959391613 13.089921598490184 3891.4226239599643 24.3482390981541 0.3007072050661349
1.0057045442307677 13.093764339079145 3482.2470256474717 25.291151364274125 0.3044068842123668
1.0277414288263467 13.097587876831863 3118.840048768097 26.272877318134594 0.3081928963334854
1.0499265672989442 13.101418840475707 2795.690641910139 27.294913614679714 0.312067176104379
1.072240708931197 13.105223406873495 2508.1671599183705 28.35324174615861 0.31599466314393243
1.0946791221869094 13.108896039143126 2252.1947360053236 29.448561929971397 0.3199731744456773
1.1172470653088116 13.112444147897126 2023.7612607792169 30.588856266142688 0.32404091780420047
1.1399136366924199 13.115784537516658 1820.0475754560189 31.775974351757647 0.32819832175283814
1.162664064009003 13.118813668072471 1638.2902424800925 33.00389198916794 0.33240418457839166
1.1854923222325908 13.121485718329472 1475.6631274741364 34.27789489888333 0.3366862228545648
1.2083890680908722 13.123868894346833 1330.4495869792006 35.604333273213086 0.34107385293105014
1.2313348553886347 13.125727635039633 1200.1801537616236 36.985225559639055 0.3455662444674812
1.2543172575786643 13.127187143380226 1083.7855229578468 38.41637504155511 0.3501167457869118
1.277333503149353 13.128163788390198 979.3599674237337 39.90092212798793 0.3547487003100194
1.3003385478216807 13.128452565359044 885.6509364117884 41.446848687561946 0.3594976967900468
1.3233624197210887 13.128282221711983 801.5124195451644 43.05660974115171 0.36436591414333663
1.346362128313404 13.12750702059296 725.9593850994921 44.73279212206744 0.36935546673545466
1.3693197187160597 13.125968083123992 658.0338515049239 46.467033456378914 0.3743954689324297
1.3922253055095475 13.123730644901988 596.8868992061804 48.273479662603265 0.3795668048783379
1.4150481592796622 13.120739234947868 541.8831082627086 50.155280354763185 0.38487334425396136
1.437795716030458 13.116925933209123 492.2695562345629 52.115623353316906 0.39031793563133305
1.4604555602723504 13.112429603680328 447.5895906635642 54.15788931284645 0.3959023027286244
1.4829889207480174 13.106971410060869 407.23392294394483 56.27977193668987 0.40159171583672865
1.505360206648648 13.100510131410323 370.81187678259977 58.48757415130499 0.4074183240645612
1.5276113408730891 13.093376720103853 337.9156599697574 60.789130991341935 0.41340545244957705
1.5496380742876275 13.08501036239049 308.17191725123746 63.18868860235206 0.41955625949023706
1.5715431800671362 13.07598792122898 281.25725305262813 65.69075802957128 0.42587164778849806
1.5931588745024376 13.065520365625506 256.890722939071 68.30019599628865 0.432356772553307
1.6145927852682582 13.054335768475552 234.82914951048429 71.02204901776535 0.4390267715458373
1.6357631698443236 13.041921063400547 214.80702806633084 73.8617489470841 0.4458888674275099
1.6566542357162466 13.02847344685577 196.67418172243188 76.82112550683517 0.45292904420944874
1.6772464153608162 13.013881846333105 180.2565529127069 79.90969828227836 0.4601648386393763
1.6975510474690259 12.998098403164427 165.24955873069234 83.13542193700853 0.4676214819801671
1.717504162351056 12.981040928109072 151.64895326098548 86.50535153151685 0.4753096577715929
1.73714845028406 12.96306395184188 139.2867301069067 90.02699892522097 0.4832342773220772
1.7564042129653004 12.943703278175395 128.03691577271246 93.70840744655226 0.4914028973383099
1.7752476827516672 12.922894454496566 117.78303492998741 97.55822176239462 0.49983436753343796
1.793703256318394 12.9010027428867 108.44415287933037 101.58566631641003 0.5085448210514287
1.8117094815762942 12.877702801557387 99.93179431557607 105.80060878240818 0.5175416385576529
1.8292765979860075 12.853154586206939 92.1660276297904 110.21364661311128 0.5268373395293802
1.8463796465042268 12.827351926969403 85.08210299641361 114.83617117119788 0.536455390202062
1.8629692349845377 12.800012067753263 78.60304783936976 119.68040686840581 0.5464156306651529
1.8790797560951016 12.771466100837056 72.68724548751473 124.75884077267096 0.5567241468735169
1.8946514980753129 12.741413923844549 67.27479714754749 130.07935240153327 0.5673816471127276
1.9096326814199183 12.709762339406682 62.31801843535176 135.6626175401068 0.5784378167005887
1.924080525868977 12.67691882312909 57.78409440913998 141.52492898652125 0.5899113369336078
1.9379215141798585 12.642606133180385 53.632205588568944 147.68384689115564 0.6018200944735319
1.951175640882667 12.606752671398915 49.817250086039216 154.15827855387147 0.6141994669084939
1.9638043696420266 12.56950370008433 46.32127832611509 160.96866200291691 0.6270814956269596
1.9757844680043253 12.53083464931567 43.119100882652155 168.12322490994353 0.6404353936686339
1.9870855609257587 12.49046370926361 40.16856521524035 175.6559940329669 0.6543412687111236
1.997730660242979 12.448754074646528 37.46328136252005 183.59450769238512 0.6688451236650299
2.007663583038104 12.40557163600227 34.97694507044673 191.9631100519328 0.6839595105146189
2.016892480082452 12.36085590113336 32.68882816630167 200.77683247520827 0.6996864975214464
2.0254006536342373 12.314561761557332 30.5810878774253 210.08472210568593 0.7161308623850556
2.0331514326104703 12.266818222641792 28.64415404719863 219.91376774685497 0.7332968748445232
2.0401570692986275 12.217502452553457 26.857191509440213 230.29180909026587 0.7512165767246056
2.0464000880183946 12.166867168769624 25.21341936907231 241.27682624738756 0.7700028153108572
2.0518444359954056 12.114537649896116 23.695596261947873 252.88469170643907 0.7896022817363607
2.0565062100833127 12.060810883838482 22.29579560911946 265.1902053038112 0.8101849705565911
2.060340877003239 12.005543652153877 21.006048225456414 278.2164600490132 0.8317153712908606
2.063370220838524 11.948853148436203 19.816040863439504 292.0436076814732 0.8543370277412209
2.065578930089951 11.890764912612 18.716283198380374 306.7081112909091 0.878059025766175
2.0669469167223014 11.831128571822127 17.700497319512813 322.2908308235034 0.9029920246138208
2.0674599320827705 11.770078498380823 16.763136164120148 338.8629648690832 0.9292359961607775
