M[M_sun], R[km], Lambda[1], P_c[MeV/fm^3], rho_c[fm^-3]
0.23841724892012095 16.20908015294055 2780876.1263280716 3.453507347168396 0.169602847481901
0.2484102926706438 15.86634459883459 2282305.0572593487 3.635465326060849 0.17197740729161745
0.2586853050884144 15.563157862836327 1882069.897753179 3.8245950085127327 0.17437281699620596
0.2692436796221786 15.293975481562681 1558684.6942874368 4.019989735971891 0.17676310075397045
0.2800918001627612 15.054326913628845 1295883.7608083712 4.221998492060686 0.1791407303215217
0.2912133361219055 14.840360087539969 1081783.6540096442 4.431980397288926 0.18154217304118245
0.30262966651655143 14.64902721329211 906065.2965239221 4.65028272763839 0.18397130963139535
0.3143242387687212 14.477690186798412 761512.5496687902 4.877265058584367 0.18642964712714152
0.32630162643563404 14.323832889038673 642069.5570928156 5.110225619192126 0.18885719421681957
0.33856474326051933 14.185568832318614 542915.2840640413 5.352406613046509 0.1913071342826926
0.3511071058043474 14.061279273517487 460438.12177834543 5.604278311358389 0.19378701500595327
0.3639364201759482 13.949481396114283 391505.16357008135 5.866252684021216 0.19630249534798155
0.3770492008596167 13.848795061351248 333723.44129665394 6.135168448308757 0.19879270206546096
0.39044524788334933 13.758119544347803 285181.12691611086 6.4145536730607455 0.20131397213680852
0.4041228069990175 13.676511987375667 244260.84907710878 6.705169003413786 0.20386994868240058
0.4180859963875005 13.603100152659783 209669.75594262066 7.0070356290956335 0.20645076334479937
0.4323325331784026 13.53709869930862 180365.2157861862 7.316922078850678 0.20900933002089636
0.446862594819822 13.477656420253963 155455.77595315242 7.6393418782073494 0.21161237385038253
0.4616771600269066 13.424374379966558 134249.3639895939 7.974828519094976 0.21425997068282232
0.47677436225654674 13.376665231397828 116156.83119643452 8.321349698212913 0.21691302500089032
0.49215489211771896 13.33402601674678 100679.56844616361 8.679053159092431 0.21956499912333435
0.5078076753886628 13.295897703272601 87411.99742460444 9.051346427195563 0.22226500465726337
0.52375019281154 13.261970952267054 76011.39763320083 9.438833395503798 0.22501598900736983
0.5399685896697448 13.231918493928138 66208.59026124317 9.835970969410143 0.22773929044010457
0.5564642677758238 13.205372239189037 57761.41780919925 10.249176593479389 0.230510977450539
0.5732351597899494 13.18212053665523 50465.698481995125 10.679293604868635 0.2333333362294498
0.5902855622502148 13.1616670926689 44151.186816967616 11.123170668182786 0.23615747287185482
0.6076054297579441 13.143924318351283 38679.24754574316 11.581958378898408 0.23900131442672928
0.6251920588944809 13.12866912310264 33933.92649999627 12.059574143613498 0.2419044913360041
0.6430524998890746 13.115610853531324 29807.43605797628 12.555483540998944 0.2448531921516421
0.6611440270965326 13.104833327869285 26233.360899965253 13.065077898517172 0.24778359896494775
0.679555422329354 13.095436274517866 23085.822741505992 13.595611794814221 0.25077264314134273
0.698188786288232 13.087883423003813 20352.149778028168 14.147989509981448 0.2538219355030172
0.7170967699643802 13.082049811551988 17965.22416653949 14.715911893578536 0.25686453267902526
0.7362472944760936 13.077527279161577 15761.044797742443 15.305545087766468 0.2599583634223359
0.7556366363280904 13.07423394917835 14044.687023058854 15.919410235275919 0.2631182565563942
0.7752687241699966 13.072081432743945 12436.96553057429 16.554232415253466 0.26629968911168317
0.7951397910428702 13.070959490460368 10951.984356231042 17.20984562229284 0.26949817320751146
0.8152489299971113 13.070777052834433 9783.828883178812 17.89247871378615 0.27276841178160083
0.8355752294410078 13.071310864555478 8691.26144676702 18.602403385718677 0.27610553183215
0.856118743841968 13.072517707848242 7727.891605914638 19.331911786400774 0.2794359284237748
0.8768871584064887 13.074409479765572 6878.084755577438 20.091420029025606 0.2828373301522965
0.8978468122183026 13.076794499134586 6091.316400906335 20.88217765912747 0.28631117044046445
0.9190134574860903 13.079693145099377 5464.119899072534 21.69832840858789 0.28980335363214915
0.9403668574932901 13.082815669759146 4876.964878318526 22.544052299263527 0.29334645108356794
0.9619048245145185 13.08617699451089 4356.410283725522 23.424543866950298 0.2969728732885193
0.9836034708047217 13.089842680525209 3895.3602507864894 24.339711882884288 0.30067273108610243
1.0055019398274696 13.093691374385461 3485.623657169406 25.282193801662395 0.30437178037064255
1.0275300684034645 13.097560709509203 3121.9770953470925 26.263467071895743 0.3081570391313281
1.049709827883162 13.101372951977922 2798.634528196363 27.285026163454255 0.3120304834800528
1.0720235714865385 13.105222558777024 2510.813604657041 28.34253280011545 0.3159549219280082
1.0944571529009393 13.108832076919267 2254.5464642279744 29.437315886188287 0.3199325059621048
1.1170224994928304 13.112440139016702 2025.9468921460527 30.57704417801351 0.3239994222544072
1.1396785630763158 13.11575155994298 1822.0794962780178 31.763565524197233 0.32815581904340957
1.1624248378520428 13.118822785313474 1640.0799312692473 32.99047416033697 0.33235822583835856
1.1852466819934742 13.121508602606394 1477.434176172589 34.26380415532494 0.3366391103683924
1.208132974124615 13.123804186126788 1331.9549844471042 35.589531120220926 0.3410255147855389
1.2310714637102729 13.12568704792332 1201.6670247566153 36.9696721966498 0.3455167907942636
1.2540590795030082 13.127202949227298 1085.0738153970083 38.399578002226015 0.35006333770439113
1.2770751781238843 13.128158311721371 980.4575066681889 39.88327711823709 0.35469384876592513
1.3000837929056899 13.128564111359074 886.6893032489368 41.42830598189217 0.3594412997841702
1.3230813393309613 13.12833555963875 802.5101582024288 43.037116362173784 0.3643078835724734
1.3460848256313225 13.127500020669606 726.827070945129 44.71188328391282 0.3692935600240236
1.3690423316759037 13.126051590509633 658.8222443486925 46.44492430028228 0.3743312159400141
1.3919354266831714 13.12375199020166 597.618576639236 48.250231142664695 0.37950058801048153
1.4147583827380827 13.120741478741607 542.4872032424324 50.13082344588668 0.38480503838530894
1.4375176026818681 13.11699565289386 492.840312989164 52.08988461756732 0.39024744005311485
1.460162342317495 13.112433370090956 448.10705159172966 54.13079162853469 0.3958296455898222
1.4826725788009063 13.106916329037254 407.71945329901456 56.25056919198626 0.40151341439034216
1.5050572781916913 13.100597339751799 371.2675221570627 58.456826262390166 0.40733735157243756
1.5272977467092785 13.093379874511323 338.31330382782096 60.75674140890951 0.41332163841609715
1.5493472991777708 13.08514839923382 308.5519355610256 63.15455449674995 0.419469481237776
1.5712243012007765 13.076068067279934 281.62189578580717 65.65477065511747 0.42578185267393415
1.5928628656425048 13.065778465686222 257.224662629639 68.26223852798996 0.4322635711003341
1.6142818233259073 13.054464023621954 235.13033027116924 70.98199509928045 0.438929947086928
1.63544959321673 13.042154054411558 215.1008449394534 73.81942191343263 0.44578805798856536
1.656347074508308 13.028702826169217 196.93148674624473 76.76975211418821 0.4527909738889463
1.6756850732262087 13.013944060978083 181.27312103784507 79.94898236163375 0.6035522415318393
1.6900046166857037 12.995352863295503 169.55547855256054 83.53176558151047 0.80409391229785
1.6999519976264432 12.97132129900065 160.53765242081082 87.54891374669947 0.9971429401576677
1.7062023376412967 12.940936396986128 153.3436167532563 92.01386128834258 1.1834776328150847
1.7094230371269865 12.904455670900646 147.44409333711843 96.93421230966436 1.3616715628587353
1.7101848063857834 12.86222497496345 142.42620059600068 102.31565647611926 1.5323949206475933
