M[M_sun], R[km], Lambda[1], P_c[MeV/fm^3], rho_c[fm^-3]
0.23841724892012095 16.20908015294055 2780876.1263280716 3.453507347168396 0.169602847481901
0.24841337802325741 15.866300216313956 2282267.893312232 3.635524153495157 0.17197815559883053
0.2586912055304233 15.563052977178689 1881713.1415065203 3.824716013342212 0.1743742972607058
0.269254572767351 15.29369579558287 1558288.19591403 4.020184679359038 0.17676548551643584
0.2801057932941853 15.054024521163722 1295655.3570867975 4.2222654395681225 0.17914385185846152
0.2912326128661259 14.840004747657146 1060702.552909545 4.432323025557492 0.18154602830125235
0.30265128898607235 14.64865726286277 905748.4073015111 4.650704907098298 0.18397588205600612
0.31435110332665667 14.47722462388029 761193.2311099157 4.8777782125381215 0.18643506674945756
0.3263336011641314 14.323428499508173 641771.9943437203 5.11084445240602 0.18886364252676918
0.3385992029383185 14.185272987794477 542663.3483078275 5.353120704175147 0.19131425956396278
0.3511468736519114 14.060997092025278 460175.4020699999 5.605092130261516 0.1937948366554733
0.3639806304877566 13.949159094700393 391294.94811060606 5.867171027027684 0.19631099936383842
0.3771009139846793 13.848392194013044 333538.85287464404 6.136239066215097 0.19880261617335748
0.3905011058634907 13.757792986323548 284988.3045938944 6.41574260835621 0.2013245690253302
0.40418530295249805 13.676256891417637 244100.99491000696 6.706481577912262 0.20388117056393024
0.4181542980559957 13.602781522090318 209517.07738624426 7.008537343016355 0.20646360227754515
0.4324098080021856 13.536813189493921 180231.48705763384 7.318562977965728 0.20902285647126964
0.4469443340274857 13.477406112110716 155333.8290679105 7.64112838146678 0.21162657746292415
0.4617643601782114 13.42415263942026 134139.66416598513 7.976767296062295 0.21427481445259713
0.4768673562982809 13.376379622892008 116049.04190551704 8.323531709083998 0.21692973103132213
0.49225251314805996 13.333726136846296 100581.90535956273 8.681405855763437 0.2195823083680614
0.5079141522393648 13.295643220088296 87326.28210856693 9.05387743624743 0.2222829789991218
0.5238630699422234 13.261799958878358 75940.57290853032 9.441551046710744 0.2250346248250608
0.5400910170408613 13.231764142947691 66146.18239583501 9.83899630427125 0.22776003614462384
0.5565946118062962 13.2052176335742 57702.001135369435 10.252410935812392 0.2305323506557302
0.5733693355881875 13.181820666446837 50408.564565316796 10.68274625133151 0.23335530345009478
0.5904281108669663 13.161469148432083 44098.71182356221 11.126992286579295 0.23618178765051512
0.6077546969192895 13.14376145616957 38636.12149825899 11.58602404441763 0.23902631629072366
0.6253521052199192 13.128518746255741 33893.40989298617 12.063895447484295 0.24193018601393446
0.6432211306890057 13.115502021936994 29771.55488811887 12.560244913672157 0.24488150349955987
0.6613452476527514 13.104493865827905 26184.709178269437 13.07012498100429 0.2478125475197304
0.6797416929070994 13.095309527775518 23055.964388065735 13.600957589510996 0.25080222835180743
0.6983814629700659 13.08786595279332 20328.157877930716 14.15364817937984 0.25385225135607875
0.717295645125791 13.081943596605026 17941.114385688805 14.722114108257763 0.2568977605309519
0.7364554765482729 13.077463095003699 15853.82240825638 15.312097447841584 0.2599923603899847
0.7558575031219419 13.074201076010048 14024.621936142363 15.926329549956794 0.26315293293299274
0.7754970832343698 13.072071187963552 12419.425182584542 16.561794748657746 0.26633758799808815
0.7953762229592752 13.070993127327773 11010.280952988958 17.21781775570515 0.26953681489059406
0.8154902027059858 13.070719427941082 9769.5713271932 17.900880912386143 0.27280790772606545
0.8358329417425586 13.071300254521715 8678.389296929525 18.61156451182559 0.276148595242714
0.8563824200204269 13.07254074252146 7716.336964306595 19.341554737604632 0.2794799093208782
0.8771589376075162 13.07446624982573 6867.721909807593 20.10156877980565 0.28288211258272
0.8981285506233035 13.076811780107043 6118.0665903313375 20.892857300555946 0.28635686697914237
0.9193080232318797 13.079719900548778 5455.703355531995 21.709937623372024 0.2898530276718589
0.9406833998710111 13.082959494753728 4869.075790303223 22.556256684498507 0.29339719736060066
0.9622145205266833 13.086264173456536 4349.576481213539 23.43737502528364 0.29702474732736794
0.9839469441506228 13.089969122344169 3888.643251865432 24.353638067916243 0.3007290321186822
1.0058291911560042 13.093769176353707 3480.1216060574407 25.296822844583613 0.3044291102079591
1.0278720280274898 13.097610025470816 3116.732328104651 26.278835455132903 0.30821559947189503
1.0500649999273095 13.101462352596876 2793.760064593375 27.3011739385182 0.3120904083515505
1.0723878976248136 13.105324258109048 2506.4978869886113 28.360022315480833 0.3160198260375018
1.0948387800768626 13.109025919031769 2250.6021020840553 29.455682621790455 0.31999892463337465
1.1173864521592767 13.112473602476172 2022.4624340047096 30.59633541395901 0.32406719185051897
1.140066415162435 13.115813894494126 1818.784788025505 31.783831396664567 0.32822523369879114
1.1628166125809638 13.118849013529468 1637.1276735509248 33.01238805615627 0.33243328530243127
1.1856487719315325 13.121540074858476 1474.7219560367641 34.286817114189034 0.3367160543353149
1.2085461751391038 13.123839583498851 1329.430903851149 35.613706018952406 0.3411044607181489
1.231504746212482 13.125786067169752 1199.4463160144437 36.99507404531125 0.3455975588393284
1.2544943465897707 13.127233358902501 1083.0060521481876 38.42701121275732 0.3501505646938121
1.277503538944996 13.12815971048667 978.6125339765515 39.91209533266915 0.35478343350302416
1.3005116527467324 13.128476555881377 884.9949754015588 41.45859042304956 0.3595334088774352
1.3235478442207542 13.128318002041237 800.8678163219488 43.06895356503395 0.36440266093553375
1.3465282549778346 13.127416472675641 725.3957579550207 44.745772980623435 0.3693931913325718
1.369495816246442 13.12592140383653 657.4969714795378 46.48103403376105 0.37443615700701816
1.3924011894661288 13.123708348067883 596.4330734493641 48.28820186047484 0.3796087369167469
1.4152283770423557 13.120669313095117 541.4460221587257 50.17076789853563 0.3849165995212566
1.4379786019315806 13.116877546210748 491.9016952576215 52.13192276446741 0.39036257793330353
1.4606351716409138 13.112281875338251 447.22049065888586 54.175049447099646 0.39594831427123284
1.4831752028055294 13.106845312954057 406.8824519773917 56.29826548538098 0.4016413026692689
1.5055519285908057 13.100455296551536 370.52133118897 58.50704638683719 0.4074696028838202
1.527795408953554 13.093268830292454 337.63837775099876 60.80964307991662 0.41345853127151394
1.5498537040102978 13.084965292114417 307.89837207098174 63.21030568992889 0.4196112160520138
1.5717131669732483 13.075737056148581 281.020630130472 65.71354901115888 0.42592851547706223
1.5933632940669118 13.065468629993632 256.6753090460203 68.32423488667887 0.43241579807878716
1.6147884354708488 13.05428866313762 234.6470683555715 71.04741587174742 0.4390880921857135
1.6359620345727794 13.041840659534417 214.6378669046258 73.88852916843045 0.44595257594473675
1.6568529416136057 13.028382835811295 196.5154535624365 76.8499659995088 0.4529976539868127
1.6774782153883476 13.01387071816576 180.06054573361646 79.94015590470383 0.4602361147036657
1.697754034095467 12.997943067936426 165.10688176177752 83.16760242527533 0.4676957189879909
1.717746065287371 12.981134377069793 151.5192573510073 86.5393691591048 0.4753870470673165
1.7373436628811831 12.962857880873885 139.1697871629347 90.06297591602974 0.4833149457577006
1.756583896338351 12.943351023387649 127.91748597093803 93.74647447412823 0.4914870269823107
1.775419618876175 12.922632592779435 117.68677991250274 97.59851982728298 0.4999222956673707
1.7938813112681153 12.900764822401179 108.36166097814876 101.62834777227 0.5086367966897396
1.8119050069405298 12.877534073847556 99.84716390116827 105.84583701975583 0.5176378274104134
1.8294647847799979 12.852999088724491 92.09479815768174 110.261597062112 0.5269380243026518
1.8465505442669092 12.826973413257022 85.00637399399923 114.88703351749149 0.5365609705217693
1.863148680143448 12.799698109372969 78.53822509219516 119.7343862439531 0.546526434556454
1.8792301153952338 12.77097978615022 72.62321947744796 124.81534973908128 0.5568374666620244
1.894797419563786 12.740930043355654 67.21211357683538 130.13940661008493 0.5675008355104524
1.9098066768917783 12.709499999964624 62.2669876489555 135.72647314515297 0.5785632744788103
1.9242479619861423 12.676601586835611 57.73480286953088 141.5928622427779 0.5900433418253731
1.9380845909510973 12.64209093103435 53.57862020185961 147.7561564554128 0.60195918764405
1.951322461090666 12.606386787394394 49.77749157394873 154.23528864599706 0.6143462141649985
1.963949561135483 12.569064962786463 46.28357598440894 161.0507243457361 0.6272364370415441
1.9759048901602756 12.530318713061178 43.08208122534605 168.20467839782972 0.6405792229888951
1.9872209862226626 12.489974690896418 40.133919478783326 175.74516462865526 0.654502877141987
1.9943767713993474 12.452952995230895 38.01813782444969 184.6584826876524 1.3815329007997614
