M[M_sun], R[km], Lambda[1], P_c[MeV/fm^3], rho_c[fm^-3]
0.23841724892012095 16.20908015294055 2780876.1263280716 3.453507347168396 0.169602847481901
0.24841814085395264 15.866153580512986 2282062.977037145 3.6356073983508 0.17197921450487774
0.2587019105639643 15.562678513385904 1881358.7170352265 3.824887248105578 0.17437639199314287
0.2692687670787671 15.29338572622995 1557834.7105061696 4.020460553003098 0.17676886030704134
0.28012549600072406 15.05364645727976 1295198.3424475987 4.222643219541638 0.17914826940913947
0.291259943170633 14.839651500611456 1081018.9556917562 4.432807920068896 0.18155148434390683
0.3026834233525814 14.648190906143332 905341.1496930928 4.651302398796594 0.18398235320395492
0.31438862984286225 14.47671431263871 760783.2551101045 4.878494007462971 0.1864425254110681
0.3263773428096492 14.322933791673732 641357.4163393921 5.111720306063661 0.18887276901792732
0.3386505593091118 14.184670482212644 542278.4427517762 5.354131402768639 0.19132434442774163
0.3512065080730287 14.060455728353794 459858.9894771297 5.606244005958466 0.19380590738381048
0.36404377742622046 13.948603217910229 390979.1642058546 5.8684708743360146 0.19632303617583965
0.37717434893388946 13.847919273420516 333242.8963636325 6.1377544930283365 0.198816649289044
0.39058132166938403 13.75731075357435 284728.6877636027 6.417425545913313 0.2013395689178808
0.4042730591612952 13.675734860582013 243863.20515154637 6.708339565604274 0.20389705546630152
0.41825111645560403 13.602338370938059 209309.7473336659 7.010663128516973 0.20648177672255616
0.4325120654864617 13.536234129397922 180019.37891242682 7.32088583756953 0.20904200453763563
0.44705559240155957 13.476901452815923 155162.12799916608 7.643657408992317 0.2116466845222817
0.46188558167164795 13.423665891102726 133977.22657590985 7.979511940434299 0.2142958281482715
0.4769979959438342 13.375991070958046 115909.97527078686 8.326620786472374 0.21695338179380924
0.49239319929706143 13.333368170793626 100457.48087370054 8.684736636877417 0.21960681356932452
0.5080661051000137 13.29527755245075 87209.67227256045 9.057460726341208 0.2223084262732341
0.5240211431278309 13.26140467993501 75835.82701083303 9.44539864717567 0.22506100907210055
0.5402597858982177 13.231437659736699 66050.50975596826 9.843279655047791 0.2277894084731898
0.5567726809332888 13.20501153118945 57617.92797300229 10.256990287492526 0.230562611961747
0.5735650395025954 13.181620314385802 50331.74903099411 10.687634775974427 0.23338640634482039
0.5906322023721466 13.161274828133598 44030.49856608434 11.132403407971392 0.23621621553035604
0.6079663234863258 13.143662630989784 38574.57785351049 11.591780818001439 0.23906171764617415
0.6255781566454139 13.128310867079493 33837.26743317009 12.070014296908969 0.24196656898305025
0.6434628722095427 13.115481398040016 29725.88221485361 12.56698711509584 0.2449215929492497
0.6615959762156793 13.104386017546476 26139.765906064455 13.077271874217418 0.24785353996045908
0.6800009320970901 13.095216047337338 23015.45629850093 13.608527598832632 0.2508441230244807
0.698655844444549 13.087741201502835 20290.633073299625 14.161661373023586 0.253895181377954
0.7175806667467455 13.081862647543256 17907.758961094947 14.73089731318541 0.25694481582456424
0.7367541983759325 13.077376480615895 15822.990574881285 15.321376659699606 0.2600405056478349
0.7561660595537313 13.07417853269252 13997.233550772271 15.936128588812133 0.2632020411434621
0.7758190342642074 13.072002387438491 12394.773597160181 16.572504798120985 0.26639126176864275
0.7957103727898045 13.070945600066942 10987.653974809687 17.2291083605165 0.2695915415177547
0.8158428033639235 13.070700074414756 9749.637536001354 17.912780791776502 0.2728638451060196
0.8361961826499816 13.071305374439211 8659.712326911851 18.62453971312907 0.276209587353767
0.8567580567197662 13.072573174008012 7699.749910614393 19.355212582250047 0.27954220189576584
0.8775503375113998 13.07456119776279 6852.929076887457 20.115943246211135 0.28294554142786854
0.8985301221918846 13.076852573392118 6104.705771813065 20.90798395021945 0.2864215915802486
0.9197247732439904 13.079772308680214 5443.383624619633 21.726381527309687 0.28992338860085975
0.9411008065061165 13.08290961405723 4858.031726454579 22.573543895915904 0.2934690782134925
0.9626567260729346 13.086343058300931 4339.578684894247 23.45555033799791 0.2970982268101499
0.9844038658315153 13.090068687943436 3879.731056411946 24.373365229870284 0.30080878544562223
1.0063005538214564 13.093809410038308 3471.6325921252937 25.317545976338696 0.3045103222037545
1.028353745734103 13.097650883813355 3109.306716196481 26.300606271413155 0.30829855591540106
1.0505594786142853 13.101580973380612 2787.1783813014995 27.324049214603942 0.31217529917858294
1.072889619071454 13.10537608733908 2500.4280114997496 28.38479929164313 0.31611177412983943
1.0953471499011849 13.109048070912332 2245.040473660766 29.481702767595618 0.32009301993414346
1.1179315548960083 13.1126206249067 2017.3646899596815 30.62366575781845 0.3241632026178012
1.1406100820238472 13.115868844391933 1814.1736967640322 31.81254301763082 0.32832357672734963
1.1633722065387626 13.11889183607588 1632.9080733914216 33.04343575242551 0.3325396298548503
1.1862213107706427 13.121585007372392 1470.8574737656838 34.31942253107182 0.3368250707435455
1.2091255556363345 13.123902459074204 1325.9471913139103 35.64795830735914 0.34121631553426757
1.2320927499973857 13.125844501126847 1196.3142204718474 37.031065383169576 0.34571199736058833
1.255099720856509 13.127289465052616 1080.1132138294583 38.465882350687345 0.3502741598644588
1.2781213385962307 13.128176765673139 975.9458668580496 39.95292967748775 0.35491037176472007
1.3011441381951552 13.128516104784593 882.5666848542363 41.50150315333593 0.3596639264807041
1.324174047221258 13.128304943596307 798.7513011613943 43.11406739613494 0.36453696199106567
1.3471823405260976 13.127457772739508 723.3111086335765 44.79321570889015 0.36953106802249036
1.3701421473024453 13.125839500428988 655.7010562094547 46.532205295206 0.3745848694526288
1.3930653350961308 13.123592507828176 592.4149504345323 48.34201139681529 0.379761998241196
1.4159070587822908 13.12058409269862 539.905792591423 50.2273756251389 0.3850746996293937
1.4386713320363005 13.116779930708848 490.4616093059206 52.19149882700695 0.3905257502436124
1.461325976654258 13.112159053610561 445.92717996515455 54.23777253278914 0.3961164939536962
1.483870367492435 13.106658331056769 405.7037960864901 56.36586468695267 0.4018225567024551
1.506250130412862 13.100242731730965 369.4367967805662 58.5782241294616 0.40765704466949854
1.528493953178153 13.092984605674303 336.64619495358477 60.884623097493225 0.4136525559310353
1.550552286329343 13.08467073928615 306.989145647274 63.289326280229325 0.4198121080517822
1.5724224421756074 13.075419235510166 280.1920425320822 65.7968621925498 0.42613639717949886
1.5940758498864875 13.065129534464774 255.90756341257082 68.41211141362322 0.43263157168963445
1.6154930146893973 13.053765162930837 233.92861554181079 71.14014860284323 0.4393122599288749
1.6366693039616598 13.041340603180796 213.9874671206228 73.98643053955145 0.44618547735014086
1.6575642579801502 13.027832824535851 195.91347741363955 76.95540298505496 0.4532484821604541
1.6781822375235944 13.013196620186932 179.49756412300525 80.05150707894789 0.46049669556395917
1.6984633075283626 12.997334830588764 164.59906641254045 83.285254648693 0.46796713031518794
1.7184417207517209 12.98044740685797 151.05979870999008 86.6637405423849 0.4756699890136745
1.7380388163770009 12.962092904343718 138.73636221207767 90.19451367424834 0.48360988274221123
1.7572878726309444 12.942611120272618 127.52017079459006 93.88565675548716 0.4917946253562206
1.776147314372835 12.92201992867475 117.32853388114796 97.7458625856648 0.5002437893626362
1.794590325645956 12.900008111937636 108.01985140687802 101.78440852547631 0.5089730970127303
1.8125755622275235 12.876595666948045 99.54410227474673 106.01121369499802 0.5179895411538128
1.8301304578841255 12.851953137915249 91.79844100436378 110.4369316690555 0.5273061861345986
1.8472190696872002 12.8259774772589 84.74092728411242 115.07302026193169 0.5369470427612598
1.8637971610200454 12.798607606349227 78.29858328576043 119.93177589088339 0.5469316178465662
1.879866386282385 12.769837924765223 72.40227409768217 125.02199170565521 0.5572518544209311
1.8954099177839685 12.739717024768064 67.00841941483856 130.35901864671385 0.5679366951678878
1.9104031038218199 12.708106536538986 62.07230767308338 135.95999285409243 0.5790220731047623
1.9248256833835367 12.675138781584332 57.55532012602106 141.84130084132508 0.5905260966956486
1.93866077196481 12.640749049564018 53.41498684455984 148.02060720852774 0.6024678796002874
1.9518820789162377 12.604944475156868 49.624897487328035 154.51693844663828 0.6148829144129572
1.9644766440038313 12.567419687790146 46.13417160564487 161.34828385306776 0.6277940382582606
1.9764337708609436 12.52869460334662 42.949034525407114 168.52611611142697 0.6411815328858779
1.9876980586449298 12.488285826636272 40.01594764811287 176.0859135639088 0.6551306279258274
1.9983043604999107 12.44640429250761 37.32015913040775 184.05353685864756 0.6696808374866339
2.0082243018401624 12.403187541797196 34.84209290455868 192.44858243678746 0.6848277803082888
2.0174028826278025 12.358220351425608 32.56209408138239 201.29588815051125 0.7006074666785981
2.025875213125414 12.311893823304215 30.466408468584156 210.6400246056315 0.717108468046519
2.0335891890947027 12.264034597389742 28.536740826649762 220.5028957560298 0.7343170341632892
2.0405431873816897 12.214557516158813 26.756633145589337 230.92296258671752 0.7523014300626524
2.046734853110034 12.163719937715268 25.119763914674948 241.9488855321999 0.7711416405159957
2.052155133971443 12.11139560540643 23.608760805427256 253.6046978161822 0.7908119933159796
2.0567421833176502 12.057440068975467 22.21549327524279 265.95985369200866 0.811463870972367
2.060550871198009 12.002079849433446 20.929383130061524 279.04082154946605 0.8330705983751474
2.063531587109724 11.945290853513914 19.74379145894398 292.92392206984556 0.8557651479659328
2.0656819266512687 11.886999743688206 18.650248262450486 307.65539003890035 0.8795853715145796
2.0670032168819974 11.827282568194628 17.63860272459053 323.30453317348787 0.9046033185126122
2.0674638713292426 11.766190894889396 16.70728891546654 339.9501385974555 0.9309437704963105
