M[M_sun], R[km], Lambda[1], P_c[MeV/fm^3], rho_c[fm^-3]
0.23841724892012095 16.20908015294055 2780876.1263280716 3.453507347168396 0.169602847481901
0.24840361364587454 15.866637671163524 2282834.892297826 3.6353709342948437 0.17197620659265464
0.2586737525882189 15.563474298405344 1882224.0840364485 3.824400855448132 0.1743704419018374
0.2692260171721664 15.294436820600493 1558994.6323129989 4.019676957678631 0.17675927450500312
0.28006781664800356 15.054864691753403 1296398.5347017222 4.22157019832811 0.17913572209080184
0.2911868612921046 14.840881239438101 1082266.22048703 4.431430695485128 0.18153598778558927
0.30259226264305533 14.649677894311653 906611.2019031646 4.649605414448866 0.18396397397490072
0.3142793135430672 14.478242901896067 761973.9185495953 4.876418231528472 0.1864204755467139
0.32625125950551026 14.32440655853588 642495.802135976 5.109232866495212 0.18884684962485312
0.33850677213142616 14.186145046975467 543339.018583168 5.351261073155718 0.1912957039573451
0.3510418268721547 14.061884082634933 460811.3743473044 5.602972820710191 0.19377446787751643
0.36386197429852585 13.950094270877335 391860.61782474944 5.864779555659301 0.1962888539233062
0.37696666395816913 13.849367454293903 334057.0955084736 6.133451109039192 0.1987767992053345
0.39035660919724074 13.75879104991607 285475.1970613232 6.412646589288483 0.2012969744463427
0.4040235483749994 13.677158453344825 244533.78961479542 6.703063646582954 0.20385194889270433
0.4179765858551517 13.603670474107238 209925.77078399074 7.004626974372835 0.2064301705038014
0.43221398190101273 13.537461430287104 180573.6026227224 7.314290237631228 0.2089876349213508
0.44673446811085743 13.4781169155929 155657.37487461627 7.636476563846428 0.2115895931390809
0.46153887334019306 13.424820356161625 134428.93526862498 7.971719043399837 0.21423616374570836
0.4766216284804945 13.377107441566247 116324.01181500507 8.317850234395305 0.21688623221548003
0.49199265026414013 13.334421983929012 100825.12742755804 8.675280030456333 0.2195372394857433
0.5076406594212644 13.296372620292857 87546.06548728657 9.047287412505968 0.2222361789533073
0.5235682006949638 13.262356840116773 76137.2435153186 9.43443424501431 0.22498556047439877
0.5397742400596688 13.232293340124656 66322.32217687552 9.831119461488585 0.22770602207331736
0.5562584784755781 13.205748626619986 57860.29943825526 10.243990016299144 0.23047670347243157
0.5730162362270114 13.18233956764727 50550.446350612736 10.673757061776355 0.23329811036284967
0.5900540089477053 13.161901787299602 44226.89363483239 11.11704267153112 0.23611848392352014
0.607362646132916 13.144145377070087 38749.85689251389 11.575439172754333 0.2389612244821446
0.6249392791852144 13.128854242212876 33996.70121529457 12.052645155195068 0.2418632912419775
0.6427853630072184 13.115742596700928 29863.536086929544 12.547849201364782 0.2448077980058066
0.6608835000291319 13.104684073399788 26267.43411125513 13.056985601968504 0.24773718397360286
0.6792631725721494 13.09554337826811 23131.993418001115 13.587040708878504 0.2507252082143202
0.6978783057849504 13.088013697562385 20243.060686079574 14.138916943531187 0.25377332997899144
0.7167719053971958 13.082123877462259 18002.904934087266 14.705968226770008 0.25681126030691137
0.7359050882157926 13.077639703048344 15909.90007397902 15.295040237741631 0.2599038589319911
0.7552833960371315 13.074310552555492 14074.50669773744 15.90831727211874 0.26306266380107474
0.7749022383740864 13.072062509705711 12464.446313441165 16.542109031267383 0.26623893236796803
0.7947633392904327 13.070988666657724 11050.637732475829 17.19706549847371 0.26943622674113493
0.814849612978013 13.07069586378686 9806.705648785623 17.879009385580737 0.2727050969441275
0.8351668001350266 13.07128381901314 8711.345393127105 18.587718011729766 0.27603650076741065
0.855692762855105 13.072531396349918 7746.976537622605 19.316454308962772 0.27936542783631907
0.876439975877487 13.074345036972433 6895.043134268212 20.075152044349696 0.2827655459585895
0.8973897918745484 13.07679435989594 6143.431106731512 20.86505897548111 0.2862379222331533
0.9185436829524308 13.079617284155962 5478.136566740952 21.679720426155463 0.28972373294500936
0.9398822453940823 13.082746324812293 4889.428882675395 22.52449067746771 0.29326511314972303
0.9613995967975976 13.08617611105276 4368.139080194894 23.40397798783923 0.296889729180696
0.9830966605964053 13.089760975460718 3905.388935193495 24.31739179619681 0.3005824950361798
1.0049711086428548 13.093625165830437 3495.0872615110616 25.258747623596733 0.304279897013581
1.0269872195698408 13.097447121482588 3130.561784929322 26.23883637376121 0.30806318527247367
1.0491452726372863 13.101305114456492 2806.436650612094 27.25914680204281 0.3119344444034071
1.0714469462872276 13.105094800447501 2517.875269962818 28.314504261571308 0.3158509071913727
1.093864959746387 13.108773992135843 2260.954327364206 29.40788205006103 0.3198260659104651
1.116402317883453 13.112321457444324 2031.8330481759178 30.54612933190357 0.3238908192265531
1.1390620850016413 13.115702942427374 1827.440313868952 31.731089384085337 0.3280445817859155
1.1618033120276017 13.118822016568709 1644.8743679436193 32.95535857099333 0.33223794794078776
1.1845973494031437 13.121417989411867 1481.8227697736113 34.22692807603061 0.336515814974601
1.2074761320826335 13.123782637315117 1335.8934771907927 35.5507938763126 0.3408990138276217
1.2303954092448393 13.125654755677928 1205.3512193437437 36.92896970072594 0.3453873726141601
1.2533724079130675 13.127177944138754 1088.3459052661694 38.35562252414613 0.34992357630034066
1.276367105136984 13.128137086823008 983.4669040059007 39.83710339213861 0.35455031242285406
1.2993647074239278 13.128532636972208 889.466849931503 41.379783977428445 0.35929372176510344
1.3223619083522038 13.128360189811335 805.0016432269894 42.98610754938704 0.3641560335249048
1.345352627621768 13.127565984545868 729.093949275276 44.65684759329808 0.3691297222128446
1.3682838651607057 13.126031331639448 660.925327655877 46.38707402068891 0.37416309312430346
1.3911641251233486 13.12382821686739 599.5558535996952 48.18940073626368 0.3793273297130524
1.4140061658950853 13.120909179250319 544.278087372347 50.06683244434041 0.3846263174779111
1.4367275845638048 13.117106836154223 494.49167684229076 52.02254102106374 0.39006299331800703
1.4593646031286078 13.112534760739157 449.58258470396663 54.05989381231755 0.39563954696684034
1.4818990077217373 13.107221331427802 409.0919041426465 56.17416688951604 0.40130855656442904
1.5042730124298103 13.100871052925584 372.504765860082 58.37638305514617 0.40712550981045487
1.5264900895901958 13.09365956584533 339.45294670635917 60.6720049112922 0.41310236706046655
1.548554746234595 13.085528811337568 309.59315482024635 63.06525591524797 0.41924245976721736
1.5703963724388341 13.076297735744467 282.5688727307159 65.56062574149529 0.4255469438084606
1.5920422517678758 13.066191857519534 258.1108805726833 68.16294192659551 0.43201975643249557
1.6134613726173108 13.05491708467161 235.93031426953493 70.87721655421674 0.43867666035956526
1.634634925805125 13.042630925103959 215.8363597444207 73.70705849206675 0.44551738717969874
1.6555304248951506 13.029272248200616 197.61374004482644 76.65647330050933 0.4525373466283313
1.6761464389911442 13.014719192533695 181.06501970606158 79.7358186869181 0.45975793054115416
1.696437131663836 12.998940375818588 166.03217348041684 82.95171198181416 0.4671976824011178
1.7164148805310628 12.982133947544826 152.38415443821845 86.31115959218964 0.47486787571666045
1.7360448180443089 12.96408345555704 139.95637096001855 89.82162807510487 0.4827737900820639
1.7552936111562325 12.944747189901914 128.6502629541 93.4911126146978 0.4909226671230494
1.774165741398675 12.924223882333887 118.35769897936612 97.32819903634682 0.49933247075205334
1.7926446953841402 12.902499325461775 108.97706735295448 101.34204709955826 0.508019838186546
1.810666837491314 12.879317981742172 100.43036127494807 105.54246160330311 0.5169926257626015
1.828232226189757 12.854692725234319 92.61335903858782 109.93997141609891 0.526262685365853
1.8453427833027578 12.82882243638264 85.49010576590861 114.54588669520696 0.5358528161956593
1.8619602841082572 12.801690411705573 78.98954636099471 119.37234386964822 0.5457832673100347
1.8780768001990173 12.773209705621069 73.04548335290426 124.43234971236693 0.5560629317116236
1.89365432703832 12.74328257897202 67.60560137961036 129.73663843777325 0.5667014694998076
1.9087003722498037 12.711939443338366 62.63406363898979 135.29822429065436 0.5777218894543866
1.9231631542916945 12.679126774121483 58.068720634321664 141.13728214592973 0.5891580787791308
1.9370438526226852 12.64487744083271 53.8886083419307 147.27124459335934 0.6010264212941524
1.9503211829485188 12.609200471046421 50.05984271189967 153.71887338001946 0.613362154525443
1.9630019740721616 12.57220552486868 46.55412394356235 160.500449948899 0.626197467271409
1.9749957285004647 12.533521260140217 43.32516809421715 167.62968263604424 0.6395213721050749
1.986330773092382 12.493236362333096 40.36244971808421 175.12937924552568 0.6533743709427081
1.9970290015346877 12.451766612094262 37.64289392015574 183.03227683784354 0.6678215196533319
2.006995938028287 12.408552524479289 35.140524255007065 191.36592671193708 0.6828875958683787
2.016261296669254 12.364022180015088 32.844803351052846 200.14375700660264 0.6985630779613518
2.0243837492821433 12.318685995760159 30.791334576517716 209.57600570281494 0.8773833577138954
2.0296011440129127 12.273611650298777 29.151840260547132 220.01738992298638 1.1340296753025345
2.031775938909945 12.2265392328776 27.834419097453527 231.6774102171788 1.3801952705483016
