M[M_sun], R[km], Lambda[1], P_c[MeV/fm^3], rho_c[fm^-3]
0.23841724892012095 16.20908015294055 2780876.1263280716 3.453507347168396 0.169602847481901
0.24842218920456524 15.865962059717527 2281701.5174391805 3.6356934169589223 0.17198030869410552
0.2587121953724849 15.562433019908019 1881147.6143539199 3.8250641941780694 0.1743785565926107
0.26928432507353633 15.29306339397917 1557471.6722426368 4.020745637799963 0.17677234777862458
0.2801466464087974 15.053187930335715 1268581.926387119 4.223033625385328 0.1791528345997805
0.2912839883246887 14.839103913682228 1080540.1228677866 4.43330903549208 0.1815571229045822
0.302715369716793 14.647714674699069 904862.8251857914 4.651919896182744 0.1839890410239785
0.3144260976222657 14.47620592635161 760410.4588987787 4.879233790307964 0.186450234029437
0.32642252394184645 14.322387465284125 640954.2035799309 5.112625543251785 0.18888220168869527
0.3387037492915701 14.18409194282033 541895.595227168 5.355176037649421 0.19133476791159643
0.351266294996397 14.059878789411774 459497.77852991165 5.607434590325049 0.19381735014288579
0.3641103340508414 13.947997977673998 390632.31469071325 5.8698144381761495 0.19633547781052377
0.37724790875583086 13.847365859654538 332942.52248910576 6.13932094282933 0.1988311548864654
0.39066490785400104 13.756702611169839 284445.0833400401 6.419165190859777 0.20135507423901586
0.4043636770518879 13.67521560721252 243610.69022939657 6.710260206972908 0.2039134760275152
0.4183492347375234 13.601756858203366 209079.77544289376 7.01286067874158 0.2065005647214885
0.4326209482083697 13.535789134038993 179824.27385410093 7.323287173238477 0.2090617995070263
0.44717260547358545 13.476483788037044 154974.0810723353 7.646271939952626 0.21166747137757697
0.4620158626932275 13.423416809973354 133823.9968086112 7.982349444052444 0.2143175527979619
0.4771368910854469 13.375747298328486 115769.6596973584 8.329814495877756 0.21697783364564172
0.4925366050029435 13.332978711943598 100321.35743023136 8.688180315108989 0.21963214937653078
0.5082243317198771 13.294910513592372 87085.56408130593 9.06116555485898 0.2223347366707636
0.5241927215152299 13.261167451747282 75723.7744462302 9.449376838088268 0.22508828882028808
0.5404355364082936 13.231102526059228 65952.03573281567 9.847708555339675 0.2278197788820929
0.5569572353611693 13.204708317806046 57531.122302909374 10.26172534851959 0.23059390222743456
0.5737610211884221 13.181393889634824 50252.82207384702 10.692689629220089 0.23341856749359988
0.5908406396085779 13.161012846404372 43957.88424594838 11.137998857882936 0.2362518161874568
0.6081919522295588 13.143458131958205 38511.57598286216 11.597733817897687 0.23909832569793368
0.6258118745745304 13.128123887637166 33499.19863127236 12.076341843899167 0.24200419287779665
0.643697371426327 13.115136286488951 29429.1195248108 12.573959554054303 0.2449630514022498
0.6618551949494499 13.104211787975911 26092.027450651094 13.084662973591191 0.2478959330946454
0.6802734099869484 13.09513337278882 22972.202763448135 13.616356427718046 0.250887450081243
0.6989351464763207 13.087646500172553 20253.473449458215 14.169948701996553 0.2539395800571716
0.7178752114008087 13.081842512288935 17874.000482998854 14.739981367436682 0.25699348289353335
0.7370614544371196 13.07732956411272 15791.5251689258 15.330973897862243 0.2600903009874671
0.7564861254028834 13.074148327171743 13969.30102032387 15.94626366642893 0.26325283342340666
0.7761543187414958 13.07203316504385 12369.478177465053 16.58358259149593 0.26644677850009196
0.7960628665333129 13.070954506761534 10964.494930908975 17.240786867496073 0.2696481483433361
0.8162028462701226 13.070742591763436 9728.93810876817 17.925089741079148 0.2729217053877411
0.8365690140942295 13.071370253534058 8641.922253006454 18.63752602153776 0.2762688783963632
0.8571477270645617 13.072671976931716 7683.859674281434 19.36934080409511 0.27960663983163064
0.8779399050795044 13.074518523562851 6837.878544935429 20.130813053749414 0.28301115601787336
0.8989449478465109 13.076923094047626 6091.023388938087 20.92363215883277 0.2864885478516673
0.9201539740812047 13.079822135405593 5430.956444801314 21.74339315572705 0.2899961787353558
0.9415354083459648 13.082924440592645 4846.673824291935 22.591428288107018 0.2935434421657292
0.9631164061653203 13.086419524985038 4329.457616310391 23.474353871490074 0.29717424607524856
0.9848709959174746 13.090173195858569 3870.587960106688 24.393484910523878 0.30088901417567526
1.0067849436891925 13.093952893248431 3463.403360023391 25.338986772601253 0.3045943466589625
1.028851574325884 13.097802213515426 3101.739882319584 26.32313147093753 0.30838438689287806
1.0510697813950538 13.101658251480208 2780.1500947154905 27.34771760737813 0.31226313328513533
1.0734207034055239 13.105444727410658 2493.913651948766 28.410436506261952 0.31620691459256617
1.095888027028869 13.10912951834444 2239.2726654628627 29.508626847645 0.3201903840853339
1.1185014989746302 13.112811561925927 2012.0496600308466 30.651946117895676 0.32426255076665716
1.1411729820769894 13.115979451026487 1809.5030538087153 31.842253269179825 0.3284253402648385
1.1639655407063365 13.119079124906735 1628.5986267032931 33.07556486395124 0.3326496784702193
1.1868116885356574 13.121658824488135 1466.9477039115282 34.353164315147964 0.3369378866023489
1.209730257945224 13.123949193547704 1322.333306176121 35.68340510249727 0.34133207115050807
1.2327209617137787 13.125933288617805 1192.9642723736338 37.06831266605487 0.3458304293008269
1.2557214715855634 13.127306577686522 1077.1268816718841 38.50611190858386 0.35040207428472125
1.2787557198290092 13.128233615134503 973.2782662214028 39.995191967022166 0.35504174895694934
1.3017846858720912 13.128511094596533 880.1118211227076 41.545917490443635 0.3597990111698253
1.324822191554195 13.128237229763583 796.4707836629486 43.16076090898094 0.3646759656604209
1.3478300435822035 13.127422163478379 721.5639153170812 44.84232079391748 0.36967377580572897
1.3708334665756554 13.125874266753568 653.7838981671453 46.58517227256005 0.37473880055607445
1.393762271980497 13.12355971284467 593.010519726906 48.397710547419166 0.3799206416002138
1.4166140253107828 13.120499723754628 538.3050516672884 50.28597264421117 0.3852383556461203
1.4393764318718754 13.116668244225758 489.0311058506371 52.253170017029994 0.3906946608786326
1.4620340928418338 13.111987760616952 444.582662941753 54.30270305408794 0.3962905924428597
1.4845777196003935 13.106477052718523 404.52170216924935 56.43584668145419 0.4020101997286876
1.5069689790769536 13.100004895099397 368.3115188271506 58.65191272401023 0.4078510986144122
1.529222813130656 13.092664635399327 335.61214921049344 60.96225016697323 0.4138534303268049
1.5512913950949776 13.084390417532028 306.0682667177546 63.371138804418706 0.42002009791275413
1.573170262244976 13.07513900872344 279.3262629654779 65.88312138317374 0.42635162971651575
1.5948141760228864 13.064731497919349 255.11341755218075 68.50309791504074 0.4328549815879529
1.616229666526799 13.05334858133681 233.1987739901764 71.23616598607731 0.4395443678356464
1.6374123573038235 13.040905003533958 213.31931319126303 74.08780268470487 0.4464266355158001
1.6583100479632866 13.02734816295361 195.30062757988253 77.06386895082116 0.4535051095393126
1.6789297099426899 13.012764690501402 178.9413173226245 80.16681610174365 0.46076653846919746
1.6991981035874515 12.99673332052754 164.0820898436283 83.40709258481296 0.4682481976421341
1.719168238161777 12.979686708991013 150.57242288833342 86.79254091626717 0.47596300680857845
1.7387738765707488 12.961386647787265 138.29583700979484 90.33074021233767 0.4839153330167067
1.758010033190164 12.941854312725324 127.11982133583165 94.02980528593865 0.4921131993380195
1.7768789729041141 12.921276352094806 116.95451585703238 97.89846817018821 0.5005767662515272
1.7952878220300494 12.899003662712074 107.67125002951364 101.94604936245798 0.509321422037239
1.8132728039792707 12.87566918885448 99.22870179455929 106.18250992680125 0.5183538442747305
1.830830398824832 12.851071038743278 91.52192070179866 110.61854919703482 0.5276875406371702
1.8478802241526548 12.824867704402637 84.47678703616148 115.26567916963236 0.5373469651115201
1.8644580791115613 12.797495400419418 78.04585945041656 120.13522919082801 0.5473475363992258
1.8805200087856144 12.768661613650531 72.17157111194683 125.23605907789208 0.557681132655682
1.8960542193299958 12.738441620980986 66.79127449313046 130.58653179627623 0.5683882360075999
1.9110439810981 12.706973126136507 61.88030682499259 136.20192455966918 0.5794973988688997
1.9254300556307142 12.673732625255015 57.37262651436298 142.09870032747173 0.5910262639654302
1.939247651166865 12.639272310653922 53.248089334761175 148.29460890736587 0.6029949435566292
1.952434760593665 12.60315633320131 49.459783838355904 154.80877402939043 0.6154390242673569
1.9650169774625144 12.565735942583219 45.989331973392034 161.65568438565796 0.6283685464847311
1.9769273824323994 12.52678505896299 42.80960593723146 168.85397008327993 0.6417887060011706
1.9881943748742068 12.486446950964512 39.88743828814601 176.435782039391 0.6557730083835172
1.9987816000772098 12.444582462770272 37.20090846147253 184.42711677873467 0.6703609814200413
2.00866541135392 12.401127939027162 34.73265092626455 192.84369785129383 0.6855344462075901
2.0178098184063176 12.355996692347679 32.45860608032378 201.7183625272307 0.7013570700239778
2.0262577276009304 12.309653977503169 30.370844662846594 211.09203011713595 0.7179042201763989
2.0339278167231156 12.261684134130528 28.448909186581915 220.98245546161127 0.7351474603099579
2.0408695193477064 12.21226223997688 26.677053509774847 231.43676620144987 0.753184577458138
2.047025159678467 12.16128019098509 25.04406970112988 242.49523876919116 0.7720661055192873
2.052396820060462 12.108789087336984 23.537440077428887 254.19090341160157 0.7917969012038714
2.056968436771564 12.054801641991363 22.149748833621167 266.58455331768084 0.8124988338980423
2.0607188086375277 11.999344085647131 20.869828519833145 279.7120753489377 0.8341741207121012
2.0636735064039633 11.94247903117223 19.687350291674367 293.6407780224266 0.8569280921340715
2.0657646812295356 11.884031355244993 18.597328913759217 308.42683671774716 0.8808283998849252
2.0670426764942036 11.82421727831771 17.590385191753388 324.13012570184634 0.9059156092494861
2.0674690222931176 11.763010359895144 16.661379752477487 340.8347980290522 0.9323319510916813
