M[M_sun], R[km], Lambda[1], P_c[MeV/fm^3], rho_c[fm^-3]
0.23841724892012095 16.20908015294055 2780876.1263280716 3.453507347168396 0.169602847481901
0.24838176008398707 15.867359823157825 2283529.766109671 3.6349624469116812 0.1719710104786498
0.2586270094352782 15.56475019761791 1883835.8275167737 3.8235607240026317 0.17436016448762728
0.26915502372161915 15.29607290606215 1561027.3015730155 4.018323653388024 0.17674271939470299
0.279969864719697 15.056902473849167 1298631.8606649379 4.219717262518736 0.1791140548812758
0.2910367575112173 14.844673579670273 1085552.7093765284 4.429052722943984 0.18150923079141731
0.3024359849247341 14.652081978187613 908708.8390836245 4.646675659169545 0.18393224319115867
0.3140948639652473 14.480711967652885 764049.6216043652 4.872755616083635 0.18638080750364192
0.3260349577804041 14.326977042820477 644422.7723201384 5.1049394705031546 0.18880211196780494
0.3382577615926465 14.18892735158649 536518.2728119842 5.346307319719767 0.19124627485066847
0.35075865483019375 14.064528485327441 462473.7907776563 5.597327830434025 0.19372021362596928
0.36354176170864494 13.95265033483513 393392.7978615056 5.8583634488100484 0.1962290385148156
0.37661134251510325 13.851887767719065 335482.81100313645 6.126026638212533 0.19870804731503436
0.389963826899733 13.761229416563596 286777.96499024547 6.404402433018328 0.20122349491782382
0.40359286963202196 13.679468040944538 245709.21749991598 6.693963046832208 0.20377414313587283
0.41750682089367763 13.606030723502718 210995.3957530462 6.994216474483973 0.20634116572993683
0.43170475746783865 13.539884559158724 181550.94541868204 7.302915917870763 0.20889387280620397
0.4461825096852481 13.480321960905375 156524.40545228813 7.624094090798136 0.2114911461597336
0.460936394700719 13.426914848240363 135223.08594209712 7.958282354043663 0.2141332890330929
0.4759704579169822 13.379042463529206 117037.96285520564 8.302730006082353 0.21677046790024262
0.491302871699343 13.336281515768317 101466.22793941245 8.65897846962164 0.21941730574783405
0.5068991641912101 13.29804112526478 88121.42591668169 9.029751857729444 0.22211164757085405
0.5227796406535721 13.263955830036096 76658.57266961921 9.414861788527272 0.22484656372776604
0.5389405004738596 13.233780950715087 66788.32436925228 9.810163956055558 0.2275623233610346
0.5553715695021576 13.207121238900092 58279.31731817374 10.22158864574895 0.23032867056804554
0.5720766680471309 13.183621803796306 50930.72042529292 10.649845647543751 0.23314597566906345
0.5890597481776474 13.163031871788613 44570.894920696745 11.090579938750013 0.235950116644645
0.6063128149929569 13.145157574993304 39059.31048778453 11.547288795179783 0.23878811336216146
0.6238321131036899 13.129715369521895 34272.488102882584 12.022727125203147 0.24168539721555943
0.6416211421320659 13.116511917684983 30113.453742935035 12.514889514680409 0.24461181814432023
0.6596752683724668 13.105495699405925 26494.81234434511 13.02205086775132 0.24753680879251858
0.6779814542709904 13.096094570484917 23334.9684047987 13.54965493678993 0.2504773664430963
0.6965416299919174 13.088554943946853 20580.610528697594 14.098219305009138 0.25341206219125034
0.7152087679212573 13.082434380292542 18186.63241268741 14.666066520715193 0.2690351138779872
0.7337164895043745 13.077174254717125 16125.4436129019 15.25894047768562 0.2859511833229318
0.7521292322893405 13.072362118673075 14334.638459073167 15.880413794453082 0.30227305304989566
0.7704647662953181 13.067802132020818 12771.527581386252 16.525815041663634 0.31845947934844954
0.7887758752840697 13.06330106471723 11399.376285346094 17.19829399359762 0.33347354477705515
0.8071440283988266 13.05884727495042 10187.450155831206 17.901628890316797 0.3481571640810317
0.8255528316399142 13.054317518909475 9115.504704341813 18.633420985383314 0.362813253166167
0.844048895612488 13.049795333995155 8165.102262016207 19.39142095782167 0.37677299778317747
0.8626397955343329 13.04496146379749 7318.546290175216 20.182704795939465 0.390430649976206
0.8813649052615169 13.04020632292487 6565.040681739774 21.008735845499398 0.4037498122251774
0.900256874936448 13.035308766689761 5891.5043603750755 21.86023394621218 0.4165832023321234
0.9192845095199421 13.030259296599416 5290.068210190436 22.74727239881367 0.4292614363628922
0.9384954103097348 13.025177790838923 4752.058621979094 23.67204045637921 0.4417405570114152
0.9579059741460122 13.020075179954437 4269.945836048048 24.631146727088957 0.45362881780522907
0.9775060028742142 13.014894072194936 3838.2293358684387 25.622757448052994 0.46521735132146985
0.9973121615650283 13.009621877931467 3450.795530618979 26.655755449930545 0.47676832557036425
1.0173151975790387 13.004402478906432 3103.6707405345805 27.731558435125226 0.4882544454574629
1.0375125482028724 12.99910795333359 2792.3259670088464 28.841876256412977 0.49934178092161363
1.0579303441284975 12.993807997368878 2512.789164710426 29.994344178568255 0.5101235126383783
1.0785261110045947 12.98840142370721 2261.919784344002 31.193969296919423 0.5208072876671582
1.0993239092350602 12.982935263522986 2036.757922784407 32.442355825318025 0.5314535453751481
1.1203231713443396 12.977487613022811 1834.5859847283928 33.728704129659405 0.5417566970935569
1.1414796027417695 12.971859584244816 1653.086283846819 35.06612330155857 0.5520155419404529
1.1628316094474551 12.96633352589341 1490.1269274025528 36.4575708034535 0.5622503480653235
1.1843507104735116 12.96063593031614 1343.6552303927895 37.90496383228893 0.5724557462935022
1.205985709075988 12.954760198899402 1212.1349039751592 39.399641935374994 0.582426876680451
1.2277842378007835 12.94877797325712 1094.0359759325534 40.95191262308919 0.5923502150016491
1.2496925363423435 12.942562871041508 987.8454715038345 42.56667097032359 0.6022786834061137
1.2717017617291533 12.93611570983915 892.4603383118343 44.246259260249914 0.6122133834741706
1.2938127651254474 12.929492624966983 806.6349660641653 45.99019703877272 0.6221124907322887
1.3159861675466007 12.92256974696856 729.5150463355817 47.79464958410759 0.6318969777956772
1.338213453343818 12.915349503296365 660.1523244792724 49.67212384697859 0.6417292275838341
1.3604811450314611 12.90772632030343 597.7245611532454 51.62554225897162 0.6516140638394433
1.3827597990390397 12.899754513536625 541.5539540395923 53.65799499539183 0.6615579485453363
1.4050333287446035 12.8913308654827 490.98271277023935 55.77275642416223 0.6715688133483299
1.4272778447814647 12.882400723482217 445.3968923073239 57.964659760042096 0.6815584978248302
1.4494776046547218 12.872999917255466 404.3517260890019 60.24481162642668 0.6916316525562367
1.4715913931302136 12.862988956134776 367.35175535177444 62.61894798586957 0.7018187462013638
1.4936336322312123 12.85245354431727 333.97684055448804 65.09126185324493 0.7121301877380122
1.5155403605357765 12.841197643086627 303.8412220306211 67.6662102769394 0.7225738813487839
1.5373183302092694 12.829313849996492 276.6773082420816 70.34855160989154 0.7331525134654311
1.5589175918228804 12.816634934898557 252.11732117619462 73.14339813659986 0.7438696015623372
1.5803318454874509 12.80321377274186 229.9317633295321 76.05610869327731 0.7547652596672692
1.6015375737846245 12.789035471188983 209.87342460996382 79.08753086480043 0.7658161784666959
1.622497968561117 12.773937542727735 191.72988812408116 82.24914545113697 0.7770846820050542
1.6431936955497894 12.757925781334995 175.29567662238048 85.54796750017233 0.7885572725131691
1.663618019490553 12.74103237476361 160.4119215029097 88.99115911288716 0.8002790836667636
1.6837179888357598 12.723141242430344 146.91785639734027 92.58630813863631 0.812279269747981
1.703483997178857 12.704178506396834 134.68072391973257 96.34148791898396 0.8245606312592342
1.7228871210456322 12.684260326690913 123.58472477834812 100.26541793633378 0.8371463713305475
1.7418892732145623 12.66315377680475 113.5044243273189 104.3674548671118 0.8500768764708475
1.7604975322507634 12.64095834963932 104.33923435942 108.657535383394 0.8633580576506621
1.7786548276642917 12.61761678904575 96.0153674010061 113.14646436053248 0.8770291743948514
1.7963743088355186 12.593047984918671 88.4251105208143 117.84573636658085 0.891123314596712
1.813606113247064 12.567278499446326 81.52320501952804 122.76770962241311 0.9056599081269595
1.8303309907231091 12.540242537095668 75.23446274683174 127.92368243111449 0.9206829672519653
1.8465045547175734 12.511872952498647 69.50238129279418 133.32445389826728 0.9361856908386046
1.8621671131945405 12.48229683608349 64.27041813776182 138.98966498150784 0.9522584046751635
1.8772273428364084 12.451323383593879 59.49544879543648 144.9359885085738 0.9689252095312075
1.8917010308342377 12.418939683256772 55.12996452216925 151.1811317193393 0.9862431796739068
1.9055507873841038 12.385176271407687 51.13856242518286 157.74444546385635 1.0042604149782632
1.9187577126059778 12.35000584118092 47.491275948928646 164.64624181508898 1.0230255675977613
1.9313304171531924 12.31340652603556 44.14617154441716 171.89412022437045 1.042539292916646
1.9432191305584827 12.275383634378622 41.08484382421001 179.525914118251 1.062921951561372
1.9544037749447702 12.23585775075504 38.278178623821496 187.5677827551051 1.084244714083478
1.9648734169061093 12.194887416559675 35.70491279759734 196.04202257824016 1.106552321493911
1.9746204144501287 12.152448505706442 33.34417220285857 204.9696354104757 1.129894434775897
1.9836141667837401 12.108443972125416 31.173135194925838 214.39749922955752 1.1544083344359457
1.9918397508802324 12.062945789449417 29.17970238137207 224.3507978336736 1.1801488854525162
1.9992877673818001 12.015958772497038 27.347308910993362 234.86380597360306 1.207203929323344
2.0059410160260964 11.967421232404092 25.661055488171733 245.99047235904163 1.2357223275175322
2.0117980293188356 11.917437854697297 24.107896609437287 257.75116381439375 1.2657408000429768
2.0168299947487265 11.865893865003303 22.680858102190804 270.22061889264046 1.297470452734896
2.0210165015419856 11.81284288682221 21.366535594409875 283.42185743925427 1.3309513503277401
2.024367784016591 11.758316433886653 20.153632746735234 297.43699046627336 1.3664127128408325
2.02687923123149 11.702322490872621 19.036129831993215 312.30833473812845 1.4039505384231776
2.028516403682942 11.644846712747496 18.007112301659358 328.1125024796212 1.4437659464764885
2.029297326241846 11.585901988416941 17.05658772387834 344.92660502607316 1.4860575913754985
