M[M_sun], R[km], Lambda[1], P_c[MeV/fm^3], rho_c[fm^-3]
0.23841724892012095 16.20908015294055 2780876.1263280716 3.453507347168396 0.169602847481901
0.2484119467019265 15.866342438004196 2227725.6200417457 3.6354913255035304 0.17197773801436142
0.2586880142843733 15.563138448778096 1881894.394718115 3.8246484876168148 0.17437347121157568
0.2692482197000835 15.293792213954214 1558402.7129817514 4.020075892272988 0.17676415471284548
0.2800977909357952 15.054217930658224 1295556.5209053312 4.222116470265441 0.17914210989358728
0.29122091866707356 14.840258292340973 1060951.966595559 4.432131821932368 0.18154387687427218
0.30263804826551055 14.648966180898373 905957.4552143745 4.650469308887384 0.18397333040401892
0.3143360194083373 14.477461841769294 761399.9002644581 4.877495971455615 0.18643212576642748
0.326314659683815 14.323697499173727 641922.8323607977 5.110499107749353 0.18886004399757644
0.33857889645954437 14.185443782141382 542816.8739637965 5.352722198408848 0.19131028322878818
0.3511249511933863 14.06111773165404 460313.26371791813 5.60463796852466 0.19379047168690666
0.36395502469911156 13.9493578855454 391416.5756518053 5.866658532250711 0.19630625357312706
0.3770718658108546 13.84860120756057 333629.21398833266 6.135641588913374 0.19879708342969615
0.39046904562181994 13.758030023165835 285100.4652795659 6.415079099333224 0.2013186552206206
0.4041508470971266 13.676388840700165 244177.31773475296 6.705749066764682 0.20387490794544508
0.41811610525098386 13.602965021551427 207012.05458353783 7.007699273724327 0.20645643718762477
0.43236479556564067 13.536958497346694 180305.72989420657 7.317647229455893 0.20901530766667886
0.44689927143124764 13.477598764715575 155408.58959032714 7.640131370953908 0.21161865072058544
0.4617143764042247 13.424219244066723 134205.18200551998 7.975685300875182 0.21426653042213584
0.4768140908478426 13.376594299686895 116116.89176148022 8.322313962598859 0.21692040765438184
0.4921957823000073 13.333880690909668 100637.99377013391 8.68009284759759 0.21957264831287818
0.5078543606008936 13.29577853845426 87375.449888668 9.052464909526543 0.222272947727939
0.5237999497837355 13.262029782132068 75985.34109980524 9.440034352074148 0.2250242243569403
0.5400231392134509 13.231836364405618 66179.06430058496 9.83730788447374 0.22774845810125618
0.5565216739874651 13.205390152948551 57735.50344033769 10.250605864349927 0.2305204223689937
0.5732961402684867 13.181968549139286 50438.854451276966 10.680819339107364 0.2333430436063933
0.5903462766848057 13.161546068358774 44126.63822473554 11.124859439350637 0.23616821755981
0.6076727336908989 13.143944553570709 38661.81131654021 11.583754987151085 0.2390123626929903
0.6252623907528683 13.128584241100702 33915.36669009027 12.061483710290695 0.24191584571010605
0.6431270420264287 13.115559911502263 29790.18388007988 12.557587555967299 0.2448657027245129
0.6612446943753872 13.104481390188903 26202.153955473877 13.067308157803208 0.24779639106479676
0.6796395656546014 13.095335569558872 23071.258916070827 13.597974043166746 0.2507857165230649
0.6982739540083062 13.087883216644235 20342.944442019412 14.150490004702581 0.2538353316965762
0.7171856562533828 13.082000687784177 17954.330386174173 14.718652552379348 0.2568792155317682
0.7363395637159255 13.07754703634069 15865.660448588204 15.308440459222163 0.25997338607807857
0.7557337936325313 13.074244873764274 14034.90077190234 15.922467745961791 0.26313357937330417
0.7753687399294912 13.072095387061681 12429.321095648607 16.557574036289925 0.2663164357571032
0.7952472446452804 13.07098565450702 11018.489371472733 17.213368311414246 0.26951524801416454
0.8153599200757953 13.070805250778115 9714.309881930836 17.896191424343037 0.27278586400059124
0.8356884366710321 13.071318210289375 8685.361590500299 18.606451412726678 0.2761245602623872
0.8562388506586944 13.072575695708165 7722.788893094469 19.33617270170739 0.27945536219189254
0.8770068562217401 13.074503624086088 6873.872693181696 20.095904424607173 0.28285711801954005
0.8979726697979702 13.076777033532355 6123.322321905263 20.886896620233177 0.28633136214728633
0.9191442936788579 13.079693800372201 5460.238522487799 21.70345807205649 0.2898253026710441
0.9405035858918739 13.082814173630666 4873.351022705022 22.54944492561878 0.29336887381979665
0.9620401596678959 13.086222087699058 4353.442318922083 23.430213418007806 0.29699579425201855
0.9837547293106688 13.08988000887232 3892.4665759463965 24.345865226586064 0.3006976079352491
1.0056494104397995 13.093733397169766 3483.1927233174883 25.288657681935252 0.3043971117068395
1.0276778183075772 13.097565111937614 3119.8364940600836 26.27025760609785 0.30818291407141585
1.0498704635183973 13.101457451218867 2796.5331857048905 27.292161045615565 0.3120569612390614
1.072185750513371 13.105253960792414 2508.8985695520046 28.350260459837962 0.3159835995021022
1.0946165972065345 13.108873658516085 2252.7969679916046 29.445431110340767 0.3199618526253845
1.1171744595675954 13.11243630500012 2024.4510101416101 30.58556785364266 0.3240293656990059
1.1398506216716744 13.115809686516634 1820.713566730931 31.772519799966528 0.3281864892239172
1.1626037001207588 13.118820648626503 1638.7461520934462 33.00015650942825 0.33239138981521366
1.18542133373545 13.121468236008711 1476.1599940475824 34.27397206947778 0.33667310685075985
1.2083178598917277 13.123819571326733 1330.7684991172503 35.60021237587218 0.34106039566335355
1.2312637304138194 13.125779362896745 1200.7648160549056 36.98089551244501 0.34555247659367155
1.2542430368919752 13.12719655678897 1084.1476500463982 38.411698720238384 0.3501018768954433
1.2772540685017824 13.128111052349718 979.669603920406 39.887434903228154 0.3546824859987379
1.300287079103054 13.128541221566618 885.9038332983027 41.44489216687391 0.3594932835546001
1.3206226245895694 13.126530850953259 810.0239947945257 43.142092317551096 0.5221735468840624
1.3354550330855832 13.11770094723191 755.2675430536377 45.04536484349472 0.6935826662354677
1.345913048733556 13.101257878510078 713.8889791473676 47.217726069789826 0.850680026913511
1.3530017359473667 13.077355327922985 681.0229737142809 49.62150924028802 1.0003020665724311
1.3574932144211194 13.046681659771503 653.732405159364 52.262427572814474 1.1426717611567174
1.3599632535703312 13.009739122882216 630.1908803459186 55.14472746426711 1.2780681964473062
1.3607984421060744 12.966665805440952 609.0114287506462 58.27150418854865 1.4068066260591467
1.3603928100550378 12.918384665094065 589.5094706187585 61.64043191670842 1.5266870261951362
1.3589726805053548 12.864494992205122 570.7913234399105 65.24899437763257 1.6406058516143185
1.3567911510919612 12.805894491353033 552.621932922608 69.10408345534891 1.7521450746577945
1.3540784310120173 12.742886567010972 534.5450448247199 73.21283327639914 1.8625378835794768
1.35092159582299 12.675810574532617 516.5614428367844 77.58321039945831 1.9726753535982129
1.3474614875541344 12.604561704015586 498.351135706721 82.22419551929843 2.0838150349776896
1.3438234456085683 12.529922783640759 479.9503374149768 87.1469257447477 2.198910654362333
1.3400525457595678 12.452089803965475 461.4477551364361 92.36700799337069 2.325434237242476
1.3361993087465651 12.371797178408295 442.98629924018667 97.91225595550456 2.4831272730594094
1.3321844262555416 12.289048001012715 424.7830544458004 103.80530340192705 2.6508666359579616
1.328124389947217 12.202926238971243 406.39987181348135 110.01579550428588 2.7018546958041183
1.324281703128894 12.112219974624503 387.08287340603454 116.49981297242853 2.7412607467190426
1.3209279348005785 12.018374090860354 367.05998885285834 123.26406914074028 2.781691485507412
1.3181358536349606 11.921891730798222 346.4799321584696 130.32294715480054 2.8236883378658364
1.3159869717029489 11.82360336034568 325.6627250551892 137.6925733509362 2.8673474284958798
1.3145261504547872 11.724155863919881 304.82299045988134 145.39038608551678 2.9127671303871177
1.3137543548384258 11.62393466967312 284.23040646127754 153.4348638519981 2.9600151236922385
1.313640235705635 11.52338833171365 264.0909449487442 161.84644499491702 3.009202019983599
1.3141758874584912 11.422945181823986 244.64251769422393 170.64677950200087 3.060431874469903
1.3153090376751664 11.322814039594808 225.9674871660188 179.85926548433216 3.1138002865189325
1.3169996690407946 11.223227033403013 208.2200130812342 189.49546424346917 3.169358309291686
1.3192154584761544 11.124652936538233 191.47828917997418 199.58673777120953 3.2272252792736236
1.321866814177819 11.026915661759459 175.77182294585583 210.16873485750895 3.287614799323866
1.3249335693672806 10.93042092800274 161.13733947958775 221.27363221333485 3.3506498194044756
1.3283176100392762 10.835002773174711 147.55670508683002 232.93537212348966 3.4164995987328157
1.3319934829358147 10.74096226594759 135.02222436768764 245.19142275493542 3.4853367132178783
1.3358777709932248 10.648244165626474 123.48695016022502 258.07709498176837 3.5572996262969627
1.3399190575016628 10.55682314966537 112.92145007534515 271.5993275790141 3.6323444913456417
1.344069051700423 10.46688206692859 103.26464007940451 285.84230960095005 3.7109310107277733
1.348248922708448 10.378160781861878 94.45668700352122 300.85694015644316 3.793298266600564
1.3524114016343378 10.290798643498574 86.452849471603 316.6794065643047 3.879537842374744
1.3565166025690807 10.20467572202821 79.16629958109209 333.3463866885322 3.9697685622111445
1.3604982580587015 10.119831324207501 72.5610720983553 350.9600416486468 4.064528084058321
1.3643177119304906 10.035995487382003 66.5762419462035 369.5600268527485 4.163903345806596
1.3679278316721157 9.953399933639206 61.14790758205618 389.21219536162323 4.268154889920371
1.3712866372128023 9.871807658024768 56.237757577810044 410.0306600508943 4.377849003244339
1.374337614056265 9.791151455579449 51.78762467855479 432.03751098202713 4.4928833912511354
1.3770605313885385 9.71137501940852 47.76866953623271 455.39809979279767 4.614157838583918
1.3794099296102027 9.632472875764382 44.10981064459293 480.1362959226576 4.741482390781848
1.3813689562656248 9.554410253852524 40.82943973769963 506.430627238365 4.875838175212114
1.3828921745826404 9.47692480907326 37.8455738056567 534.3499913564995 5.017271130309003
1.3839441907694783 9.400198264935147 35.07649566065084 564.0511175800326 5.166473807505616
1.3845212743450919 9.324087576411511 32.64062015156766 595.6868969039922 5.324090273979029
1.3845835035197043 9.248500841648907 30.482695717834336 629.3709757294183 5.490339331333082
