M[M_sun], R[km], Lambda[1], P_c[MeV/fm^3], rho_c[fm^-3]
0.23841724892012095 16.20908015294055 2780876.1263280716 3.453507347168396 0.169602847481901
0.24841835058264086 15.86618898596803 2282092.790965471 3.6356221511469693 0.17197940216602456
0.2587016064910605 15.562851838610573 1881494.7764102581 3.8249175951898673 0.17437676323214002
0.269271719775694 15.293291341793939 1557887.1726813277 4.020509445683405 0.17676945841621822
0.28012806936866436 15.053615851557861 1295139.4329225053 4.222710174138662 0.17914905233927397
0.29126363440998704 14.839575288838308 1080887.4117866545 4.432893860263916 0.18155245134468478
0.30268778973713595 14.648152954856299 905278.7792539371 4.651408296934044 0.1839835001362335
0.31439561475737365 14.476603748649415 760723.4291243214 4.878620875504617 0.1864438473899743
0.32638511599666353 14.322823530783687 641310.2080750183 5.11187554618291 0.1888743866369934
0.33866070006505916 14.184509265728185 542214.5907695992 5.3543105462630365 0.19132613194159542
0.35121586426740764 14.060261745264803 459752.6113691656 5.6064481758828935 0.19380786966999633
0.36405511932465995 13.948507398791083 390909.15644798416 5.86870127572662 0.19632516973276268
0.3771862061400819 13.847848315455039 333188.4824554684 6.138023112026105 0.19881913674765195
0.390597693196126 13.757158105026758 284677.46854310035 6.417723861666052 0.20134222778315974
0.40428911140514806 13.675645282219374 243815.36329149923 6.708668915314983 0.2038998712481407
0.41826686696244175 13.602185923232174 209267.90218380466 7.0110399564706825 0.2064849984205691
0.43253335322060193 13.536321411446988 180001.97421851938 7.321297605704416 0.2090453988726016
0.44707572222505876 13.476861531419862 155131.13964421375 7.644105730222778 0.2116502489048363
0.4619068810097538 13.423659176374622 133952.8273369635 7.979998490664947 0.21429955330063782
0.47702091260538754 13.375936011611058 115886.29966593607 8.327168407110202 0.21695757451675204
0.4924181511685238 13.333271750584744 100430.55789914847 8.685327113653685 0.21961115782124274
0.5080943732748705 13.295295699408788 87195.07236809761 9.058095975786609 0.22231293759281576
0.5240484956706344 13.261410499524764 75822.68838040806 9.446080762489093 0.22506568655852438
0.5402903709743205 13.231444159625454 66034.4465922838 9.844039038426459 0.22779461581185276
0.5568040419016128 13.204946435051525 57600.66285759942 10.257802158137796 0.2305679769714162
0.5735969888050602 13.18159077929469 50318.33807583338 10.688501470298485 0.23339192062659034
0.5906703568700221 13.161284723250455 44018.83347455757 11.133362776034783 0.23622231944228417
0.6080086407807154 13.14354381673579 38563.553187280115 11.592801480911422 0.23906799422626637
0.6256160592655627 13.12827246111128 33825.69174096354 12.071099167894937 0.24197301967742718
0.6434944631691816 13.115251519590617 29711.787535001684 12.568182533986953 0.2449287009667179
0.6616464694527479 13.104359104171268 26129.80014539097 13.078539061337077 0.2478608081665657
0.6800476504724341 13.09517551972509 23008.059861544596 13.609869822434176 0.2508515512872545
0.6987024572625405 13.087733223824433 20283.61006877532 14.163082192973055 0.2539027933032641
0.7176286949746986 13.081833056627385 17902.529911145706 14.732454700761178 0.2569531593996316
0.7368064462170666 13.077433395253333 15818.534947044325 15.323022014974551 0.26004904258558126
0.7562224828864971 13.074190535800403 13992.19198393117 15.937866137365956 0.2632107489260662
0.7758761285723311 13.072010045842164 12390.414559342638 16.574403931521058 0.2664007793391001
0.7957727049625063 13.070968252105693 10983.73279983011 17.23111046171568 0.2696012458912313
0.815906726007081 13.070765682887373 9746.300118654686 17.914890955661424 0.27287376428546034
0.8362588804766203 13.071337066265881 8656.81247085431 18.626778170269713 0.27621985811919814
0.8568222491065343 13.072607113202954 7697.516559263853 19.357634566823457 0.27955324841586715
0.8776170906642257 13.074554271059137 6850.340883280364 20.118492339488345 0.2829567895701083
0.8986023712188603 13.07684199821371 6102.325911130602 20.910666461313625 0.2864330696315287
0.919796913610926 13.079765248278138 5441.340418559767 21.729297710159923 0.2899358664975476
0.941186229647859 13.082963220533625 4856.017495416701 22.56709097790665 0.2934107752873795
0.962745233878939 13.086422235905694 4337.735218288226 23.44699997682434 0.2970268015230788
0.9840735843172904 13.089864278451445 3885.9140018925063 24.39129347334263 0.39941013382176366
0.9927702972831051 13.081824744208888 3693.544764336631 25.678086593021515 0.878369329508665
0.9911558578379159 13.058959420319363 3667.052054010421 27.282895026359316 1.3305767972182008
0.9837071801699843 13.024186591060907 3723.5114858376196 29.365489296245244 1.7570572319541298
0.9727011864385898 12.979820927350524 3828.359541918302 31.932133519864802 2.1178608773731225
0.9594269893869394 12.927292253480745 3963.7529795100527 34.88961965467195 2.497397834604258
0.9445697761077357 12.867950581824529 4123.573654020265 38.26388874178997 2.882301349415871
0.9282951247577158 12.800892227396153 4304.39528216235 42.07497919942809 3.2208778826013127
0.9107790154732753 12.72453799685142 4501.549736845937 46.19013421413157 3.39177173606443
0.8920278959250002 12.635666956678326 4707.301242165539 50.564699792131925 3.4759754129123186
0.8725802690688014 12.532693572622497 4904.368049614173 55.151794766293214 3.4996450684939044
0.8532194319464156 12.416667712539873 5072.591926592806 59.86941105201121 3.52303887192248
0.8346296951658246 12.289434632436036 5193.752650814959 64.68388867033632 3.5468264728250416
0.8171131418666204 12.151461073747967 5256.623043882608 69.68901583472858 3.571512005205227
0.8009568255464308 12.004036125406575 5252.086983807989 74.88411370054297 3.5970917313545594
0.7864266928122228 11.848477024801367 5174.775780353641 80.27064287117577 3.6235681395815815
0.7735872330756319 11.68563030112152 5025.73201440805 85.77577198821916 3.6505660350352573
0.762573605833673 11.516997442647378 4810.007006561888 91.47072917474611 3.6784408091724523
0.753405914893858 11.343896174335804 4537.856459704697 97.37985700637608 3.707310010433166
0.7461773580067371 11.168241931272444 4220.401173509496 103.50743486676699 3.737188914844845
0.7407637943503416 10.99086140403699 3873.4799385422543 109.85893649416498 3.768098383718182
0.7371985104189208 10.81369245355832 3511.176897239477 116.40562721883182 3.7998847254640853
0.7354073114247853 10.63826534778005 3147.184174993802 123.16177209205833 3.8326120895144626
0.7352932952166966 10.465438489310428 2792.6559673127454 130.17148983983554 3.8664962594657077
0.7367713551549459 10.29684477090891 2456.9217639118633 137.44295089834895 3.9015696341821764
0.7397264734527677 10.132824078811835 2145.676887685673 144.98532713957744 3.9378690347730227
0.744050960655977 9.974570516351513 1863.6101499159233 152.80874398436492 3.9754346182651528
0.7496401386860801 9.822431755191577 1610.8276610296987 160.92435124383465 4.014308609622608
0.7563735808706704 9.67686700496296 1387.746526665295 169.3397666089916 4.0545104792136835
0.7641395925410561 9.538139090797378 1192.9637442103904 178.0441330815042 4.09598061210226
0.772825625647828 9.406065361105595 1024.0621377939237 187.08553070096877 4.13895006049567
0.7823255851105417 9.280843683271373 878.8058250759013 196.4788263458483 4.183479335514292
0.7925619828479551 9.162076799072342 754.1599148931762 206.23984677155477 4.229617446383642
0.8034285280262664 9.0497683522077 647.9124697026432 216.38627785703963 4.277443377625333
0.8148208628520238 8.943653809018107 557.4151894497769 226.93675663038482 4.327039053222567
0.8266782518847178 8.843341776018653 480.4222861667242 237.9112134343645 4.3784754174271665
0.8388983356029336 8.748509758866014 414.9786532105355 249.33135957942497 4.431836361038715
0.851442024980766 8.658789537035908 359.19349254515913 261.22048956666623 4.487225033289315
0.864231802266221 8.573965219440526 311.7954357961217 273.60332862386645 4.544728118876918
0.8771908610904979 8.493451400718271 271.30567932129543 286.50693176457867 4.604456274799649
0.8902846677895777 8.417134393560032 236.74026260281065 299.9599263856115 4.666527908469247
0.903434320495667 8.344635896305103 207.2220546876552 313.993186846937 4.731052748084281
0.9165987215686107 8.27562747748644 181.81588587652612 328.64024399255 4.798180626603537
0.9297342279544679 8.20983359889222 160.00858254299007 343.9272282192195 4.867972308272143
0.9427868167577986 8.146906992298847 141.22557063649435 359.8732243389835 4.940509926842441
0.9557308926776484 8.086626550166436 124.98600947339342 376.543701683781 5.016046721045593
0.9685034477944336 8.028758394586406 110.91907861591007 393.9826121093105 5.094776136880994
0.9811096748068892 7.9730038035929045 98.68964352710896 412.23816633946393 5.176872974491249
0.9934671609635013 7.919238217755376 87.89067019556856 431.36160598826905 5.262533850928733
1.0055628658723963 7.867228509027534 78.77301928874346 451.3733234619585 5.351789113177414
1.0173836159672787 7.81669605886014 70.6421811311698 472.33570520747315 5.44487286286393
1.028883903610734 7.767511383899701 63.50850521474244 494.3407130540039 5.542181719728075
1.0400397466034452 7.719659874991987 57.15586856829997 517.4579289147963 5.643969268924986
1.0508116348691352 7.672814215854575 51.72212181392737 541.6825941141248 5.750090879683596
1.0612033079949712 7.626897939228898 46.84090817422119 567.1671383827033 5.861232959745269
1.071173736526511 7.58167294207952 42.515473355083586 593.9853135632364 5.97764092576964
1.0807118590362494 7.537225192044214 38.69307804490766 622.1683722040689 6.099322148589218
1.0897890220511557 7.493326259788468 35.28493860650368 651.8937391528544 6.227051709449553
1.0983806612632485 7.4498864460677225 32.25330791044122 683.1803825897588 6.360733205009533
1.1064868223495048 7.406737514310122 29.511455563324155 716.2204185211137 6.501196148202819
1.1140868765058527 7.363889837885699 27.126061272663616 751.0606878792888 6.648422207320425
1.1211534266356669 7.321287909347669 24.956669726727785 787.9115480327921 6.80333526548319
1.1276842473081135 7.278784198750367 23.011169894824583 826.8320670729833 6.965904706874425
1.1336657749462256 7.236311190638742 21.239999634689227 868.0471399941383 7.137048932186357
1.139083770741015 7.193858622753402 19.68865525461188 911.7159339274828 7.317285146513374
1.1439199833018756 7.151371844598269 18.27587562322996 957.9804663424862 7.5069428365695545
1.1481706044017599 7.10875085926559 16.97858018722989 1007.0930358989922 7.706981871938483
1.1518310572690755 7.065997124631005 15.843154634791325 1059.2710025490333 7.918076489233075
1.1548867122591582 7.023081810267655 14.795441027643868 1114.754378330752 8.140976694193055
1.1573395620764664 6.9799791011498105 13.850122091158134 1173.7983120202593 8.37644335713055
1.1591728560063972 6.9366840598320225 12.992925161098153 1236.7040361618756 8.625431124067998
1.160389872264386 6.8929897507337285 12.204399524139951 1303.8054635963624 8.889002912680748
1.1609955686369475 6.849188390666474 11.511559994283244 1375.4603067119588 9.168248863955403
