M[M_sun], R[km], Lambda[1], P_c[MeV/fm^3], rho_c[fm^-3]
0.23841724892012095 16.20908015294055 2780876.1263280716 3.453507347168396 0.169602847481901
0.24843464485290134 15.865571063367684 2281404.7710017366 3.6359172927234615 0.17198315647850088
0.2587361959089984 15.56175125483324 1880217.111062541 3.8255247488572124 0.17438419060527538
0.2693230202065232 15.292110444207717 1556433.0080162208 4.021487702084616 0.1767814255271897
0.28019874690092383 15.052176390119199 1293687.9484950635 4.224049894102479 0.17916471828572253
0.2913531309456149 14.83786462828718 1079305.76205648 4.434613565416638 0.18157180150115326
0.3027986352823329 14.646392203476765 903746.1805356495 4.653527484124101 0.1840064520431423
0.3145265464588103 14.47492749340224 759317.4912388347 4.881159835909732 0.1864703036358163
0.326542279467482 14.320972882370816 639900.1266801988 5.1149825049500635 0.1889067614880542
0.3388393037003145 14.182672001725841 540941.9241812475 5.357896086333152 0.19136190886204787
0.3514197482042247 14.058373589247337 458563.0251977572 5.610534819170418 0.19384714657962024
0.3642859033935192 13.94668441545713 389803.72336063953 5.873313187075284 0.19636787683344636
0.3774429109994079 13.845951394882068 332148.4352500127 6.143400372226344 0.1988689311117263
0.3908792963579705 13.755425274738457 283741.58174046804 6.423695876112741 0.2013954558869791
0.40459975794165104 13.673928984739314 242976.0996112022 6.715262502947179 0.20395624325548184
0.4186092311436096 13.600557812150988 208494.5857398119 7.0185845660837805 0.20654950120906906
0.4329006414509884 13.53459498329814 179301.509667294 7.329542131947564 0.20911336110992396
0.4474791330556347 13.475308008475979 154501.6735200864 7.653082522653327 0.21172161898539846
0.4623403318453561 13.42217939473986 133385.0377971603 7.989741162668972 0.2143741456764793
0.4774878365481744 13.37461000147992 115376.68433669365 8.338134704025537 0.2170415352762603
0.492918023759103 13.331996853829377 99971.7938513571 8.69715211185946 0.21969815662153985
0.5086298955119725 13.294079069057297 86778.8299029068 9.070818118781103 0.22240328580677665
0.5246238494394994 13.260315224124339 75446.91567902509 9.459742036466743 0.22515936635474806
0.5408921490982899 13.230322937997082 65698.29800403726 9.859248887939389 0.22789891469388202
0.55744724579333 13.203913628064193 57297.88721837567 10.274063925670013 0.2306754381052272
0.5742808680823025 13.180761798636482 50047.967211746196 10.705862026850602 0.233502375948443
0.5913872597177756 13.160447845385136 43776.768009201296 11.152581036827874 0.23634459427690577
0.608769647488885 13.142924805341096 38343.9909192655 11.613248388436661 0.23919373275508402
0.6264182177748685 13.127610574802219 33628.65689607047 12.092833168688625 0.24210225107777028
0.6443369905447557 13.114747862272138 29533.209849577026 12.592101377213325 0.24507074717922409
0.6625266339105006 13.103941171367344 25971.132522557607 13.103928331965722 0.2480064334250315
0.6809714059709439 13.094806218420405 22864.508513037887 13.636763498923766 0.25100038885477155
0.6996779316723131 13.087404394762608 20153.439168082135 14.191551705368216 0.25405531636014245
0.7186505770816681 13.081702243532497 17784.987035099966 14.763663009873548 0.257120355333294
0.7378618902577736 13.077175228147674 15712.100818685836 15.355994278335134 0.26022011941254547
0.7573220839164956 13.074020759337762 13896.881650734904 15.972687154192766 0.263385255614766
0.7770212029309814 13.071973669525262 12304.7649267942 16.61246607994283 0.26659152906702793
0.7969649475494134 13.070904026489218 10905.331387503396 17.27123768685521 0.26979574633880665
0.8171415657946539 13.070768468510504 9675.501691391793 17.957185515778896 0.2730725769626039
0.837536863433695 13.071341510659805 8593.029696222946 18.671350845853304 0.2764231513037246
0.8581584570341677 13.072734085137313 7639.733383883194 19.4061845441258 0.2797746818246821
0.8789847313075307 13.074618526497538 6798.145993639743 20.16959206428066 0.2831822724812338
0.9000317817203389 13.077126428652397 6055.275771655379 20.964442586851238 0.2866631693794497
0.9212592035169533 13.079927352785809 5398.464777471946 21.787762945946287 0.2901860302250771
0.9427005040690993 13.083163908642247 4817.060222844116 22.638076055099976 0.2937374052749892
0.9643126895976875 13.086693365143967 4302.522967438974 23.523400755306717 0.2973725337037241
0.9860817423297658 13.090291316852468 3846.5094281514635 24.4450553908292 0.3010911140165304
1.0080415550937534 13.09412584206959 3441.4053314258394 25.394919253767863 0.30481354076914874
1.0301351644212202 13.097915973506527 3081.8298522309096 26.381894915160164 0.30860830161789904
1.0524003776746969 13.101835974690019 2762.109830534197 27.409465611956573 0.31249228195886586
1.0747884633958005 13.105662663810687 2477.609267187016 28.477326609460164 0.316455145746564
1.0973016874414847 13.109397208235759 2224.301033623274 29.578877067516313 0.3204444263039042
1.1199119280059333 13.11284695921006 1988.8347923539766 30.725737846670214 0.32452177913696834
1.1426516846425931 13.116191091074565 1797.0843798901553 31.919778875768674 0.32869088093047155
1.1654590602186443 13.119198431237129 1617.3957818334593 33.159409549548386 0.3329368632418437
1.18834495145341 13.12178862735266 1456.6794510387626 34.44122078612632 0.33723230394478115
1.2112979771772057 13.124095953045549 1313.0985941109552 35.77591472162237 0.3416341720295375
1.2343075920900088 13.125953802655564 1184.4766179105634 37.16552501296712 0.3461395269307243
1.257351592058371 13.127397760215354 1069.456921743285 38.611117233244876 0.35073595056700696
1.2803991332748368 13.12818741101835 966.2699573052253 40.105507422937904 0.355384677251118
1.3034729290284253 13.128462734907608 873.6326022695795 41.6618550481375 0.36015163129112915
1.326549928058257 13.128235031510927 790.5784770130155 43.282652987978885 0.3650388307612311
1.349594657646231 13.127278733089014 715.9466920137039 44.970513611330055 0.3700463260780659
1.3725954110581386 13.125692142843743 648.875738027207 46.72345986712658 0.3751406879789148
1.3955357626001257 13.123322393116428 588.5459245028374 48.54313767070622 0.3803348498436148
1.418405354448027 13.120148507575369 534.1967706934171 50.43897270299944 0.3856656705603711
1.4411992797112287 13.116299756132547 485.2823731671534 52.41420419792445 0.3911357158630536
1.4638985079326343 13.111631482186603 441.1416370141439 54.47225574943615 0.3967452148223395
1.4864339131783555 13.105946552798432 401.3757224597686 56.61683751954626 0.40249186528880326
1.5088481188370786 13.099418923100963 365.43648973479407 58.844363433223286 0.40835790458015214
1.5311130813950178 13.092007836785111 332.9812385170453 61.164996819892124 0.41437807477972843
1.5531815081563507 13.083570933391806 303.6313904083522 63.58482775468016 0.4205633537955972
1.5750596396211998 13.074171569633716 277.1114781132751 66.10843628490541 0.4269138318143632
1.596730148778613 13.063804967129515 253.09112182220522 68.74077334496614 0.4334385741297605
1.61816318843261 13.052340626678621 231.32048121902642 71.48699660324718 0.44015071397365296
1.6393348534017222 13.039784959062228 211.610700284881 74.35263638667071 0.4470566587798256
1.6602237215115339 13.026003759511445 193.7173698602456 77.34360777267256 0.4541597463974363
1.680831365243441 13.011189764356065 177.4848485031718 80.46621256210459 0.4614638961907534
1.701120486549161 12.995181659699794 162.7388764879045 83.72546359270682 0.4689826461317881
1.7210769622895083 12.977999020512419 149.3363462248402 87.12912553991414 0.47672872884219425
1.7406720193598575 12.959551908792317 137.15907281054123 90.68675308414022 0.4847135932598371
1.7598947382975085 12.939997322495826 126.08146831891585 94.40654524932962 0.49294580963147405
1.7787204372663559 12.91892231068966 115.97275001763332 98.29733698664018 0.5014470758014207
1.7971257060796668 12.896688127676248 106.78123202166913 102.36856196433467 0.5102319079958128
1.8151050484864821 12.873232493375255 98.39829454879263 106.63029131475024 0.5193061603613217
1.8326158610090424 12.848299843148544 90.75217665206162 111.09334446321016 0.5286845000968113
1.8496441401882342 12.822131300648516 83.77966090245354 115.76607885890992 0.5383806585876868
1.866196799008717 12.794558112480939 77.40144152721619 120.66210837432007 0.5484161497515835
1.8822190776770298 12.765429798961279 71.56673775218754 125.79578558000952 0.5588035755682168
1.8977074222991435 12.73508358025069 66.23676102124878 131.18146153817486 0.5695689812776792
1.9126356832021778 12.703220996832295 61.35959939059661 136.83460821929086 0.5807404391031264
1.9269898810515211 12.669909312039389 56.895393740222836 142.7718893598681 0.5923343750476286
1.9407524866017878 12.635273133270758 52.80747966407467 149.0112785795433 0.6043735143991085
1.9538949061515907 12.599053944059493 49.05596536521726 155.5712636633449 0.6168907003720376
1.9664098159922363 12.561394748549487 45.6169537520895 162.4598186686404 0.629871412328416
1.978265710382687 12.522263185987253 42.463684284999445 169.71168667567648 0.6433771645838142
1.9894662180946847 12.481507298277068 39.5589454654512 177.3511771214049 0.6574537311492382
1.9999697647908357 12.439421308519067 36.8991640976048 185.402569232825 0.6721334677402794
2.0097811384849904 12.39575568575921 34.45345559971543 193.87763794849403 0.6873836532539019
2.0188777011358336 12.350666766296817 32.202119730974225 202.82400686433482 0.7033188332445762
2.027234709604859 12.303943348795032 30.12922830010042 212.27153860791796 0.7199747340070232
2.0348217751917894 12.255608752921459 28.220607691393766 222.2377138692413 0.7373211195861428
2.0416683890592564 12.205956463698143 26.467287194981914 232.78180489350322 0.7554964868796649
2.047726780645034 12.154723360532307 24.848085795539703 243.9255975969182 0.7744863651404525
2.0530250863382515 12.10205922501893 23.355678583248356 255.72577169873017 0.794375695904366
2.0574830510977353 12.047736957249368 21.98026929000344 268.22035088436826 0.8152089200992458
2.061143409969106 11.992030077121106 20.710474275961435 281.4699883384455 0.8370640801460291
2.063974680740255 11.934807175585822 19.539253916637545 295.518291416425 0.8599739526647554
2.065983613392661 11.876217851686386 18.459421464309145 310.44349454736505 0.8840704323409407
2.067148511741849 11.816171462763723 17.46269825644434 326.29292374861166 0.909353406643489
2.067459635944583 11.754723409697137 16.543212652413512 343.1525788587912 0.9359689420706382
