M[M_sun], R[km], Lambda[1], P_c[MeV/fm^3], rho_c[fm^-3]
0.23841724892012095 16.20908015294055 2780876.1263280716 3.453507347168396 0.169602847481901
0.24841813904686408 15.866191014282819 2281964.4167921534 3.635614800378959 0.1719793086614754
0.258701578092492 15.56278837891161 1881477.5899894699 3.824902474348498 0.17437657825733544
0.26927076413964285 15.293300700398333 1557916.3918085983 4.0204850842139015 0.17676916039986115
0.28012704371937464 15.053602080444175 1295159.7014746014 4.222676813018235 0.17914866223272918
0.2912609194504715 14.83964739825545 1081039.3438516594 4.432851039231273 0.18155196952157665
0.30268608151668697 14.648153130656071 905269.5805019287 4.65135553147988 0.18398292865873606
0.3143928265600607 14.47664383547751 760723.154234701 4.878557661378738 0.18644318869185064
0.3263801301217837 14.322927940008498 641360.0439034083 5.111798195075976 0.1888735806299769
0.338654631040117 14.18464578965067 542263.605457274 5.354221284772941 0.19132524128044867
0.3512114211135939 14.060393680845223 459809.7857201587 5.606346444401003 0.19380689192421846
0.3640492271247568 13.94850080351284 390949.4380575673 5.868586473794445 0.19632410664691705
0.37717917396061457 13.847920777115155 333216.37922944786 6.13788926722526 0.19881789732153257
0.3905900568410713 13.757270862965601 284719.14843757695 6.4175752196955065 0.20134090294874907
0.4042825024066464 13.675679987922365 243829.7828440141 6.708504809856481 0.2038984682252907
0.4182595711204905 13.602261480051448 209292.4197592878 7.010852193672495 0.20648339313882746
0.4325240512512652 13.536325461498206 180010.4815327618 7.321092432976344 0.20904370756891402
0.44706569950909275 13.476907439978314 155141.9389090063 7.643882343861077 0.21164847286926966
0.4618961129003179 13.42363011104566 133962.1014032359 7.979756055578037 0.21429769715592595
0.47700948024880674 13.375976380670139 115898.71712860902 8.32689554181082 0.21695548539059065
0.4924039843009853 13.33332252547725 100446.22800955344 8.685032893948982 0.21960899318993476
0.5080809111316414 13.295309598726243 87202.2533453738 9.05777944668039 0.22231068971371032
0.524035429903451 13.261368431896488 75827.44119333963 9.44574088095308 0.2250633558803544
0.5402778493062177 13.231488888162147 66044.02536383382 9.843660655452586 0.22779202111680857
0.5567905955197803 13.205008505493122 57609.64482284691 10.257397621607062 0.2305653037100887
0.5735816599318213 13.181674805656845 50327.89519578302 10.68806961598715 0.23338917298386305
0.5906502870989645 13.16130471629731 44026.01504616607 11.132884743663096 0.23621927799489092
0.6079834577848306 13.143514484293906 38568.26064335915 11.592292906182019 0.23906486673922756
0.6255989482646093 13.128273593107144 33551.769867298375 12.070558599156278 0.24196980543004853
0.6434740897468625 13.115271550474398 29717.039747670868 12.567586880474476 0.24492515918265947
0.6616289239303397 13.10444497819887 26134.728361254718 13.077907646584096 0.24785718656049646
0.6800242108896681 13.09518977739944 23011.91399706768 13.60920101787658 0.25084784992483444
0.6986802368268396 13.087719949642903 20287.52244052092 14.162374224736512 0.2538990004220194
0.7176065067197633 13.081870717699859 17905.440843958706 14.731678682020691 0.256949001943443
0.7367770886722957 13.077427739304806 15820.852931283971 15.322202162782295 0.260044788776551
0.7561946205584417 13.07416296736746 13995.053324303188 15.937000346117035 0.2632064099843085
0.7758482236404713 13.071999809445158 12392.319082406666 16.573457623525577 0.26639603688497815
0.7957436779819765 13.070912499365239 10985.220674672855 17.230112845664923 0.2695964103520754
0.8158720307913677 13.070709033061773 9748.106612922496 17.913839492766964 0.2728688217076824
0.8362262189386145 13.07132276084685 8658.768686218405 18.625670110244698 0.2762148043267528
0.8567871005185281 13.072586824105786 7698.885481516932 19.356427725103977 0.2795477440862939
0.8775844822269326 13.074574018238248 6851.755823208148 20.11722216018506 0.28295118477031495
0.898565079029646 13.076869168571465 6103.489977653765 20.909329800573044 0.2864273502663571
0.919761033474786 13.07977892166203 5442.224334249678 21.727844611000435 0.2899296489103384
0.9411361049703177 13.082843004327064 4856.830603759891 22.575082027948483 0.2934754738223442
0.9627043269333853 13.086421713544711 4338.61967034307 23.457167505580504 0.29710476472448505
0.9844377705244688 13.090035153645395 3878.85260365182 24.375120517220097 0.30081588175304896
1.0063461444371498 13.093874371972577 3470.917613065115 25.319389902321294 0.304517548375499
1.0283906346937342 13.09763725624703 3108.5933918611486 26.30254343952639 0.3083059373830998
1.0506063483453134 13.101572756477726 2786.4741017615497 27.326084678895757 0.31218285284685254
1.0729353252577543 13.105343190230709 2499.822646194806 28.387004025714653 0.31611995596327463
1.0953934524814604 13.109011753955638 2244.4446624786706 29.484018147428234 0.32010139292188056
1.1179789480927134 13.112592922843634 2016.8038303028807 30.626097750529354 0.32417174614317357
1.1406610774819357 13.11589428603655 1813.7767650419296 31.81509795103231 0.32833232788385047
1.1634317675785624 13.118939287066484 1632.4913055581478 33.04619863446974 0.33254909327692944
1.1862739694717048 13.121612806034047 1470.5422901949983 34.322324064049 0.3368347720365752
1.2091804108418323 13.123884071027202 1325.634728752338 35.65100642845094 0.3412262695268353
1.2321470471088183 13.12586039673871 1196.027816491583 37.03426829919026 0.3457221813936068
1.2551563167082118 13.127318244215715 1079.8434887594135 38.46934163510504 0.35028515904973323
1.2781721163299873 13.128172561802236 975.7447213457281 39.956563717060504 0.3549216685950806
1.301196276087387 13.128498912953368 882.3587127799445 41.50532220339119 0.3596755419909886
1.3242222773528816 13.128248934853989 798.5220203898065 43.11808238328054 0.3645489143568577
1.3472381656424268 13.127404915127793 723.2132750471851 44.79743801235736 0.3695433387591693
1.370203934762349 13.125864950211326 655.4497174116902 46.53675955524227 0.3745981049119241
1.393131311951494 13.123633205653611 592.267526349016 48.34680052476684 0.37977563872470005
1.4159717567322554 13.120596389094793 539.721129511456 50.2324138612624 0.3850887709536412
1.4387242402479405 13.116683720952143 490.35231159488177 52.196801322885996 0.39054027319907647
1.4613869264110484 13.112118064024365 445.785827655366 54.24335520096879 0.39613146278616723
1.483924945599816 13.106635964912943 405.60178435220564 56.371881526420864 0.40183868968029046
1.5063109408006967 13.100242689224299 369.3316265984589 58.584559574445876 0.40767372863666484
1.5285586556881159 13.092954490117446 336.5654741310136 60.89129707371581 0.41366982607855046
1.5506197741526848 13.08467817945975 306.91650149983394 63.296360010979726 0.41982998972326696
1.5724797777136432 13.075328825748622 280.10326503840906 65.80427812362909 0.4261549012907593
1.5941373535053904 13.065095481466887 255.84661953553672 68.41993366014769 0.43265077857497924
1.6155569150426907 13.05375643926173 233.87666353203252 71.14840324936003 0.43933221432316916
1.6367313593054447 13.041303112193773 213.93269554325164 73.99514541505249 0.4462062095087294
1.6576362368428763 13.027817674521982 195.86262170873167 76.96478894737639 0.45327081079375825
1.6782444665004501 13.01314261074362 179.44968858011902 80.06141968595647 0.46051989276578104
1.6985312721277162 12.997292189810212 164.55772290569152 83.29572836166298 0.4679912920713817
1.7184917315283723 12.98032482874594 151.02489436702248 86.67481260741557 0.47569517769894404
1.7381060177180936 12.962053976450376 138.70189903239586 90.20622393124835 0.48363613974958464
1.7573422174358915 12.942543805552244 127.49298821372471 93.89804780124481 0.49182201005985443
1.7762014535927713 12.921818527223904 117.28168942387535 97.75898038634065 0.5002724116733582
1.7946390144418738 12.89983233023653 107.99143359246321 101.79830275168679 0.5090030381264715
1.8126334921767568 12.876438478746255 99.50937725852403 106.02593761916897 0.5180208551615476
1.830186871064415 12.85180844268415 91.77982050718863 110.45254249292589 0.5273389652283241
1.8472740934462977 12.825981404623553 84.71687002469804 115.0895798398144 0.5369814172180924
1.8638483631895388 12.798438747403821 78.26705951870693 119.94935111878627 0.5469676946559475
1.8799310196027483 12.76981974962727 72.38133100214324 125.04039091219073 0.5572887511176106
1.8954956992920629 12.739799022338454 66.99170874187567 130.37857313973245 0.5679755045827052
1.9104552451896704 12.707994981449238 62.055827839577255 135.98078618510505 0.5790629259806968
1.9248748646551024 12.67502276409468 57.54101397681605 141.86342312498826 0.5905690837364808
1.938706662347427 12.640612103492456 53.40287108391975 148.04415587467415 0.6025131773236165
1.9519359916066568 12.604770057788611 49.60905743426184 154.54201927299172 0.6149307074015986
1.964512579188454 12.56724806193546 46.12729966796252 161.37470203544427 0.6278434118327818
1.9764651593502809 12.528426541983901 42.93462522351484 168.55429142693882 0.6412337125010797
1.9877348770041385 12.48810378857975 40.00576182958175 176.11598006688274 0.6551858319104531
1.9983435352492278 12.44620125438026 37.30775175556347 184.0856402665725 0.6697392853232755
2.0082521966620637 12.402917730402867 34.83193940620302 192.48253596790371 0.6848885063688772
2.0174407593522186 12.358051786223864 32.55382284904897 201.33219180021365 0.700671880850832
2.0259050138855157 12.311714824460218 30.457210254048707 210.67886488135025 0.7171768460448876
2.033619349307239 12.263826450706597 28.52903510464152 220.54410299420155 0.7343883903836129
2.0405690240317966 12.214432751049907 26.752296557334056 230.96711109482172 0.7523773143866019
2.046767735340441 12.16348819284046 25.111330988289247 241.99582993552053 0.7712210734817622
2.052175377427107 12.111187552458798 23.60294465854561 253.65506500157423 0.7908966172748281
2.056770159791514 12.057213638279052 22.2089585465507 266.0135271478547 0.8115527937675965
2.0605634789530756 12.001857490393174 20.924508797771256 279.0984931260137 0.8331654088223699
2.063542515469499 11.945034640268933 19.739232931632483 292.98551015471617 0.8558650613500224
2.06568721092121 11.886744650614265 18.646013034856672 307.7216661125757 0.8796921618373751
2.0669986922768366 11.827018910539262 17.63579740943363 323.37545917404674 0.9047160563709865
2.0674682605674484 11.765934179938371 16.703453705442065 340.0261369488421 0.9310630247911352
