M[M_sun], R[km], Lambda[1], P_c[MeV/fm^3], rho_c[fm^-3]
0.23841724892012095 16.20908015294055 2780876.1263280716 3.453507347168396 0.169602847481901
0.24844233642211794 15.865373621502576 2280991.938959699 3.6360414490661275 0.17198473579413587
0.25874974193497446 15.561391366610327 1879571.2804327738 3.825780178783579 0.17438731530578383
0.2693446820094426 15.291620749052434 1555888.9659793172 4.021899290038899 0.17678646052488287
0.28022857994011313 15.051410512534437 1292986.4002424714 4.224613606398679 0.17917131002644685
0.2913903574905632 14.837178989476463 1078676.138952769 4.435337217776032 0.1815799440518463
0.3028463576128114 14.64567030271346 903094.7956913474 4.654419303469864 0.1840161109136279
0.31458580776780626 14.473983680571145 758621.7953122782 4.882228384315905 0.18648143802738493
0.326606551438783 14.320142237326248 639310.2015772875 5.116290214859689 0.18892038796871508
0.338916395891926 14.181912907987298 540374.1472107958 5.359405333235693 0.1913769682966991
0.3515086915887764 14.057668264259865 451120.9576897912 5.612255108238228 0.1938636803540384
0.364384501281828 13.94582281565684 389375.3882716873 5.875254716221645 0.19638585573079834
0.37754968874850287 13.845184940639635 331722.66450858366 6.145664299845774 0.19888989547497488
0.39099957306035643 13.754629839917362 283358.83006721816 6.4262103657337075 0.2014178673388924
0.4047317966057516 13.673120778553981 242610.81891751153 6.7180388746811746 0.20397997990031028
0.41875171067897926 13.59982216546361 208183.5957503595 7.021704994051993 0.2065757622224585
0.43305641974149245 13.533903835114153 179010.85111118382 7.333014191109273 0.20914198239170365
0.447646492993666 13.474755203986524 154240.6808664885 7.65686318747801 0.2117516771999783
0.46252384036868427 13.42156900962839 133150.26941294796 7.9938446220042225 0.21440556280525658
0.4776824905792843 13.373998786533932 115159.55829622076 8.34275396352606 0.21707690150234593
0.49313018227916766 13.331424725641511 99779.36002394115 8.70213335670975 0.219734804603926
0.5088505927186803 13.293510439559142 86606.23562130482 9.076177578948283 0.2224413468200909
0.5248605106686515 13.259806739998313 75292.78262920001 9.465497436955408 0.2251988330066757
0.5411503618861827 13.22994791912828 65562.23011439691 9.865657300018542 0.2279428592585452
0.5577197102621463 13.203547522076065 57175.65748565318 10.28091591012689 0.2307207174401539
0.5745637115227258 13.180302772964897 49934.7314077669 10.713177374497244 0.23354891933409702
0.5916901018570199 13.160114855694697 43673.26854479256 11.16067996463463 0.23639612313629868
0.6090836098835353 13.142582337471485 38252.96871717633 11.62186553276217 0.23924672399832028
0.6267505683605604 13.127418598559975 33547.04306259178 12.101993210261531 0.24215671711975237
0.644690706541241 13.114498621190013 29458.504613967965 12.60182975624605 0.2451265462500921
0.6628962623243305 13.103558661028071 25900.731346926408 13.11463052501882 0.24806781800170186
0.6813585328357832 13.094631808188913 22628.813607450084 13.648100394592795 0.2510631305916711
0.7000870066211822 13.087391992813663 20099.670155932334 14.203553472983172 0.2541196148370242
0.7190798062375993 13.081632684635105 17735.896011879944 14.776820694048737 0.25719084653749813
0.7383024992045005 13.077071339938783 15667.159343988045 15.36989633334087 0.26029225032550873
0.7577869892552768 13.074011201644595 13856.757123874188 15.987369402493353 0.26345883619244836
0.7774957512485816 13.071876536584734 12268.456324405637 16.628516614380118 0.2666719668563793
0.7974715656385456 13.07088908342027 10872.367845247529 17.288159854613017 0.2698777696830921
0.8176567007580943 13.070725107898879 9645.961248484682 17.97502252254524 0.27315642280607866
0.8380769975197673 13.071390867898403 8512.539670927114 18.69014950008396 0.2765088907894818
0.8587257517487263 13.072822757407343 7615.226517102008 19.426662812637467 0.2798680819260854
0.8795624018230506 13.074705877491809 6776.718299972053 20.191146829378887 0.2832773851497017
0.9006287832056579 13.077161661741046 6035.2491550992045 20.987127375515293 0.2867602340917371
0.9218792382427704 13.080014996395546 5380.655183719685 21.812428464011617 0.29029157017300816
0.943333984958617 13.083287577965455 4801.137520972099 22.6640089373697 0.29384523514126915
0.9649668256230701 13.086740928214244 4287.838137015426 23.55066845577375 0.2974827720560687
0.9867614183874697 13.090414963990202 3833.1119530601404 24.47372722659423 0.3012034762324886
1.0087409159176028 13.094217835918148 3429.065923252148 25.426019134703193 0.3049354182647709
1.0308592478099634 13.098047809848092 3070.658955321198 26.41457018711334 0.3087328088626865
1.0531369555992054 13.101989720974405 2752.15139223972 27.443801824112267 0.31261970465908306
1.075540586161537 13.105808241274115 2468.6853901171116 28.5145257356679 0.3165931928056169
1.0980746623648312 13.109481173247575 2216.0904042913094 29.61794642779024 0.32058571080066867
1.1207112432769946 13.112979521810704 1991.0014713559583 30.766778494064756 0.32466595383401475
1.1434643522663757 13.11628807163842 1790.3381369995068 31.96289798442165 0.32883857247803905
1.1662986805011406 13.119296363081997 1611.162388676249 33.20604786016662 0.33309660875807356
1.1892104444270182 13.122022647295683 1451.1133786643397 34.49020396718435 0.33739607950642647
1.212175356483553 13.124219461580923 1307.9301328240288 35.82737727713177 0.34180222896678925
1.2352078436039922 13.126167971559797 1179.8943727465735 37.21960603473954 0.34631148364387077
1.2582520778494337 13.1274011443205 1065.1128921843037 38.66919575672328 0.35091973708928104
1.28133644678206 13.128273551921005 962.31914278567 40.16688691890851 0.35557548248031645
1.3044167036939185 13.128553719301445 870.1427236636799 41.72636562122928 0.36034783799550935
1.3274978621521425 13.128247582770324 787.3344505857012 43.35047996069763 0.3652407474197669
1.3505455306834504 13.127205065115913 713.0025813205071 45.0418500119921 0.37025364187024995
1.373571591181239 13.125604849393552 646.1971210751776 46.800421906847035 0.3753643528412385
1.3965175848859024 13.12315089743936 586.0850715893263 48.62407705485598 0.3805653829063122
1.4194212236425843 13.120040860324263 531.9306938312246 50.524131142140654 0.38590351014950297
1.4422195897833558 13.116125176035206 483.21798304405866 52.50383891703327 0.3913812155415724
1.4649148957442946 13.11135396428629 439.26207387543957 54.56663693811935 0.3969982795140518
1.487479882997202 13.105691251011317 399.61600824338393 56.71625479735262 0.4027536739861882
1.5098959476088532 13.099143081809318 363.8538883222703 58.95150834070455 0.40864006346921106
1.532165099300391 13.091658447644162 331.51569468802415 61.27788009507019 0.4146701811267255
1.554238816385014 13.083170466906369 302.3057490961686 63.70381007631854 0.42086583946977585
1.5761369874132347 13.07377082978225 275.88376305071415 66.23389918071817 0.4272268848023629
1.5978097679610637 13.06330096728359 251.9532853861595 68.8731268003837 0.4337635571938004
1.619225287465714 13.05165832416082 230.27822064334572 71.62668418259557 0.4404883881588105
1.6403911763067434 13.039048791794803 210.66518882579348 74.50013141826392 0.44740754048612696
1.6613018700340818 13.025293016746145 192.8422241975125 77.49941385635158 0.4545243593761467
1.6818987096068065 13.010351325612216 176.67617601701062 80.63087186904654 0.46184374792439903
1.702174823431391 12.994293435845197 162.00511365763066 83.90119103825705 0.4693852544308975
1.7221129170173954 12.976972657935548 148.66195822808763 87.31664057664422 0.477155321102122
1.7417187396109852 12.958505052020426 136.53393621077174 90.88510558465293 0.4851583437950723
1.7609210028545403 12.938720929654654 125.49460335177774 94.61646077655449 0.49340973129019644
1.7797622063468688 12.917845146114265 115.44989955408505 98.51959868612674 0.5019320384549552
1.7981514143476987 12.895553947066956 106.30057643441721 102.60401630958268 0.5107392961169748
1.8160919096200407 12.871771354207489 97.94870043345041 106.87984638770489 0.5198368999518028
1.8335988220835608 12.846829375353702 90.33672388731205 111.35489021047991 0.5292289293010697
1.8506269500599017 12.820559203147432 83.38947603458026 116.0426522915602 0.5389483830612932
1.8671482177795835 12.792832471315204 77.0391571186516 120.95580219510128 0.5490118178823903
1.8831517618344398 12.763754650287321 71.23698490545368 126.10781580592234 0.5594293028015129
1.8986180280162879 12.733145009933878 65.93007886579508 131.51314547665726 0.5702272678179932
1.9135405387676276 12.701328739435938 61.077339409402526 137.18737226837536 0.5814335183371673
1.9278456519698965 12.667831061705089 56.63246782439498 143.147272405174 0.5930638027388166
1.9415905103325584 12.633060111531854 52.56375340664884 149.41094491435666 0.6051423042297431
1.954702966918273 12.5967449891391 48.83055017021683 155.99194636141706 0.6176849888372616
1.9671874608060675 12.559010696171063 45.41038715985668 162.90832906676673 0.63070964416624
1.9790104609812835 12.519683790704702 42.269168070004696 170.19013167902574 0.6442632265751879
1.9901704346782971 12.478919553165372 39.38331337525663 177.86184928374098 0.6583913572583603
2.0006380613390884 12.436554222226775 36.728725357963874 185.94232714323255 0.6731068498906888
2.01040874660473 12.392852915556412 34.29728988854698 194.45454387885175 0.6884154524020011
2.0194563898954905 12.34746210210391 32.054742831488994 203.44099120156153 0.7044135588627861
2.02777181109642 12.30071997020556 29.994690463175594 212.9257236778589 0.7211161621271664
2.0353140972634236 12.252292311490207 28.097280936432142 222.938324209791 0.7385343264895741
2.042116606422055 12.202411852715969 26.348131234238416 233.53261685521147 0.7567870142513484
2.048132719692729 12.151143834807025 24.740051360224378 244.72410593619023 0.7758374928807378
2.053354774897697 12.098203741502084 23.25378238056757 256.58273334196895 0.7958155120518776
2.057779659021051 12.04382359004586 21.884991877839795 269.1337521033076 0.8167221856096127
2.061370012643643 11.987977144780528 20.623839294570516 282.45170955555034 0.8386780021716316
2.0641462099544876 11.930658378201153 19.459337793931244 296.72432920511585 0.9684750334786576
