M[M_sun], R[km], Lambda[1], P_c[MeV/fm^3], rho_c[fm^-3]
0.23841724892012095 16.20908015294055 2780876.1263280716 3.453507347168396 0.169602847481901
0.24842873863907064 15.86579132086349 2226968.7425372233 3.6357914885234397 0.17198155620149713
0.25872223457134 15.562193226368501 1880732.453954412 3.825265941058424 0.17438102458290686
0.26930131498820764 15.292616823244499 1557071.3577642695 4.021070692250078 0.17677632420307882
0.28016902850299363 15.052753284821925 1294241.5233896577 4.223478782260769 0.1791580400187936
0.29131402003184664 14.838544681546017 1079986.4321373496 4.433880446784374 0.1815635524357703
0.3027528581176727 14.647106879878155 904380.645487243 4.652624037838073 0.18399666724680563
0.3144713699876773 14.475608984445158 759882.7973189966 4.880077402114351 0.18645902455696947
0.32647398842801106 14.3217663266041 640509.3106649327 5.113657870308297 0.1888929586498284
0.33876248497825545 14.183518566570367 541510.7858994802 5.356367368869797 0.19134665514795984
0.35133268138200896 14.059245180406228 459085.1037892561 5.608792406257916 0.19383040017195097
0.36418782527559246 13.947361378605176 390277.61902918207 5.871346765127384 0.19634966742442556
0.37733290946792525 13.84673519969547 332598.4981715166 6.1411075395233485 0.19884769908237993
0.39075901081338477 13.756140484753397 284143.75718866667 6.421149378504845 0.2013727591503488
0.4044674773374622 13.674698162829062 243326.5504503186 6.712450893208376 0.2039322053426372
0.4184628830984991 13.601238970290396 208830.75384558341 7.0153673075737135 0.20652199519406408
0.43274302860374986 13.53527313393901 179601.5806441377 7.326026321627994 0.2090843791735128
0.4473073725755579 13.475926046901645 154760.2806641614 7.649254352420697 0.21169118307858406
0.4621581488305855 13.422768767991188 133619.74472342033 7.985586284858623 0.21434233487477347
0.47729174616782494 13.375280552485945 115603.94139903811 8.333457821662623 0.21700572787487835
0.49270532246026816 13.332586412354043 100173.05501846128 8.692108897858837 0.2196610527201218
0.5084016318494302 13.294604578710972 86955.74428657201 9.065392162863677 0.22236475256388022
0.5243775483209902 13.260820200249498 75607.8733847167 9.453915416340624 0.22511941132661667
0.5406346489906345 13.230822871612798 65842.32749767033 9.852761542313953 0.22785442885623483
0.5571744692895131 13.204375108716496 57431.04688600393 10.267127764210105 0.2306296025111996
0.5739877857049481 13.181126888642716 50164.4203035477 10.698457040651324 0.233455262243793
0.5910814952293326 13.160795862859041 43878.5986463647 11.144383343041786 0.23629243702590558
0.60843916099617 13.143095202219335 38434.49782683151 11.604526425489242 0.23914009692834315
0.6260766512525541 13.127939874188682 33714.01027646846 12.083561985238466 0.2420471241809106
0.6439773528705284 13.114898598815001 29609.35556083951 12.58191590544225 0.24501036024525788
0.6621503533003502 13.104028579001007 26036.871324426407 13.093097249363645 0.247944309576479
0.6805792121541723 13.095057596605496 22926.970836139244 13.625290407290555 0.2509368933690856
0.6992610696547064 13.087514437913688 20208.782792335995 14.179406108167397 0.2539902473281559
0.7182150770812387 13.081724578908878 17834.13256601356 14.750348448811858 0.2570490236741516
0.7374095684255789 13.077354044907485 15757.468674229995 15.34192687764467 0.26014713060230094
0.7568519614330722 13.07409661952292 13937.430132387331 15.957830706815312 0.26331080203259244
0.7765342135718657 13.07198828498577 12340.88570502087 16.596226117880253 0.26651014195480643
0.7964507751603966 13.070887841033462 10938.968636591679 17.254116290564934 0.2697127573150206
0.8166174267547044 13.070831675840079 9705.79499435352 17.939139020447627 0.27298774638297607
0.8369948759156636 13.071350602320699 8620.132439573894 18.652331946818236 0.2763364072951946
0.857591203507329 13.072692094775281 7664.100883914909 19.3854676656391 0.27968019343811196
0.8783975438223542 13.074558369136437 6820.5955168599385 20.147786760995892 0.28308605428666217
0.8993901207039292 13.07711569302277 6078.416262359035 20.941494771447886 0.2865649792163083
0.9206438088652457 13.079931009048234 5416.7928750670035 21.762813056230947 0.2900792734947109
0.9420482552892537 13.083099104794673 4834.016884468645 22.611844930120466 0.2936283353046907
0.9636353673024098 13.086575793440074 4317.953232367856 23.495820244279354 0.2972610307151916
0.9853961066842285 13.090191161193697 3859.9728609402623 24.41605546317422 0.3009774660394477
1.0073318459312224 13.09401538153713 3453.753930886597 25.36346559495215 0.304690276851432
1.0294193706928862 13.097877014011937 3092.8903067544866 26.34884889179646 0.30848238164618186
1.0516532255839361 13.101767805590681 2772.1916353683164 27.374740807220544 0.31236341718007443
1.0740190166797345 13.105585911590323 2486.869160871489 28.43970906807178 0.3163155459363839
1.0965131708784956 13.109272273193204 2232.6825409860007 29.53936941534613 0.3203015568349374
1.1191103745488054 13.112796833256738 2006.1786196405042 30.68423802241706 0.324375991363894
1.1418198828987878 13.116059819790841 1804.0658280608513 31.87617864033646 0.3285415414277208
1.164610794266915 13.11903153137572 1623.6124031590757 33.1122541737819 0.33277534667434855
1.1874856690447988 13.12171976439545 1462.4567774806585 34.39169605409632 0.337066717704191
1.2104088231722285 13.124002454934255 1318.3104363996963 35.72388481748035 0.3414642623495953
1.2334153397915277 13.12595137137356 1189.2158468976356 37.11084949469912 0.34596567994886607
1.2564364474701486 13.12732199605594 1073.7041047594964 38.552056993571334 0.3505481618685123
1.2794780538937107 13.128191859591292 970.1957440834943 40.04345971962522 0.35519179482247304
1.3025310112811288 13.128507092566876 877.2752278983154 41.59664431774755 0.3599532950822439
1.325589913569155 13.128259002409857 793.836674243768 43.214092155232755 0.36483472944726075
1.34861223221988 13.127335915289523 718.9390851900722 44.89840783220902 0.3698367743403726
1.3716084531992796 13.125771992288165 651.6078982186826 46.64567367654066 0.3749146279930923
1.3945357778872034 13.12343909024241 591.0332500828125 48.461334405270485 0.3801018562581355
1.417405084293631 13.12037475615049 536.5004947556477 50.352908429971954 0.38542530106156137
1.440177809446174 13.116544880150812 487.38578004425443 52.32361934320751 0.39088761386716653
1.4628531816529624 13.111852161669166 443.08299150794994 54.37687767165801 0.3964894771675611
1.4853891817615565 13.106254984365139 403.1286272903757 56.51579660937855 0.4022245698181608
1.5078006622351063 13.099806001852267 367.0543814008665 58.73609959152482 0.4080727990532821
1.5300459874513714 13.092478101115635 334.4905409370893 61.05093919306394 0.4140829295806954
1.5521115320438055 13.084005159375454 305.0037725191006 63.464612498883966 0.42025773366484703
1.5739931804336165 13.074752774839677 278.3525700034066 65.97977037333314 0.42658604084718327
1.5949078159505257 13.064454032670222 254.9696784747102 68.83828638643521 0.7853385842414768
1.594841989088713 13.048313072106502 252.02120689733653 72.77444112657783 2.5810819486173546
1.5777060325610115 13.023714399028023 264.21758150220114 81.05378219530752 4.684989924385183
1.5535962443897022 12.991729090682103 283.1731081023142 93.13003773482545 6.224753269069213
1.5227101776276932 12.946685192677801 309.1060862275318 107.90573141644377 6.820899075723783
1.4850783423783458 12.882979580524628 342.44746513747157 123.86242120825955 6.882497122875729
1.4440365599168943 12.802617291017546 381.0844758297562 140.40235543377892 6.941996326499793
1.4012323782473861 12.707019649582563 423.9529974294873 157.5468386598696 7.003484156274354
1.3575720300205476 12.597292770312825 470.4562942644608 175.32382786768622 7.067043962695068
1.3136591036307403 12.473689380854406 519.6182465562302 193.76471261424453 7.132760191222885
1.2700753575471309 12.336842160154854 570.2966509020783 212.90294410751522 7.200745303853187
1.2273745657225232 12.187352183290042 620.7017483942228 232.77369696468372 7.271101472463873
1.1856156079434792 12.024906125823433 669.6353917064991 253.41616265147925 7.343937976806895
1.1455541605872517 11.850772364301777 713.9359495685898 274.87093477436997 7.419390432064971
1.1072063860954637 11.664885712794854 751.8039857249724 297.1821810326597 7.497578355947878
1.0711118046142123 11.468686757512671 780.2215309854613 320.3979803044451 7.578659087514543
1.0374036634179613 11.262897862403584 797.1008202844527 344.5681317337746 7.662759124418117
1.0063169582322309 11.048957565486765 800.9761021233228 369.7480456966639 7.750075813704711
0.9779599022584634 10.828153906347476 790.9125110536753 395.8600657678773 7.8402340458239115
0.9524344547929376 10.602270611346102 767.1184406577647 423.0765786988833 7.933869870550508
0.9297492893244725 10.372892962584103 731.0463895631506 451.4792525051565 8.03120497092789
0.9099157575942698 10.142257561704243 684.5972445203716 481.1392098676797 8.132463460747031
0.8928302973614318 9.91185257753547 630.558480547005 512.1344251551699 8.237872922937651
0.8783845565720506 9.683890009117851 572.0266700029027 544.3561600468647 8.34696016518304
0.8664076039192764 9.459776650902274 511.76878439659475 578.0523602604429 8.460577101529733
0.8567386416866205 9.241044356746224 452.37615201521595 613.3382114420604 8.579074672497384
0.8491727671230027 9.02890838346978 395.8708430062416 650.1870344784398 8.702268732095737
0.8435118763027141 8.824350992865519 343.4001592082364 688.71008136378 8.830484968092795
0.8395339323526119 8.628033083754742 295.94947741231726 729.14098031978 8.964484487168658
0.837037233922939 8.440213158724829 253.81312665629406 771.3700803022783 9.103760567448782
0.8358425084869769 8.26132658575555 217.0160725928316 815.7163250033437 9.249367159362803
0.8357517376790617 8.091348934925117 185.22126310728495 862.1893402418062 9.401224257115551
0.836595206408761 7.93010770447795 157.9902577191375 910.9938447681642 9.559945256273323
0.8382236340847004 7.777393183200576 134.83131370366698 962.2181555240161 9.725689937164411
0.8404866238891234 7.632884505933131 115.20367552465363 1016.1170114953646 9.899265153983388
0.8432442296313147 7.496215467601664 98.70310007513406 1072.7101548861056 10.080526413620321
0.8463843346196775 7.366831059002869 84.80348899796668 1132.3538047527557 10.270603415108798
0.8498237979357504 7.24447390435464 73.08426910960297 1195.1566526425636 10.469679642537624
0.8534388940023043 7.128525790091824 63.20817075626381 1261.32013191647 10.678247347346039
0.8571575986903777 7.018619265344011 54.78574713966605 1331.1593372453565 10.897217143779333
0.8608919476486003 6.914248945855542 47.7941026517669 1404.9191531497631 11.127187809007664
0.8645926786199613 6.814952961417051 41.93665597175506 1482.8672826389954 11.368816615936204
0.8681879405897912 6.720643981116183 36.904156830203824 1565.2619154924168 11.622683573457659
0.8716385808737154 6.630623625108668 32.56310451650599 1652.5036998854446 11.889885320600447
0.8748698309322528 6.544532573601306 28.948455551463343 1744.9574928798568 12.171322869127597
0.8778783097094025 6.46238528970283 25.772427407084226 1843.0264387470631 12.46799040805014
0.8805991903618176 6.383483735691464 23.0870666725401 1947.15501818592 12.780976913605468
0.8830065217182507 6.307721820628817 20.761605771861646 2057.8338539203687 13.11147327730541
0.8850796414547372 6.234901461423601 18.757366519783403 2175.544756392543 13.460552676582173
0.8867828221271788 6.164774764523798 17.046579939189698 2300.9257394385368 13.829838521828762
0.8880945730693592 6.0971228485353555 15.511625976274876 2434.6404550722796 14.220923769005644
0.8890200768933837 6.031677624297779 14.190116157562281 2577.4187525802413 14.635553973297078
