M[M_sun], R[km], Lambda[1], P_c[MeV/fm^3], rho_c[fm^-3]
0.23841724892012095 16.20908015294055 2780876.1263280716 3.453507347168396 0.169602847481901
0.2484139687674032 15.866261279152917 2282213.1320761824 3.63552421300508 0.17197815635581928
0.25869233209042614 15.562956024362807 1881772.3513244311 3.8247161357522548 0.17437429875816043
0.26925397142614677 15.293739128276503 1558403.264558942 4.020184876568616 0.17676548792892086
0.2801058789432238 15.054024456058123 1295650.587454089 4.222265709621791 0.17914385501632019
0.291232410312994 14.840012472489686 1081388.730380038 4.432323372176186 0.18154603220141277
0.3026505318644671 14.648691446882262 905760.5104536925 4.650705334199025 0.18397588668173062
0.31435082420382443 14.477243054877265 761201.1805657183 4.877778724197516 0.18643507208100457
0.32633257980904606 14.323469637063345 631149.6226904478 5.1108450784666974 0.18886364905039008
0.338600261111542 14.185234893668989 542669.6866340394 5.353121426613226 0.19131426677253086
0.35114833442309495 14.06095839163422 460164.42109966377 5.605092953600781 0.19379484456862345
0.36398074338852127 13.949164045409026 391283.6475048164 5.867171956122315 0.19631100796741618
0.37710172000630077 13.848373123830068 333512.230675533 6.136240149380899 0.19880262620366107
0.3905005001785377 13.757812620373192 284996.194619876 6.415743811236795 0.201324579746512
0.4041861173649853 13.676270973728176 244099.02644666814 6.70648290589377 0.2038811819175343
0.4181542724116118 13.602774784845021 209522.5662937673 7.008538862376784 0.20646361526734708
0.4324098395446979 13.536839089065943 180230.87666833852 7.318564638160932 0.20902287015678378
0.4469450041487855 13.477430517215485 155334.6776814238 7.641130188993279 0.21162659183368218
0.46176438528406627 13.424149289582529 134136.61234853617 7.976769257670289 0.21427482947116705
0.47686709583536574 13.376390813893588 116054.3113416747 8.323533916819013 0.21692974793430314
0.49225284829710786 13.333726053568627 100586.12133662934 8.681408236215285 0.2195823258815063
0.5079137602521853 13.295649767476938 87329.2746304475 9.053879997135072 0.22228299718565098
0.5238623703245575 13.26180210930705 75942.40711852502 9.441553796464808 0.2250346436810182
0.5400919076235182 13.23175299396803 66145.59888946351 9.83899936538425 0.22776005713567068
0.5565922105019038 13.205244481313775 57702.4414955077 10.252414208429032 0.23053237228185994
0.5733684159375453 13.181904950127848 50410.687004042804 10.681266644515816 0.2333394411791978
0.5904289481676414 13.161477061182188 44099.7306202771 11.117538676198471 0.2360813450099398
0.6077708410359753 13.143754147452274 38630.91448822357 11.581740768971498 0.23899878505647165
0.6246769543287061 13.128648135512652 34054.1744553903 12.078018136895276 0.29758952088676793
0.6377672546093043 13.113144578948837 30849.20004118884 12.625077824750363 0.41039530361076626
0.6474636965031318 13.093237903468303 28541.497496121676 13.251897229524172 0.5140257529932063
0.654772431923801 13.06803374266081 26758.632151708378 13.946720580828623 0.6140086960912363
0.6603642979249504 13.037116795088801 25294.079111473795 14.715361367441025 0.7096059675511687
0.6646519364452178 13.000513289792755 24039.14944303646 15.56039362576801 0.795491890052775
0.6680306583983839 12.958414458926203 22909.84443015246 16.47313168867493 0.8753802378228035
0.6708097083826112 12.910829218353177 21847.26171190676 17.45777106091564 0.950495838873513
0.6732034369017659 12.858281766727835 20828.766797364013 18.509407388002632 1.0233303055252805
0.6753474407763632 12.800837915173176 19829.279418703933 19.62613555716181 1.0868941026199916
0.6774525756412852 12.738786370352395 18832.750618418744 20.814681164779703 1.1482760823177913
0.6796200916744847 12.672312565485864 17830.72871715796 22.072313725978926 1.2100609043493369
0.6819321309484295 12.602083148782667 16827.569862733126 23.3880189026735 1.2676957891169323
0.6844692983490044 12.528295919155743 15824.451815602353 24.77768222300124 1.3244925946610242
0.6872895953402992 12.451156383821004 14822.700595754159 26.244805189358313 1.380868086938272
0.6904616931762347 12.371244335360771 13830.159126718254 27.773609725824322 1.4371679422235117
0.6940258280864217 12.289037927072371 12852.412916641106 29.374479251380695 1.4942435876194435
0.69799187430207 12.204901389219655 11898.462612801577 31.05895431720762 1.5545395741058918
0.7023808650186265 12.119217442785805 10975.164287039244 32.82958526155689 1.6196365064733986
0.7071509249576144 12.032756070622249 10093.481999648791 34.667901476175366 1.6989820625547956
0.712265513229581 11.945803959808618 9258.752478772343 36.6048094857418 1.779140871862819
0.7177384593542758 11.858289385111826 8469.813511513818 38.64140498431472 1.851516675106798
0.7237232275089538 11.769468981142039 7717.251566246318 40.762575836420595 1.8942924646387447
0.7303829762971841 11.679385028880926 6995.9277830415185 42.94329891266691 1.9107899385343403
0.7378764465789939 11.588297478640667 6306.236074168441 45.20744697705067 1.9230686938650217
0.7462514249492281 11.497419801374965 5654.506499120896 47.55475089593533 1.9356758624444448
0.7555150290700604 11.407345809306383 5046.0023488058905 49.96268016130764 1.9484877182389753
0.7656516114759409 11.318907331422128 4484.912798402509 52.44100128383873 1.9615991386240903
0.7766407245513018 11.23266716584546 3973.308764364043 55.01051870524454 1.9751467394491893
0.7884673336376237 11.148955667174837 3509.5322325089846 57.673184700269985 1.9891478881366487
0.8010822875150035 11.068277942418007 3092.804470155242 60.41401087195894 2.003527325384155
0.8144451625393935 10.990626970233754 2720.6161118657287 63.2343488273301 2.0182936310363617
0.8285226330578116 10.916343726370703 2390.5099522781456 66.15805951874438 2.0335749391143034
0.8432657150487621 10.845343494452528 2098.429862800707 69.18798515197327 2.0493833349522355
0.8586287545986308 10.777815468697767 1841.1246513675626 72.32727627635303 2.0657323410773984
0.8745691588067926 10.713587716845929 1615.2786763263402 75.55065868226008 2.0824778029744895
0.8910374336950582 10.652659126294536 1417.3160328041079 78.88972805405854 2.0997897802451235
0.9079794429653221 10.594961133263345 1244.0959368850947 82.35155437372917 2.1177026240434293
0.9253719941674157 10.540372412528138 1092.738020587553 85.94033131659604 2.1362344388052112
0.9431542825071119 10.488725707015051 960.7590641065445 89.66059933742902 2.1554048848380414
0.9612865276533299 10.43985530484733 845.4392600489194 93.50465628982833 2.175165206430485
0.979730350741538 10.393642521238785 744.8343635736171 97.47969912004842 2.1955487574631953
0.9984275092628184 10.349839608982197 657.042834149274 101.60407728302647 2.2166505906974865
1.0173543361382453 10.308416896840153 580.3839905722352 105.88374636500244 2.238496492780505
1.0364637194542412 10.269021799756505 513.3491069802167 110.32509780087122 2.2611132585946025
1.0557352786184329 10.231635885452736 454.6933788849513 114.93501389168496 2.2845282444764505
1.0751070463470318 10.196043110522947 403.41993950723196 119.7209560558576 2.3087714111138817
1.0945408941126553 10.162029088920344 358.45009661634464 124.69075470805707 2.3338813310811473
1.1140223974911516 10.129465246290737 318.99952642598566 129.84640179216953 2.3598583298876843
1.1334898524892822 10.098250504396908 284.3432125095884 135.1997633127832 2.386757092530945
1.15293620652454 10.068152888928745 253.87288662409057 140.76610241168515 2.414638936248036
1.1723067453841538 10.039052761433656 226.99684995439554 146.5559499551085 2.4435571240016993
1.191580046421439 10.01086057682368 203.31552201967094 152.58043609927913 2.4735619150787542
1.2107172779181188 9.983410682464005 182.39052000018805 158.85141410399547 2.504695931877603
1.229697862708977 9.956583905639608 163.88276441585288 165.38172502522053 2.537013256309854
1.24849303677284 9.930226444180335 147.47946425828218 172.18514248240115 2.5705787700528293
1.2670473549770034 9.904274151689823 132.94770581200024 179.27629037104023 2.605442882667247
1.2853648264062492 9.878581679735406 120.02653563885403 186.67109971617856 2.6416779807529833
1.3033884358696546 9.85309108550016 108.54319171839066 194.3864752951099 2.679355472309929
1.3211094340163474 9.827672278062852 98.3046815301015 202.44060646016595 2.7185422806858197
1.3384927513715648 9.802240795815363 89.16931093300465 210.84929055341857 2.759310797033032
1.3555057779412045 9.776758989782921 81.0285599201495 219.62689431080045 2.8016879019018397
1.3721517298250112 9.751014936349266 73.7241476771601 228.80423735682115 2.845834104883464
1.3883762938629702 9.725076002517072 67.18681277733872 238.40582403085958 2.891832459199088
1.4041587394281094 9.698775530281017 61.330545957921345 248.45761515943747 2.939797072407178
1.4194747243156396 9.67210503201597 56.06920233080509 258.9879843032699 2.9898409103988666
1.4343327490320674 9.64492394816956 51.33386329742156 270.0271842299316 3.042080522344586
1.4486607494375006 9.617236679436495 47.07338231925589 281.5804540602356 3.0964889199231314
1.4624655163773248 9.588954454084789 43.235029264995376 293.7073974163874 3.153345636683481
1.4757239272512304 9.560024762521804 39.76566747498164 306.44692275800594 3.212811682288323
1.4884040367583609 9.530400982758978 36.636142454966574 319.8314715127473 3.2749863924107925
1.5005063863802943 9.500062193874976 33.79813155672735 333.88491535276745 3.339926831846978
1.5120016519302815 9.46894282132638 31.23135918297894 348.6818471848104 3.407976273862102
1.5228626351763026 9.436966385952639 28.905863788856653 364.2577310927339 3.4792334281707196
1.533091917647238 9.404155403635038 26.790642837394085 380.6569397970858 3.5538440612800857
1.5426503696726086 9.37043873423911 24.872095949483448 397.9652268320059 3.632187455372915
1.551537670903417 9.335789957737923 23.125601360280577 416.20105812010013 3.7142194906834214
1.5597240194349005 9.300143723989644 21.537953756542304 435.481979408718 3.800497429763408
1.5672350866349396 9.263594981468822 20.087212360342217 455.83301242776895 3.8909610617162365
1.573994509996441 9.226004597059571 18.768981607090662 477.3784668817132 3.986200566726538
1.5800538879736747 9.18739998564506 17.560713696513833 500.17134098419535 4.0862782883136655
1.5853480398578963 9.147755224532139 16.460695896171043 524.3270203077969 4.191656362712566
1.5899025702690743 9.107064285288384 15.435496075496776 549.9538535971964 4.3027375377941315
1.5936954947798252 9.065316901043563 14.516050658201129 577.1372575673627 4.4196996320429704
1.596727856917995 9.022534927719866 13.676212933454568 606.0263916904867 4.543139036216416
1.5989749927859287 8.978676665132557 12.921135677923436 636.7556608109074 4.673491321071893
1.6004474739746553 8.933789793937626 12.20061047648136 669.4721972138593 4.811232452440255
1.6011245466863138 8.887828522966906 11.567996148566813 704.3367196294245 4.956873182973005
