M[M_sun], R[km], Lambda[1], P_c[MeV/fm^3], rho_c[fm^-3]
0.23841724892012095 16.20908015294055 2780876.1263280716 3.453507347168396 0.169602847481901
0.2484303691535505 15.86576821193685 2281465.4069931917 3.6358522702283986 0.171982329367772
0.25872897775465536 15.561945534170517 1880509.8604597603 3.825390981277305 0.1743825542127395
0.26931061174487286 15.292438722011134 1556816.3223588737 4.021272163442208 0.17677878882085263
0.2801835364834085 15.052518051617113 1293976.8833147811 4.223754701907599 0.17916126647098368
0.29133350718301837 14.838162092954303 1079665.457082726 4.43423463220118 0.18156753773710127
0.30277691267941453 14.646629552362812 903960.196488965 4.653060507294412 0.1840013944395602
0.31449853371774716 14.475213967832833 759593.1197008836 4.880600337586276 0.1864644736019317
0.32650694419435505 14.321323134496659 640196.7072032385 5.1142978070233065 0.18889962686057385
0.3388000417807221 14.183183876934423 541214.0389985617 5.357105891020589 0.1913540242047057
0.3513748665426693 14.058800463643887 458836.75707872654 5.609634155790986 0.19383849026399233
0.364234326810801 13.947046844644001 390051.3588488013 5.872296722531522 0.1963584641950997
0.3773849130131971 13.846388233342731 332379.7829565223 6.1422151672321 0.19885795590747943
0.3908174234079372 13.755795759889587 283961.5908960918 6.422379535241563 0.20138372344239475
0.4045329413966424 13.674298820473542 243158.8364806912 6.713809106741314 0.203943817415991
0.4185331992866139 13.600934881296316 208675.6590722862 7.016921457286014 0.20653528242764285
0.43282212098535916 13.535058523004498 179459.370422994 7.327724675861951 0.2090983792446026
0.44739135184330875 13.475651755669439 154637.48771358372 7.651103578950383 0.21170588537313106
0.4622445749521904 13.422517052288345 133508.1955417238 7.987593311985744 0.21435770118513767
0.47738390855198687 13.3749520825738 115489.257134243 8.335716972245098 0.2170230245065684
0.4928069264043716 13.332308630396987 100074.18208454954 8.694544982300306 0.21967897546481419
0.5085114159365162 13.294356635004927 86868.16259817615 9.068013105306187 0.22238336558125296
0.5244975715281817 13.260556536306517 75526.24203080809 9.45672987108803 0.22513871095765028
0.5407629792636826 13.23059693532924 65770.40202920465 9.855895103763004 0.22787591670564636
0.5573046320841895 13.204236126205972 57369.32775502455 10.270478088055487 0.2306517421462882
0.5741248987689189 13.180881961310472 50108.54044307019 10.702033788504444 0.23347801905081797
0.5912289811125944 13.160618436111154 43828.167069535586 11.14834292401581 0.23631762958177638
0.6085974354932557 13.142998391272169 38391.52251623597 11.608739200990989 0.23916600344712477
0.6262391244166314 13.127763235138767 33671.988858543315 12.088040003240433 0.24207375068850343
0.6441508854363552 13.1148527452433 29572.542709382134 12.586850715214055 0.2450397028583962
0.6623312105154671 13.103926376111536 25800.145657152803 13.098328583688767 0.24797431494466624
0.6807667722707496 13.09482042275328 22894.578294437622 13.630831784918202 0.2509675609933917
0.6994652291519908 13.087507135740347 20181.895434574344 14.18527225416553 0.2540216747199324
0.7184257287672795 13.081756353177907 17811.0996015443 14.756779086103357 0.25708347528132214
0.7376251175347436 13.077237285100798 15735.455332697828 15.348721068722211 0.2601823823118552
0.7570788321649057 13.074054838183205 13917.603516364694 15.96500593354493 0.26334676092096965
0.7767694440920269 13.071977670234443 12323.316079648404 16.60406941512799 0.2665494489008959
0.7967043737307672 13.070939644752837 10922.736391803119 17.2623852266733 0.269752837628784
0.8168785113204055 13.070817889227238 9691.18134956452 17.94785467751826 0.2730287157915824
0.8372592073560491 13.071422622359686 8607.344995845388 18.66151716418177 0.27637830049689166
0.8578598170507895 13.072728220595325 7604.9244692566745 19.395472760776677 0.2797258260510385
0.8786805326610108 13.074554645493508 6809.6484249885525 20.158317427257348 0.2831325219593233
0.8997104647000633 13.076996332202958 6065.4521386239685 20.952577122032558 0.28661239888536055
0.9209445608235509 13.079923345165389 5407.823220715319 21.774862079011964 0.2901308294050129
0.9423592089303684 13.083077340456901 4825.851415139865 22.624512605409777 0.29368100795859464
0.9639524375045713 13.086588576599105 4286.436610150215 23.50913947390112 0.29731487793746764
0.985740352771353 13.090245395251268 3853.2327735469507 24.430060056159164 0.3010323487164509
1.0076775645103573 13.094062083659406 3429.2141919616356 25.378654875799796 0.304749802208261
1.0297711948963975 13.097923093045509 3087.3838526576465 26.364807022118352 0.3085431891841018
1.0520283027317714 13.10193942116855 2767.412646112782 27.39150950529824 0.31242564631526554
1.0743903336956915 13.105607441704723 2482.3152459508588 28.45787435233194 0.3163829578442597
1.0968907352794723 13.109346437545401 2228.6996816978412 29.55844727705482 0.32037054711458246
1.1195054533876942 13.112822266345272 2002.3825557186647 30.704277730239323 0.3244463903216979
1.1422167714471674 13.116101026258416 1800.631593527724 31.897232444633453 0.3286136549067779
1.1650196927707779 13.119092344294543 1620.606591326933 33.13502427602965 0.33285333881621554
1.1879052270979338 13.121794366016358 1459.6434749707093 34.41561006694203 0.3371466743505419
1.2108373764572187 13.12406147110521 1315.8368375443981 35.74900830033518 0.34154630599355906
1.233841478605795 13.125927820270297 1186.960205698441 37.137250239260624 0.346049624096196
1.2568801349524827 13.12736441051343 1071.637890924346 38.58057441357821 0.3506388362243415
1.279923642301625 13.128167088586617 968.2185747224403 40.07341939529212 0.355284927923225
1.3029882779945154 13.128503923893946 875.5345842458423 41.62813098973535 0.3600490607195114
1.3260485446637407 13.128257460835743 792.2750650964872 43.247196119424224 0.3649332778796307
1.349101765056827 13.127455394658488 717.5408743225536 44.93322313298516 0.36993795356435283
1.3720787530390615 13.125708159880164 650.3104372310027 46.683230945946526 0.3750237758472997
1.3950136531124155 13.123308277408645 589.8330429611979 48.50083086732969 0.38021435081761185
1.4178823001658964 13.120275310113946 535.4149756911597 50.39446181600973 0.38554135579861304
1.440665843962554 13.116374371908266 486.3637625107482 52.36735493169798 0.3910074008539613
1.4633514643914494 13.111707278719098 442.1436277690468 54.422927045766485 0.3966129495546426
1.4859021476058787 13.1061245014117 402.2664946063202 56.56487818345769 0.4023550338808378
1.508312444973219 13.099659708681822 366.26643445965885 58.78836872180708 0.40821044628336717
1.5305671818746645 13.092219841217215 333.7433470053798 61.10600496153287 0.4142254224384431
1.5526328923992172 13.08379717303082 304.33463711319786 63.52265049162738 0.42040528215038026
1.5745204440953455 13.07446214975448 277.7375542522404 66.04287448701712 0.42675024307687554
1.5961712424487853 13.064065321856443 253.66862881049502 68.67161304036875 0.4332687566691806
1.6176062117738914 13.052656810757885 231.88024374456958 71.41400630811498 0.4399742706667524
1.638775855402251 13.040089772448036 212.10801462199834 74.27556909759831 0.4468733203880326
1.659666711698903 13.026433095995598 194.17857282123123 77.26220070342933 0.4539692398825173
1.6802579708276004 13.011656759377018 177.95535472164337 80.38018281545116 0.46126543459742897
1.7005961892900574 12.995866891491225 163.13596284551036 83.63280628134932 0.4687688954425149
1.7205150239241511 12.978453512541536 149.7039149416303 87.03116439416553 0.4765058695596602
1.740119631231341 12.96008215872116 137.48357346871637 90.5831341727274 0.48448125655527213
1.759355142189939 12.940567393551127 126.381105030205 94.29689008376192 0.4927034673570831
1.7781806314369022 12.919635961740678 116.26063417087828 98.18123706620979 0.5011937522390745
1.7965826314398439 12.897330928935382 107.03626642824086 102.24557578414918 0.5099668811311462
1.8145663309422615 12.873833054917903 98.6303342774267 106.49994526660083 0.519028947770944
1.832099124922643 12.849141871349476 90.97531968563865 110.95512991034106 0.5283942817316349
1.8491369447045254 12.822838382099754 83.9704836307257 115.62162930966537 0.5380841458549861
1.8656947025700414 12.795445420289665 77.58796289084258 120.50872408637831 0.5481050566143484
1.8817431882655689 12.766539511978486 71.74469342035896 125.63283249912767 0.5584767989549608
1.8972236504971056 12.736065253296049 66.40303956491152 131.0082528449535 0.5692252174164121
1.9121668459388534 12.704211420568278 61.505408807486404 136.65040027128032 0.580378523812034
1.9265340707040748 12.671087862263521 57.03490706097077 142.57587992917834 0.5919534982119083
1.940301894361591 12.636389472114207 52.93499477618416 148.8026001279758 0.6039721048795587
1.9534746808816255 12.600302652492003 49.17480631779898 155.34986549422862 0.6164701058540858
1.9659798167793374 12.5626267844102 45.72822158408436 162.22565638208113 0.629433780816122
1.9778817068458165 12.523580399536215 42.56155760560261 169.46190972799448 0.6429145871546154
1.9890886466073219 12.482923157346422 39.65587904748518 177.0845908384745 0.6569642620188554
1.9996418940224614 12.440967709726028 36.988266461942 185.11994912970397 0.6716223600301935
2.0094536417928954 12.397290810405472 34.53190345185272 193.57650433853973 0.6868450742831118
2.018554288446776 12.352205805091547 32.27767243972578 202.50210108854375 0.7027475980383605
2.0204633405240098 12.320863099184162 31.25861138171002 215.19199547717537 4.0329386610048195
