M[M_sun], R[km], Lambda[1], P_c[MeV/fm^3], rho_c[fm^-3]
0.23841724892012095 16.20908015294055 2780876.1263280716 3.453507347168396 0.169602847481901
0.24840963062593116 15.86644395108285 2282428.3206135486 3.6354779082682263 0.1719775673420539
0.25868645194668605 15.563180103919986 1881861.8451960494 3.824620889200582 0.17437313359731701
0.26924637477064417 15.293903883989543 1525216.3418984318 4.020031430355653 0.17676361080564681
0.280093524318717 15.054332453207044 1295965.7123144674 4.222055586159817 0.17914139794843154
0.2912165451674133 14.84032385012791 1081612.9338259646 4.432053677204588 0.18154299758824613
0.3026345737517718 14.64895644120827 906003.4630445335 4.6503730209095195 0.1839722875548007
0.3143296842336877 14.477519936406349 761464.5344050532 4.8773779524123455 0.18643086982641155
0.32630810908559404 14.323771697029152 642029.4208768246 5.110357969319639 0.18885857331966166
0.33857129475705494 14.185515186490887 542919.1494197337 5.352559334870513 0.1913086581581596
0.3511158504191682 14.061245972906669 460354.59640956286 5.604452360562619 0.19378868780056335
0.3639459917070003 13.949483858742925 391478.72085438255 5.866449086097849 0.1963043140653478
0.3770604874632697 13.84867030210429 333685.19637744565 6.135397414525409 0.1987948223324237
0.3904565545352514 13.758091758951123 285145.81881215627 6.414807941286311 0.20131623840987753
0.4041362511934316 13.676524579341983 244230.88304116452 6.7054497114697424 0.20387234860145434
0.4180997414586475 13.603066234713477 207046.01489062165 7.007356783417796 0.20645350906000276
0.4323489935525953 13.536976575487657 180331.08241496282 7.317272996786348 0.20901222274842507
0.44688102344924013 13.477693263682422 155438.98225158002 7.6397239321435055 0.21161541137413206
0.4616953771660455 13.424318215166993 134225.93558593089 7.9752431349974815 0.21426314508766905
0.47679281354296477 13.376622515712684 116133.78272440833 8.321816325971913 0.21691659762174453
0.49217384563888883 13.333920927577894 100654.39398071004 8.679556285259093 0.21956870071991272
0.5078308401798461 13.295821694143406 87393.95423453664 9.051887682323411 0.22226884846204684
0.523774441570901 13.261954162078352 76000.06937589477 9.439414560495024 0.22501997424462072
0.5399960029560099 13.231867939766156 66196.45708549603 9.836617925258317 0.2277437268266467
0.5564915786083247 13.205324938477174 57748.385481758516 10.249868240690844 0.23051554799881385
0.5732654305207261 13.181998851225364 50449.181514024385 10.680031931024986 0.23333803377776785
0.5903156631441867 13.161712380317507 44140.12098465115 11.123987887871452 0.23616267237473165
0.6076373056320472 13.14382271651412 38668.94425547969 11.582827781015586 0.2390066608265714
0.6252271283981485 13.128608380699804 33924.63872609504 12.060498206284372 0.2419099858565066
0.6430891240523535 13.115580557211898 29799.29225843239 12.55650169634682 0.24485924615166824
0.6612082492391989 13.104507099401905 26208.491578128105 13.066157143117906 0.24778978918900849
0.6795958127819055 13.095427077282736 23079.701899607393 13.596754908432738 0.2507789694705243
0.6982301923259149 13.0878950701113 20348.242225769754 14.149199520395978 0.2538284180336878
0.7171391318851152 13.082049155920076 17960.46724757901 14.717238117112439 0.25687163781186656
0.7362900424984898 13.077587514465085 15871.717261121543 15.306946175645175 0.2599656329769299
0.7556837472630706 13.07425227528619 14039.701248454508 15.920889781043753 0.26312567134942016
0.7753168481471674 13.072082038604313 12433.399729791452 16.555849438174743 0.26630779287605477
0.7951880362415936 13.070945752159135 11022.382107531268 17.211550262146535 0.26950643575777117
0.8153052044932805 13.070732085073942 9780.762410322732 17.894275302862013 0.2727768569500316
0.8356312820423414 13.071312563183257 8688.447981237687 18.604362228532835 0.2761147397015049
0.8561779187333249 13.072628093939036 7725.821931355292 19.33397364287849 0.279445332422164
0.8769463046389923 13.074464632686752 6875.99843539474 20.093590024309147 0.28284690548475966
0.897906910323591 13.07679231595337 6125.47771305332 20.88446115703113 0.28632094117583734
0.9190777870465237 13.079683735119414 5462.413468193308 21.70081063608487 0.2898139747008042
0.9404263304949472 13.082747387859591 4875.253223644573 22.546661769704762 0.2933573013564305
0.9619695488482043 13.08620043085254 4355.08543097701 23.42728733598335 0.2969839646347176
0.9836839067173596 13.089893288689332 3893.9856137053484 24.34268944626804 0.3006847688331733
1.0055726617147314 13.093711712693684 3484.5576391892546 25.28532162691622 0.30438403802235103
1.0275949248850023 13.097504209201462 3121.0982224182185 26.26675295760001 0.30816955980984945
1.049770844798413 13.101559936621248 2798.8954632846267 27.28847867106283 0.3120432958380383
1.0720953603182857 13.105220213531513 2510.058791271584 28.346272133928625 0.3159687987065337
1.0945440900195726 13.10891783974204 2253.6456823807553 29.441242752214144 0.31994670648359874
1.1171122823585617 13.112525401791181 2025.1674853742854 30.58116868259472 0.32401391152872944
1.1397593187786406 13.115783524609624 1821.4814642414638 31.767898384095272 0.3281706599527819
1.1625169384790672 13.118892731039688 1639.465507005947 32.995159307931324 0.3323742734033572
1.1853310499538416 13.121437669121157 1476.798239184837 34.26872425274588 0.33665556074382863
1.2082234069154072 13.12382024342712 1331.3788552954516 35.594699607130416 0.34104239307834106
1.2311697286163867 13.125735203944519 1201.1916460334778 36.97510296856484 0.34553405854656843
1.2541432045489338 13.127192497980733 1084.6834313007546 38.40544298894671 0.3500819860916828
1.277163704664579 13.12818563223521 980.0969466460963 39.88943817049852 0.35471300110613674
1.300167397077655 13.128523569037823 886.318834890907 41.43478045997846 0.3594609916881018
1.323177270377682 13.128274320471949 802.1500733493152 43.04392276158212 0.3643281457981058
1.3461807352999184 13.127504036648247 726.5465996718946 44.71922724928095 0.36931542254991995
1.3691390097908598 13.126012069231415 658.5292955969525 46.452643957392844 0.3743536505850819
1.3920291604946207 13.123722339958261 597.3690732967901 48.258348594776685 0.3795237082889014
1.41486733628085 13.120754351269897 542.2795140791603 50.13936279049162 0.3848288879794628
1.43762331795132 13.11706486669316 492.6733796223337 52.09887149258668 0.39027205411951765
1.4602538788515818 13.11238392359791 447.93914859659714 54.14025295778052 0.3958550142930796
1.4827850345572138 13.106997060405192 407.57462559969457 56.26076544087086 0.4015407536368234
1.5051603920514203 13.100577140090634 371.12322749997423 58.46756196553231 0.4073656233227527
1.5273995623624332 13.093328227805555 338.1804991231456 60.76805027173623 0.4133509021897057
1.5494383792994766 13.085040239877905 308.42942626609977 63.1664724169382 0.4194997798575483
1.5713083689239813 13.075875452123043 281.4841551987008 65.66733559539061 0.4258132045096387
1.5929754351819188 13.065794581404367 257.12777296161386 68.27549127126676 0.4322961121254508
1.6143975249723987 13.05449184497424 235.03051008428017 70.99597975551312 0.43896375293724127
1.6355612987308907 13.04207771396928 214.99848058372763 73.83422740695465 0.44582339535800114
1.6564596129816511 13.028622144026816 196.84271526368335 76.79148713057184 0.45285853631556955
1.6770571146162976 13.014031907623908 180.36577562181958 79.87839830458606 0.46009159131917876
1.6973450315087106 12.998251073731147 165.39561016151902 83.10235173372854 0.46754519249321846
1.717322337035763 12.981389299275012 151.79116673848864 86.47039370964436 0.47523012955617727
1.7369524586891352 12.96320758944191 139.40110895451414 89.99002792611691 0.48315138009820957
1.7561989680002263 12.943791173300548 128.13771268343424 93.66928903335287 0.4913164440902917
1.7750417533958736 12.923124228871938 117.88721732956864 97.51681109184707 0.4997440117559029
1.7935076964130168 12.901238375537355 108.53861880187573 101.54180688521315 0.5084503069562788
1.8115157806917581 12.877955565486406 100.02070882211672 105.75413275242717 0.5174427959702141
1.8290862507354486 12.853432299398083 92.24943460098656 110.16437378169144 0.5267338780610655
1.8461692689028497 12.827571686903642 85.16051294432255 114.78390669562145 0.536346899335187
1.862790881320223 12.800326827726629 78.67466430355366 119.62494004325983 0.5463017734742908
1.878905400392816 12.771819595447216 72.75429718097637 124.70055303870991 0.556606900167119
1.8944544212615162 12.741652631003172 67.33262117403206 130.01764434751593 0.5672591763606784
1.9094650186692153 12.710202991660996 62.37377955682794 135.5970041805478 0.5783089054436054
1.9239193480410195 12.677398951465824 57.837397571693316 141.45512657909183 0.5897756999901514
1.9377708419732318 12.642924162759044 53.67243689798962 147.60954868988327 0.6016771760023044
1.951027961956817 12.60722288587146 49.85985311977078 154.07915156363475 0.6140486857782265
1.9636429360932102 12.569913115397455 46.363035970942185 160.88434498821024 0.6269222971799815
1.9756300343762143 12.531194297394777 43.15130664039817 168.03434481281747 0.6402707911013551
1.9869630330515748 12.491075414389513 40.208072014022 175.56115500739267 0.6541671383137757
1.9976029910939763 12.449337988909269 37.49729169148539 183.4932511877884 0.6686607748988985
2.0075626431850595 12.406213480150827 35.00723781007252 191.8560231719421 0.6837679850929986
2.016779426688765 12.361378975008096 32.71563870785642 200.66234249251497 0.6994833560322375
2.025296413105919 12.31518020374391 30.607939876164 209.9622422898078 0.7159152376374105
2.0330551440469375 12.26744525319255 28.66903546522368 219.78383104998377 0.7330718708893581
2.0400632371108647 12.218159979965451 26.880907631929563 230.15260964695813 0.7509773148309844
2.0463147395415566 12.167493255248585 25.234198203880833 241.12760709864656 0.7697482185047195
2.051784481196244 12.115194115441323 23.712791744943523 252.72590874333548 0.7893355040152923
2.056447024935758 12.06145347009004 22.312840484303496 265.01974546554186 0.8099005629969132
2.0602930954478693 12.006270476865717 21.021874048308508 278.03467918346604 0.8314165286687109
2.06333873144924 11.949657002104248 19.831463940462115 291.8494961253514 0.8540221236083231
2.0655516179145588 11.891528400468427 18.730856166005392 306.4992449522147 0.8777224804264564
2.0669323153209027 11.831927355685105 17.714140678009148 322.06732811282995 0.9026367639654884
2.0674586725704427 11.771002343486325 16.7782728690977 338.62209756769516 0.9288555353140323
