M[M_sun], R[km], Lambda[1], P_c[MeV/fm^3], rho_c[fm^-3]
0.23841724892012095 16.20908015294055 2780876.1263280716 3.453507347168396 0.169602847481901
0.24839670424589955 15.866940809370101 2283041.3838877482 3.6352329544971065 0.1719744514374431
0.25865872891546426 15.563877471218015 1882868.6373042131 3.824117059333594 0.17436697019483732
0.2692046670715549 15.294991094085706 1559706.5340915408 4.019219786961373 0.1767536818886915
0.2800362035195142 15.055457953539971 1297139.441084877 4.220944211863241 0.17912840215029113
0.29114438345731397 14.841687924091682 1082855.2973410338 4.430627294478935 0.1815269479015416
0.3025412838773172 14.65041419367184 907278.5982667787 4.648615546539177 0.18395325318712802
0.3142200464850935 14.47910946136868 762689.1022905483 4.875180684986045 0.18640707226966013
0.32617875296183935 14.325259768486669 643139.1040996177 5.107782122045336 0.18883173270859774
0.3384219021640465 14.187152530196327 543968.0352004889 5.349587119004584 0.19127900105531778
0.35094708923546186 14.062859166564927 461389.5239030875 5.601065204291712 0.19375613369163472
0.36375291924882946 13.950936827215417 392375.4848447526 5.8626270603062824 0.19626892144221258
0.3768458457500512 13.850223534067071 334535.4599240527 6.130941902579416 0.19875356351739248
0.3902242455054272 13.75958904519502 285906.30668384256 6.40986024465672 0.20127213997170104
0.4038803718108114 13.677990731608503 244931.3253859525 6.699987720350419 0.20382565120079005
0.41781545878203713 13.60450178477532 210285.71547885615 7.001108106969091 0.20640008587761888
0.4320417720380921 13.538329115074555 180911.77270183523 7.310445439213388 0.2089559410319964
0.44654521606715253 13.47897248606403 155964.7396968684 7.632290826192869 0.21155631438880815
0.4613386161156519 13.42568478610431 134705.85764872408 7.967176772586133 0.21420138696459845
0.47640202690333044 13.37777959386248 115301.95238136173 8.312738538020685 0.216847095767388
0.4917598677561458 13.334997862462835 101034.60588090136 8.669768761267617 0.2194966920117235
0.5073870147851457 13.29685169201026 87741.39053352115 9.041358741236133 0.22219407560164536
0.5233007943445639 13.262871196857105 76311.77244770956 9.427816504348916 0.2249385635926758
0.5394943541299564 13.232817246589406 66479.79503358093 9.824033844656505 0.22765743369553984
0.5559565757293985 13.206152102282966 58003.595364633955 10.236415254536343 0.23042664787510697
0.5727001615936718 13.182721672664654 50676.63310289807 10.665671424479555 0.23324666606339298
0.5897169173011978 13.162342459571043 44344.85061561979 11.108093748284306 0.23606154702783397
0.6070075832710147 13.144495012920755 38854.755166106734 11.565919223163416 0.23890268142596346
0.6245672817491128 13.129203797540072 34090.57494199086 12.042527087433182 0.24180312873080217
0.6423935854658034 13.116118854777932 29949.30757376627 12.53670175523717 0.24474151476200828
0.6604831996516162 13.105029714467696 26344.921169514175 13.045169786588929 0.2476694119925246
0.6788334400315208 13.095747438537032 23199.533972340294 13.574526139427984 0.25065594888206566
0.6974298440059965 13.08816424314249 20458.078084701163 14.125670524402825 0.25370236338461827
0.7163028396622737 13.08227842272943 18058.647637940776 14.691450770018365 0.25673348423364656
0.7354075285861791 13.077607097522074 15959.11688272541 15.27970388070116 0.259824286132545
0.7547700760576244 13.074375328761855 14120.435581394857 15.89212274073015 0.26298150436619305
0.7743669872307406 13.072150579948065 12505.457981823509 16.5244112125382 0.26615023915837566
0.7942078766165005 13.07105070816263 11013.57480161761 17.178409456113904 0.2693457991430055
0.8142754389458627 13.070751885647237 9839.883638113562 17.859347778670156 0.27261267426149455
0.8345605227181878 13.071304542667008 8742.434498400486 18.56628256429717 0.2759357398497416
0.8550716784634456 13.072476123474443 7774.014980485385 19.293892454170035 0.279262524628253
0.8757990398384162 13.074331097747567 6919.836515077986 20.051407787138295 0.28266077192584665
0.8967274542135244 13.076706530173976 6165.515828056015 20.840073715371187 0.2861310141583235
0.917858391407737 13.079471379721548 5498.214532924445 21.652563122787594 0.2896075310320473
0.9391794022081974 13.082692954411375 4879.656414798164 22.495942337406056 0.2931464081149589
0.9606729135931114 13.08602257041324 4384.544623944679 23.37396481831136 0.2967683913964045
0.9823531474459812 13.089711597257088 3920.66773296442 24.284820605614836 0.3004508156381315
1.0041810399541424 13.093423427557445 3508.955912371018 25.224534057600568 0.304145817280331
1.0261851606225505 13.09729864869526 3142.9501880059993 26.20289526427439 0.30792623374156614
1.048338945739587 13.101187319699225 2817.533053970213 27.221384654755465 0.3117943079564533
1.0706028137031607 13.105011727839218 2528.2796091914543 28.2736087150913 0.31569914260721554
1.0930064465522358 13.10865427016926 2270.15050201376 29.364937245257035 0.31967076684508905
1.1155232120616465 13.112205533450876 2040.3204690665643 30.50102492799564 0.32373236866152255
1.1381463310371016 13.115528776508075 1835.1201877956166 31.68370838212926 0.3278822924037182
1.1608537887724402 13.11853308661421 1651.8809271275056 32.90413009854655 0.33206248020475276
1.1836372597344749 13.121246753975333 1488.20315921291 34.1731328265611 0.336335950233165
1.2065005711100172 13.12365870330409 1341.7592705794543 35.49428516004559 0.34071447806778893
1.2294186747515161 13.125641881974557 1210.6159285796796 36.869595861653956 0.34519858679098037
1.2523818465243544 13.127131801184966 1093.1420894720852 38.29150779973301 0.34971971629708914
1.2753499746605084 13.128102771687395 987.8705598375615 39.76975506887412 0.35434095240688446
1.2983278311424957 13.128550228860377 893.4978044932761 41.3090126339535 0.3590784731414705
1.3213136756575787 13.128399172944055 808.6667514768204 42.91171139285259 0.36393456081672965
1.344266308286479 13.127526092591783 732.4625774160847 44.576583862542634 0.36889078210294235
1.3671959071047366 13.126092748238541 663.9920032000931 46.3027081869958 0.37391791156926246
1.390071841923863 13.123932803774887 602.3482886191129 48.10069170944198 0.3790746670092657
1.412897964842305 13.12106190938123 546.8212028808666 49.97351740478624 0.38436569726350595
1.4356108818086928 13.117301845194627 496.8306028238508 51.92434037130971 0.3897940324936229
1.458225079383782 13.112810555534887 451.75342779802315 53.9555105113902 0.39535718504616596
1.4807413825450002 13.107480978524297 411.06863285797107 56.062768825913416 0.40100986445198306
1.5031203410977367 13.101244394753031 374.3052784579699 58.259097350091565 0.40681664581478166
1.5253390807315577 13.094159769986604 341.14663940155106 60.548464129069735 0.41278268244338545
1.5473764648518304 13.085907868447809 311.10207131848443 62.935068756738445 0.4189114883265117
1.5692229907052608 13.076842101760295 283.9694690540434 65.42337843405912 0.4252044865472164
1.590860487971907 13.06667237256466 259.3722004522948 68.01819000044341 0.4316643299395629
1.612280546744746 13.055638465997857 237.1223225922627 70.72447932808787 0.438307440571973
1.6334459136768495 13.043355202677104 216.9232868036267 73.54257521929952 0.4451197730513503
1.6543551220825614 13.030106980938573 198.61124967307106 76.48285869448773 0.4521243280436259
1.6749384219948324 13.01550523941988 181.98034176458202 79.5524834821402 0.45932889469391297
1.6952524923746006 12.999898850550952 166.87214407673483 82.75802164674944 0.466750859133541
1.7152260301998998 12.983093293886183 153.15343217392868 86.10642845386705 0.47440211723404696
1.7348766519586998 12.965180751308703 140.66748345830283 89.6051228528162 0.48228833709687235
1.754118692146461 12.945921601124454 129.3098522851124 93.26204943840963 0.49041642839883154
1.7730054149895216 12.925464969385313 118.96482305619608 97.0857322054013 0.49880342162662566
1.7914957620168073 12.903852686029248 109.53901512107709 101.08526295055592 0.507466485787085
1.8095288913499437 12.880728075578228 100.9381273347211 105.27038042481182 0.5164139789270937
1.8271170517852493 12.856253976795697 93.09134595808545 109.65154145732883 0.5256570496396249
1.8442476358604574 12.830599293056238 85.93631278628477 114.23997091134275 0.5352177946400779
1.860887784378545 12.803572339593723 79.39895259680976 119.04771281489289 0.5451168945752741
1.8770171419093122 12.775162217588004 73.42332794146729 124.08768114439928 0.555363876889554
1.8926297058210393 12.745330041169325 67.9535416144134 129.37378038594682 0.5659786778651741
1.907691582750965 12.714074647979695 62.949172694477404 134.91429596217017 0.5769675814331385
1.922178028266734 12.681327368285743 58.36401820219019 140.72888238287578 0.5883644944657972
1.9361043738430326 12.647372090698312 54.17073484593193 146.83658476095712 0.6001903187009925
1.9494088427183847 12.611765237277623 50.31774083725802 153.2560120831115 0.6124801451213693
1.9621023285229506 12.574738251571652 46.786784967769194 160.00728147694244 0.6252663188536529
1.9741509581007397 12.536265242413645 43.548074406005234 167.1098564142759 0.6385586736674196
1.9855233703032145 12.496229582482934 40.57044593586172 174.57476364270943 0.6523560619216169
1.9962565064653581 12.454876822819053 37.83621691021193 182.44020005334283 0.6667435777955477
2.006300017174524 12.411944326043367 35.32137818244187 190.7334898629119 0.6817470794845847
2.0156010712887564 12.367431335480362 33.00861942803057 199.47183014323969 0.6973710100796562
2.024192940111398 12.32143424008075 30.880630693200295 208.69639641932838 0.7164935220825887
2.0318765392371048 12.27431677182267 28.946019006275524 218.48069592038792 0.7989232309187526
2.038367981046101 12.225754978113256 27.206010278444598 228.92108176906584 0.8834999872489177
2.0436391411556234 12.175601634712116 25.635265105292316 240.06524262229195 0.9705612730259092
2.047684980243469 12.123668975173466 24.215307827655387 251.96256080549233 1.0603586107043284
2.050488813813503 12.069684042469342 22.92510722325773 264.67001134500816 1.1532021865971671
2.0520904188504017 12.013782855122544 21.75225679213278 278.2489644086119 1.2494251657974693
2.052499244099498 11.955898152243698 20.68372626784279 292.7684447736256 1.3495197662197331
