M[M_sun], R[km], Lambda[1], P_c[MeV/fm^3], rho_c[fm^-3]
0.23841724892012095 16.20908015294055 2780876.1263280716 3.453507347168396 0.169602847481901
0.24842706042391471 15.865901022757807 2281657.930376531 3.6357780063221545 0.17198138470279778
0.2587195239960356 15.562261196714708 1880798.6267785435 3.8252382058445553 0.17438068529518866
0.2692993319379887 15.29266068055313 1557029.0261360058 4.021026004526516 0.1767757775335694
0.2801664745872674 15.052778777952526 1294321.2521281608 4.223417582184454 0.17915732437885087
0.29131207105671525 14.838695442301546 1059386.4611612752 4.433801888090242 0.18156266849178662
0.30274759432365145 14.647176323102359 904471.2385531926 4.652527229705128 0.18399561876403553
0.31446606880697386 14.475655215681156 759915.4451618822 4.8799614174285475 0.1864578159838246
0.32646676757622367 14.321843936185228 640571.9518554809 5.113515937463733 0.1888914796940238
0.33875349582854536 14.183557096791851 541572.5058818277 5.356203572554078 0.191345020769974
0.35132495053067087 14.05928242365284 459113.5433716528 5.608605717419618 0.19382860589725806
0.36417721577787415 13.947501800381 384648.7961350871 5.87113607965288 0.19634771644031246
0.3773206099271172 13.846832341333617 332651.5119325012 6.140861889137278 0.19884542431710847
0.3907463861593403 13.756275910974155 284197.625870179 6.420876556613358 0.20137032750988745
0.40445245632420823 13.674770131693736 243372.40765798057 6.712149674413505 0.20392963006661707
0.4184475990577879 13.601278469430845 206267.1842278955 7.015022640436637 0.20651904845558644
0.4327262818549879 13.535343651689164 179623.62313782648 7.325649677955808 0.2090812743806017
0.44728806175577346 13.475983465126808 153001.59568626646 7.648844254109045 0.21168792258773864
0.4621381810074196 13.422847851544915 133649.09971949697 7.985141196054692 0.21433892716163977
0.47727072515511754 13.375340614902935 115625.35376116494 8.332956828882693 0.21700189214667986
0.49268718729583116 13.332755775966927 100192.28845439668 8.691568673334842 0.21965707818374888
0.5083778425352491 13.294643843557932 86972.90691068234 9.064810950029704 0.22236062499343054
0.5243523998801775 13.260825293946093 75621.77872006231 9.4532912967621 0.2251151315357984
0.540605279490329 13.230826298048097 65857.11005973682 9.852066670876935 0.22784966389692518
0.5571445840865669 13.204422543261709 57444.57423343194 10.26638483242403 0.23062469306381525
0.5739593957138348 13.181211282878456 50175.52739046445 10.697663906857194 0.23345021598572865
0.5910468222631211 13.160809498504607 43889.065943988586 11.143505332161716 0.23628685074334274
0.6084084819303712 13.143230755267307 38447.549034544856 11.603592278890241 0.23913435238145195
0.6260395238447224 13.127899084835892 33721.74657770763 12.082569032327626 0.24204122003577133
0.6439367160261267 13.114987923037283 29618.473039891953 12.58082168304361 0.2450038539469373
0.6621092141661937 13.103999500983516 26044.46792524572 13.091937287216235 0.24793765638072568
0.680538943681464 13.09505025444215 22932.42897150716 13.624061708885243 0.2509300933883567
0.6992174088276388 13.087539783062994 20214.228622167393 14.178105409611469 0.25398327894327194
0.7181689530768965 13.08176266370138 17840.215131858226 14.74892261140324 0.2570413848682193
0.7373614917836459 13.077278186891222 15761.645167962133 15.340420443944172 0.26013931446014854
0.7568015542718285 13.074119907739247 13941.967379674716 15.956239801995372 0.2633028291599579
0.7764801440066108 13.07197266216833 12344.904248067427 16.594487119182798 0.26650142690475903
0.7963970649340341 13.070895649837773 10942.309271892784 17.252282935606154 0.26970387087049796
0.8165627777837502 13.07078039054702 9708.659019391343 17.93720663656393 0.2729786628882637
0.8369328952269658 13.071343299581939 8622.915979961936 18.65029547190976 0.2763271190605546
0.8575294280607786 13.072651129449987 7666.296876573651 19.383249455565338 0.27967007632075386
0.8783332056022138 13.074515263412234 6822.418762446179 20.14545204712765 0.2830757521161163
0.899355692805404 13.077036898751816 6077.472922106151 20.939037766291488 0.2865544660701589
0.920572335452723 13.079887840501849 5418.831950719713 21.760141787206635 0.29006784354651405
0.9419735308749977 13.083067517758094 4835.992004946892 22.60903652934073 0.2936166578722561
0.963567428565377 13.086555594834193 4319.463058832835 23.49286741997796 0.2972490929837301
0.9853223852876983 13.090178110946981 3861.2929372817116 24.41295072260922 0.3009652988544541
1.0072581313291842 13.093972607226457 3454.8986326022678 25.360098282358198 0.30467708067146015
1.029338340096746 13.097845482714284 3094.2609157233114 26.345311163027663 0.3084689013341453
1.0515765082534703 13.101777096982582 2773.2680897365935 27.37102341710074 0.31234962183524495
1.073934549822512 13.105525252313406 2475.2007775470074 28.435682155908086 0.31630060194608267
1.0964289464091073 13.109255163010472 2233.5824349419213 29.53514023826267 0.3202862630816797
1.1190268094171192 13.112748972828808 2006.9034459046932 30.679795662527628 0.32436038547237206
1.1417319075089591 13.116092063116888 1804.8601142029397 31.871511519152428 0.328525555606773
1.164524106860896 13.119064460501686 1624.3577741792058 33.107206696497066 0.3327580580578906
1.1873928935535625 13.121697895035442 1463.051842323409 34.386395052721895 0.3370489937740863
1.2103270288475623 13.124026645705356 1318.825240098811 35.718315765075324 0.34144607596375964
1.2333139450424617 13.125886102273812 1189.7712737739298 37.102949121003256 0.3459363840181996
1.2563347226690764 13.127274691530456 1074.1674016207883 38.53420059666259 0.35046831008121127
1.2771564207158341 13.127263843726901 979.496918745124 40.239578382108505 0.8413348140231777
1.2735484824714456 13.111143422044929 983.8511744375633 42.78764225230383 2.360537052859214
1.2560208848201468 13.079912597354479 1040.0801793905366 47.69360903117369 3.8517745754529105
1.2333324855055166 13.040192348265563 1119.5096600742631 54.517963232296594 4.967316400522971
1.2062245912996665 12.989335184701568 1221.615171506032 62.6970114849525 5.582792765011168
1.1733439632605693 12.919792877550591 1354.2178342553088 71.7558219354505 5.6187184690982654
1.1376290914076137 12.833083830902593 1508.249806601623 81.12413159649925 5.6488681178075915
1.100819727094757 12.731144020635124 1677.6349683300793 90.57690364595398 5.679170393078462
1.0639222676692135 12.615030053673877 1856.728358816723 100.3950674735658 5.710552915140616
1.027425799741101 12.485030100797223 2040.7758734232336 110.57056124694877 5.742980536533723
0.9917005002447622 12.341062139286095 2223.399138595785 121.1032417195971 5.7764436665609455
0.9572960118738836 12.18382857200632 2395.0328902144 131.9973011314342 5.8109464469314025
0.9245475008738361 12.01345269761773 2545.756980513745 143.2602338150548 5.846503311811539
0.8935879590426966 11.830005669997172 2667.0254952506903 154.87484979207156 5.883046512635086
0.8649862742485811 11.63511547882064 2745.3043893263584 166.80885903819026 5.920452977911065
0.8388268887597443 11.429419664291165 2774.3658213145586 179.16560392736963 5.959042452316945
0.8152865060802192 11.214210294955947 2749.08985720161 191.9573011458027 5.998851879622939
0.7944589497138336 10.991106870921076 2668.892871698552 205.19784637745548 6.0399154661646035
0.776473107306196 10.762405314869609 2537.713498849516 218.90308993296864 6.0822706857282425
0.7614247424993692 10.531091831726668 2363.9559218707186 233.09035944459092 6.125945318413194
0.7488081742978329 10.295920002709801 2159.904925389499 247.77949890418267 6.1709855613048825
0.7390429142513987 10.062924956693292 1937.3216961752935 262.99137781453663 6.217454722284676
0.7318265275891476 9.833374700871456 1708.933327427289 278.74851943052045 6.26540063298372
0.7269642824459722 9.608551222926305 1485.88301468724 295.0755595840387 6.314872907021062
0.7243353734497655 9.390854877206515 1276.2410170398427 311.9988747337025 6.365945906387581
0.723740265384172 9.181609318531683 1084.979440041433 329.54642249811883 6.418682038930509
0.7249269864295173 8.981077675652715 915.2510403301129 347.74873410749325 6.4731471875752575
0.7277554340142514 8.790741403149296 767.5585521335883 366.6379048797688 6.5294305913106125
0.7320514815667769 8.610896107278679 641.4390618975884 386.24855038920765 6.587602551378165
0.73756810844409 8.440637013609223 534.829859675962 406.61806384951825 6.647765617887767
0.7441890268494454 8.281006492946712 445.737799840125 427.78562666641886 6.709991277181607
0.7517658250432842 8.131241026593889 371.64093175083866 449.7932688880065 6.774410114141264
0.7601466734960436 7.990964619636711 310.5248034683244 472.60246015893307 6.840808366793796
0.7692029225802384 7.860027415719465 260.12064960053976 496.3372509409113 6.909592834027198
0.7788123642268701 7.7369877125430255 217.9226090662137 521.0499360303618 6.980859949993892
0.7888676356243174 7.6221099748155465 183.7519180157121 546.7955710207129 7.054751797588251
0.7992818386382956 7.514865993104644 156.0634304394572 573.6339202297229 7.131408045625004
0.8099683622418966 7.4141000429485375 132.7017008240935 601.5043162064877 7.210559578082689
0.8208651966133114 7.319635394627164 113.33119194141139 630.5841054004385 7.2927317620514645
0.8318735493201551 7.231301583539233 97.24965059528567 660.951336748052 7.378110495252214
0.8429716187533708 7.14760196370418 83.7266997495895 692.596305580445 7.466584821642025
0.8540654617803511 7.069025158666059 72.4638211108021 725.6135218896111 7.558387487218042
0.8651011366020436 6.994886891528411 62.99174282073914 760.1593002674389 7.65394022349809
0.8760726373566944 6.924642526736381 54.966772792807255 796.1707771838592 7.7529440930472795
0.8869029139231528 6.858067222161205 48.171802901180534 833.877527574786 7.856043931316032
0.8975765821918008 6.794874740827621 42.363592150368824 873.2890906493017 7.96316853667891
0.9080345899944218 6.734566705140663 37.413629641061306 914.5618737961705 8.074707261717325
0.9182644296186624 6.676990466033604 33.11191792311259 957.7581036189873 8.190720864482119
0.9282288704662762 6.621843981397046 29.457509875910823 1003.0679845832349 8.311718807925661
0.9379178933270664 6.568900807941152 26.287531261181073 1050.5088090529807 8.43757496438389
0.9472733741079478 6.518022816676716 23.571466588441467 1100.3359829779963 8.56897049165531
0.9562862856552775 6.469007095184681 21.182710092960082 1152.6369892250257 8.706013998338745
0.9649760857772396 6.421410570157906 19.085632140298813 1207.5529453005724 8.848962368296638
0.973282352947718 6.375233090626479 17.247662146009 1265.311918612775 8.998357729528392
0.9811917262821631 6.330351676064226 15.63348684686612 1326.0907714099833 9.154535797533422
0.9887026649100967 6.2866678240255665 14.20796464775856 1390.0831859678856 9.31787109649642
0.9957772174917804 6.244011338391286 12.951105099735878 1457.469349111525 9.48866457592811
1.0024222661359463 6.202242424866577 11.835780082484765 1528.5337491492971 9.667552159690045
1.0086218594212772 6.161240317422138 10.835059084477278 1603.5327820420669 9.855034573599049
1.014358568411908 6.121000753136789 9.956547392112059 1682.7479598787395 10.051662733335352
1.0196251556116316 6.081336014478254 9.177686320394663 1766.4877388495056 10.258037442212524
1.024415841603134 6.042155730489498 8.47406331335665 1855.0905132112705 10.474812555155024
1.0287250649758517 6.0033994127328745 7.84214522888788 1948.8842721485462 10.702557398342039
1.0325258825412136 5.965069848240795 7.276941412305268 2048.3059776587256 10.94217827381885
1.03583207979257 5.927058653390752 6.762670752458015 2153.804321035934 11.194539462777959
1.0386230614047471 5.889321704424312 6.310595458366689 2265.870209015645 11.460587562129328
