M[M_sun], R[km], Lambda[1], P_c[MeV/fm^3], rho_c[fm^-3]
0.23841724892012095 16.20908015294055 2780876.1263280716 3.453507347168396 0.169602847481901
0.2484122130882703 15.866339249717496 2282349.850203721 3.635509437618631 0.17197796840731555
0.2586904296260275 15.56302325517358 1881745.4778094222 3.8246857433314134 0.17437392696455656
0.269254311638196 15.293868620170338 1558441.3521479098 4.020135912784457 0.1767648889499232
0.2801015506103339 15.054148513352207 1295734.4596897776 4.222198660071654 0.17914307097585636
0.291227978055707 14.840091223642185 1060716.2687634071 4.432237313112949 0.18154506386312724
0.30264561372481436 14.648768315462299 905846.9242410898 4.650599293190646 0.1839747382020851
0.3143440429461034 14.477334593459073 761293.2824084882 4.877651689189234 0.18643374836228768
0.32632583975830687 14.323520764089285 641855.1234356512 5.110689640336525 0.18886202936802846
0.3385911509928286 14.185348134208875 542757.918725197 5.3529420603654785 0.1913124770360192
0.35113745744987085 14.061017709903329 460228.24189601303 5.604888536176888 0.19379287990370925
0.3639702506894462 13.949206335439685 391334.82392866135 5.866941282446084 0.19630887188908094
0.3770877090551005 13.848521342718886 333568.76524650847 6.135971224073889 0.19880013590857631
0.3904878889253002 13.757849646342663 285026.9227206615 6.41544516414707 0.20132191792805207
0.40416908967234294 13.676265734393013 244134.32526536062 6.7061531998908235 0.2038783630895676
0.41813825924692904 13.602843037784977 209554.90027743875 7.008161642774377 0.20646039022092585
0.43239137855356763 13.536903410534507 180265.005823203 7.31815245364111 0.2090194723894251
0.44692487378478296 13.477459154787141 155366.35881211676 7.640681426758462 0.21162302394491792
0.4617427221635334 13.424211683313803 134173.16921495186 7.976282241951608 0.21427110075490588
0.4768424339633381 13.376484227780114 116079.71832134525 8.322985796022744 0.21692555138202005
0.49222685132854077 13.33377496365716 100600.81436504249 8.680817235671048 0.21957797777612575
0.5078869668901865 13.295696560713859 87344.8592169004 9.053244200589907 0.22227848198075797
0.5238344557974354 13.261847095633595 75958.3770211581 9.440871110989187 0.22502996228480687
0.5400592274084369 13.231761620271246 66158.01192913177 9.838239380891958 0.2277548456749762
0.5565605833738949 13.205285984596689 57717.17342369877 10.251601715303329 0.23052700315871089
0.5733331511740329 13.181934945853861 50424.83658495999 10.681882407189729 0.2333498073024094
0.5903961276876077 13.161586206188804 44113.87549825583 11.126036116769527 0.23617570408725108
0.6077206947536294 13.1438378721639 38646.96746632827 11.585006808476145 0.23902006078481966
0.6253110100531242 13.128560014032766 33903.24154876498 12.062814244660482 0.2419237571306238
0.6431793135055044 13.115567732993869 29781.30519581353 12.559053591929716 0.24487441984393216
0.6613019522094132 13.104457180182381 26191.850375453356 13.068862166461443 0.2478053043934159
0.6796960233924979 13.095314794903368 23063.220073201875 13.599620028202292 0.25079482589154245
0.6983336921164003 13.087861999582708 20334.582441931852 14.152232327013028 0.2538446660441817
0.71724803431333 13.082002624574121 17947.288033760604 14.720562239212294 0.256889446520954
0.7364029315772898 13.07751907181117 15859.17653773617 15.310457959852503 0.2599838538946935
0.755802199523809 13.074212500709567 14030.456136525605 15.92459823628653 0.2631442563967158
0.7754380818593251 13.072088945559395 12424.189739401942 16.55990252166945 0.26632810503934407
0.7953163246111747 13.070938029646875 11013.287225973363 17.215822979678336 0.26952714602291933
0.815432903710626 13.070776621056247 9773.378320431882 17.898778515582368 0.272798025057093
0.8357697392965515 13.0713018515485 8681.532512550959 18.609272190702413 0.27613781980260765
0.8563164223791312 13.072578808795361 7719.556590567605 19.339141840940645 0.2794689042501632
0.8770893173229294 13.074526590129787 6870.42834051947 20.099029307405562 0.28287090689361266
0.8980591033773345 13.076805834876907 6120.318956691258 20.89018497273913 0.2863454325005357
0.9192354685161952 13.079712482430903 5457.798318244164 21.707032658565293 0.2898405977754492
0.9405983579639542 13.082845586909462 4870.96714512341 22.553202775483076 0.29338449909600595
0.9621367540594257 13.086280419668585 4351.398632750409 23.434164262500246 0.29701176679754887
0.9838559717834426 13.089937179773427 3890.44950473267 24.35015325382843 0.3007149436492958
1.0057535314352977 13.093768838690318 3481.358939368808 25.2931621327183 0.3044147642239579
1.0277888800851438 13.09760736565403 3118.0488659158877 26.27498971437803 0.3082009454978978
1.0499788786079753 13.101487818188799 2795.0370464334424 27.297133144392234 0.31207541284487617
1.0722958719675815 13.105275925554821 2507.5252848337714 28.355645713573868 0.3160035843382068
1.0947415093730304 13.108962455962915 2251.5501337314645 29.451086479283546 0.3199823038421307
1.1173096286634747 13.11256421239482 2023.324684689204 30.59150789678821 0.324050232911765
1.1399649489785697 13.115744978524189 1819.6294739428954 31.77875995581115 0.32820786300233107
1.162719499075761 13.118838868802163 1637.8953365092457 33.00690413696934 0.33241450178540705
1.1855486750084812 13.121486263451722 1475.3863967278567 34.281058125248954 0.3366967991210189
1.208444625749805 13.123855022372087 1330.0992479182528 35.60765622177053 0.34108470440454736
1.2313978783517676 13.125772126262236 1200.0255105319786 36.9887171673049 0.3455773464281716
1.2543868059713867 13.127192019336393 1083.4871479530016 38.42014589315164 0.35012873563519964
1.277403100074632 13.12822123797007 979.0756098389128 39.90488336709239 0.3547610142777913
1.3004021105680066 13.128491957481952 885.4008575758248 41.45101148003728 0.3595103577811597
1.3234212481284593 13.1283041503389 801.3412392982119 43.06098598318916 0.364378941942363
1.3464279537146109 13.127566796697119 725.8133824957827 44.73739420211278 0.36936884116788243
1.3693855450656276 13.125953265293715 657.8372714084963 46.471997033376084 0.374409893936883
1.3923125026097793 13.123844145351619 596.7194499337209 48.27869906254702 0.3795816708705506
1.4151091424882327 13.120688584278131 541.71721336808 50.1607710781074 0.384888679332873
1.4378683660476421 13.116919697983523 492.1261613832719 52.12140189164895 0.390333762414938
1.4605165488951026 13.112332562756626 447.4407401049875 54.16397298517207 0.3959186149056911
1.483059073167433 13.106945422526858 407.1099848993402 56.28632830535686 0.40160929545655133
1.5054263208798553 13.100538185573091 370.72067750936276 58.49447747030325 0.40743650348965155
1.5276685729152093 13.093250863395625 337.81822226422037 60.7964029433608 0.41342426997003273
1.549725265745962 13.085022010370114 308.07306713506983 63.1963522807673 0.41957574266135195
1.5715969040945095 13.075822555977014 281.159541539608 65.69883785665375 0.42589180844232566
1.5932248941102853 13.065500288742 256.82460913218944 68.3087182090909 0.43237769814848803
1.6146625031370945 13.054233055101765 234.74980014723096 71.03104199429934 0.4390485107443932
1.6358315052655859 13.041882919532181 214.7469853853771 73.87124296135424 0.4459114531098259
1.6567258406494343 13.028427361774378 196.6133767502375 76.83134986879953 0.45295336734449365
1.6773263126005515 13.013798457264384 180.14827490210916 79.92049591027711 0.4601901069422222
1.6976267432605083 12.99807439531243 165.1977295631575 83.14683031189824 0.4676477999032801
1.7175898395527998 12.981086815406705 151.60329516030671 86.51741116025943 0.47533709314087796
1.737212642677764 12.962964295710009 139.24751520533832 90.03975313279385 0.4832628750994174
1.7564957006781452 12.943712098876851 127.99072040488838 93.72190255288308 0.49143272205969374
1.775320480540776 12.922955424728185 117.75429733108912 97.57250774778478 0.4998655387581662
1.7937695587551943 12.900926813246928 108.41239103307649 101.60079718521422 0.5085774270459624
1.8117840622351875 12.8777242970611 99.90404804760486 105.81664245089475 0.5175757380553939
1.8293390690793647 12.853012226013448 92.13709073219789 110.23064526487231 0.5268730327383938
1.846440098944873 12.827229726666406 85.05726182417828 114.85420204251655 0.5364928187773668
1.8630421478168284 12.799999562533092 78.58636760749364 119.69954267030127 0.5464549108771168
1.8791237159032204 12.77118471173802 72.66065278992862 124.77887329010001 0.5567643189166905
1.8946884071452 12.741166726959912 67.25341277970526 130.1006416344902 0.5674238994315263
1.9097033494728284 12.709762408509144 62.30092386747432 135.68525428365336 0.5784822913484989
1.9241369569966684 12.676824829484133 57.76773591180657 141.54901115982472 0.589958132345098
1.937977156809597 12.642433812900615 53.613367233780515 147.7094803532361 0.6018694024668625
1.9512269365717314 12.606630209425283 49.80411751191519 154.18557822389957 0.6142514880341611
1.9638488402344108 12.5693625944661 46.31040838446243 160.997752547674 0.6271364213090794
1.9758374265924072 12.530637939183597 43.10186120345577 168.15388993867296 0.6404921841382413
1.9871290296652124 12.490362176439936 40.159580814932056 175.68871529399004 0.6544013469979807
1.9977771415877805 12.448663378336887 37.452962289734316 183.62944344296776 0.6689087280975494
2.0077083053133826 12.405289139557274 34.96181290607436 192.00005763783608 0.6840255914572011
2.016928243257736 12.360610210891219 32.6801950012378 200.81633471455245 0.6997565870047243
2.0254439630699337 12.314414869882757 30.57403720155343 210.12698150187256 0.7162052597179798
2.033182635227252 12.266595150551948 28.63524755104879 219.95860032197626 0.7333745088537401
2.0401846488853828 12.217297459130082 26.85060879451045 230.3398381560556 0.7512991311153175
2.0464165342414002 12.166567392970926 25.20635233980685 241.32831307081193 0.7700906618165679
2.0518736193923353 12.114321476890488 23.68770193781719 252.93947889358378 0.7896943319201117
2.056518911045589 12.060513506604627 22.289061060297733 265.24902223108927 0.8102831049847635
2.0603570539798293 12.005248321452175 20.999793293815024 278.27918384439135 0.8318184874435182
2.063390168090408 11.948597830669545 19.80980534051391 292.1105868354661 0.8544456869721898
2.0655791184340497 11.89040111377042 18.71110103164797 306.78018258122967 0.878175153894032
2.066948932380304 11.830803702874665 17.696005339114244 322.36795332246015 0.9031146118920592
2.067462529097871 11.769849197008634 16.760665866664816 338.9460803678585 0.9293672808675826
