M[M_sun], R[km], Lambda[1], P_c[MeV/fm^3], rho_c[fm^-3]
0.23841724892012095 16.20908015294055 2780876.1263280716 3.453507347168396 0.169602847481901
0.24841822606487246 15.866192302725384 2281995.843046862 3.6356203480253066 0.17197937922963508
0.2587025959499047 15.562762120260453 1881311.8267960914 3.824913886088266 0.1743767178583194
0.26927094188991296 15.293338937056461 1557857.7191732684 4.020503469873953 0.1767693853135278
0.28012877060448643 15.053552157060071 1295115.4495151138 4.222701990728279 0.1791489566469858
0.29126377360123495 14.83955102689471 1080886.520318566 4.432883356347205 0.18155233315440575
0.3026873476953873 14.64814710692274 905285.1813617267 4.6513953536574775 0.18398335995377096
0.3143929161880673 14.476675055139157 760771.2668189768 4.878605369172052 0.18644368581228857
0.32638480146670784 14.322810017803315 641291.2930142625 5.111856572047834 0.18887418892442523
0.3386585199659346 14.184575090517361 542249.2628911699 5.354288650505177 0.19132591346327085
0.3512143795254661 14.060332670723108 459802.195108321 5.606423221225989 0.19380762982968364
0.3640533740672291 13.948532977912011 390947.83403730893 5.868673114873726 0.19632490895837024
0.37718473976419375 13.847911163394802 333193.7780706376 6.137990279929121 0.19881883271672732
0.3905964974299933 13.757229645741846 284692.55349222315 6.417687399796407 0.20134190280132988
0.40428719813076963 13.675686462489864 243818.92198351925 6.70862866021944 0.2038995270864084
0.41826427431483243 13.602220059799757 209273.2305799005 7.010993898170531 0.2064846046442247
0.43253109189261274 13.536298408168145 180004.41096132473 7.321247276700479 0.20904498399470456
0.44707372806840096 13.476866652027349 155125.14591732644 7.644050933359975 0.2116498132418149
0.4619073554370958 13.423721670835704 133959.44007556315 7.979939021088392 0.21429909798642796
0.47701764621514287 13.375954491553784 115890.80874679566 8.327101472889018 0.21695706205132353
0.4924140566151366 13.333292589133547 100431.430663115 8.685254941114724 0.21961062683390603
0.5080899529126969 13.295383689124805 87196.5883989657 9.058018330661032 0.22231238618426596
0.5240464654691559 13.261404308429833 75821.60129611252 9.44599738891312 0.22506511483881358
0.5402880910086697 13.231345382536112 66036.20175784928 9.843946220259477 0.22779397932751147
0.5568001532766986 13.204882999385728 57604.71061509872 10.257702924376582 0.2305673212141333
0.5735935725890112 13.181597640974013 50319.52329227573 10.688395535348267 0.23339124662290925
0.5906652384035607 13.161251040173628 44022.92855582116 11.13324551333969 0.23622157336662183
0.6080039562364513 13.143543584347203 38563.01194860798 11.592676726004802 0.23906722704431468
0.6256114937262487 13.128276214260051 33828.61059407778 12.070966564672958 0.24197223121237516
0.6434890066889327 13.115276598239356 29713.164388456185 12.568036418103937 0.24492783215474195
0.6616415031342459 13.104381787650004 26130.83263375619 13.078384172994815 0.24785991977338553
0.6800424438365559 13.095172956886142 23009.63175447213 13.609705762129503 0.2508506433289587
0.6986993786907947 13.087703228130719 20284.427470108807 14.162908525556698 0.2539018628944515
0.7176280452483527 13.08192068648764 17771.7946143734 14.732264340031103 0.2569521395577721
0.7367997712662749 13.077416298386405 15818.927128589172 15.322820901581819 0.26004799910728826
0.7562147198283979 13.074190461948485 13993.060468971178 15.937653754783208 0.26320968456366006
0.7758675797378634 13.072016695958956 12390.90219484546 16.574171797490756 0.26639961599165496
0.7957663238070312 13.07096216964136 10910.93294076019 17.230865741411833 0.2696000597088211
0.8158938865141002 13.070730314507061 9746.626483118238 17.91391574991323 0.2728613913491312
0.8362393408099476 13.071302766977496 8658.020851465197 18.624004059748557 0.2761798539081881
0.8513520152165273 13.06879362659674 7922.539761227817 19.49973911543121 0.6352598617856751
0.8530768701662138 13.051872453143723 7757.043713557488 20.600855550109074 1.0664727804723744
0.848152126792946 13.02163984365432 7822.1560694473765 22.101869236033732 1.4287653736432548
0.8397240486293382 12.981946910664854 7999.502611245205 23.954199211928188 1.7802262148532888
0.8289103645249142 12.93451002497422 8258.1750831105 26.115678353544666 2.1265881532368853
0.8164736763471725 12.879474635083174 8568.772110036027 28.61422154896643 2.4682810721636135
0.8028138277743297 12.818325048228003 8928.2327773468 31.475129266592255 2.8612278497278956
0.7882883684674283 12.75115387430434 9325.132348490119 34.64940019539886 3.1342130070956378
0.7724296801882683 12.672725580597474 9759.536822879294 38.110079009440355 3.2874317702287454
0.7554468258816058 12.579543439810317 10204.251702902431 41.751699750821 3.308639551878987
0.7382219666724112 12.47187600031603 10605.61890508588 45.440045233264556 3.3276805225649126
0.7214357284556361 12.350797777756728 10918.933067800977 49.28324111618031 3.347083308078501
0.7055683500546777 12.21755852390137 11109.691067784115 53.27733857450479 3.367092468943169
0.6909559528060084 12.073014850822588 11149.870695208392 57.37351241041561 3.387580507647158
0.6778054751676212 11.918342535182607 11025.321484675655 61.561507279138766 3.4084911680878682
0.6663262719859897 11.755018273066497 10732.710129990948 65.91350159347833 3.4301902982603436
0.6564556874556797 11.583290401647222 10284.033892809202 70.42903805328862 3.4526719344625736
0.648489677499264 11.406372463040515 9695.274839403744 75.08018535839571 3.4757888620560577
0.6423156999605137 11.224836783251684 8998.744342751395 79.83828927592174 3.499389260176058
0.6379789281025476 11.04104896836184 8230.25923166658 84.77661225927892 3.523844157912086
0.6354126469681789 10.856533839079896 7424.343257947527 89.8974608105455 3.5491605975951286
0.6345769586019094 10.673112341279088 6613.574960882586 95.2042096031128 3.5753507340434987
0.6354001949588163 10.492355823319823 5827.054683025631 100.6417987684268 3.6021258366809694
0.637792559679592 10.315745814456424 5084.833689907778 106.26440210789134 3.629757902318111
0.6416492696339335 10.144420658617312 4403.107708171764 112.09480271451632 3.658357699560503
0.6468799532127983 9.97944073178929 3788.1756349485718 118.13847688964545 3.687946610721838
0.6533608631376786 9.821239018283213 3243.642925866314 124.40172247732411 3.718549750985604
0.6609844222152876 9.670397431314308 2767.3946361971234 130.86337861476474 3.7500501915333073
0.6696648214438039 9.5272893648829 2356.1434427131585 137.53403980125512 3.7824937356928876
0.6792981360789265 9.391889327891743 2002.9290644274845 144.45314193821633 3.816074532093029
0.6897714551367478 9.264071229876704 1702.792087838433 151.62940917131544 3.8508279339972424
0.7010052073123563 9.144132220355592 1448.1395419497383 159.0723991254002 3.8867928952368973
0.7129019659443917 9.031233392666811 1233.1350898802752 166.79249845383694 3.9240110942507216
0.7253920620851605 8.925306288779396 1051.6556278252287 174.8010119298047 3.962525785384489
0.7383979852913857 8.826032539189386 898.8478242953905 183.10710599457758 4.002364500576935
0.7518408694006703 8.732870858453493 769.9149534690958 191.70134707152636 4.043473505999044
0.7656509969385186 8.645609143740336 661.370081670839 200.62794854573116 4.086066534334911
0.7797752333494157 8.563667447756846 569.5681915426245 209.9018392672647 4.130204747186984
0.7941456868048042 8.486730961703403 491.94885796829226 219.5388739027264 4.175937677346931
0.8087280745576841 8.41443848052892 426.1587759233704 229.55663833208746 4.223344304340036
0.8234545558557659 8.346286814799681 370.2141392186604 239.97366813864025 4.2725063969296855
0.8382825202982868 8.282011475350858 322.5827407801053 250.80976011989048 4.3234946966778685
0.8531674044987682 8.221439344992284 281.9157330165693 262.0864207433811 4.376392675576311
0.8680676654104212 8.163975312799561 247.0630860208254 273.826704442549 4.431302811890839
0.8829448396550502 8.109431980671204 217.1303438943965 286.0550894332257 4.48831111184634
0.8977545598013191 8.057563596921652 191.40217494021255 298.7982964754939 4.547527345695059
0.9124599085895265 8.008110513739927 169.126472307918 312.08462425125754 4.6090688906020505
0.9270390337180052 7.960823046755778 149.87087722436448 325.9445675899506 4.673044395685605
0.9414462335890709 7.915429542775194 133.14029792437748 340.41120361203707 4.739602280274053
0.9556737922320009 7.871637469893537 118.5694945208357 355.5106314147035 4.808803389420834
0.9696681783749265 7.829486488919019 105.86451206835883 371.26434543441684 4.880741960945816
0.983410062895249 7.78864031796731 94.74755985940708 387.7342828653266 4.955656101411848
0.996881132461886 7.748973718675693 84.99409849364199 404.96383252506297 5.033737270809609
1.010033092501534 7.710301632059803 76.31901499737107 423.0005098953566 5.115158294798184
1.0228799841369105 7.672531700535677 68.78542277917546 441.89486616812206 5.200113531218584
1.0353616167326811 7.635530426564666 62.22776603645336 461.66930922737333 5.288642594090318
1.0474949564293323 7.599054120767322 56.31701687808225 482.38592873281954 5.380980149996383
1.059212472828383 7.563113735770352 51.08745534239835 504.132834648444 5.4775067960873915
1.0705356727825734 7.527626511632278 46.44165624689786 526.978636817781 5.578473068343287
1.0814252439409051 7.492372623816104 42.301397722106444 550.924155223842 5.683758909872326
1.091867543179511 7.457355814338025 38.61401408216944 576.1151115941133 5.794024251639021
1.1018322617654324 7.422393640255829 35.27396041201793 602.6245537187032 5.909512102345662
1.111323680612162 7.387552670435753 32.329664527372394 630.4884587284647 6.030251988260461
1.1203199343904426 7.352666596155505 29.71463209128254 659.8761286331618 6.156986041569362
1.128795346642834 7.317663900267823 27.342110014143103 690.812459773542 6.289643729104133
1.1367474523957732 7.282557114122539 25.203176029885768 723.4824802422985 6.429027787715655
1.144180904177375 7.247207964660005 23.251567675535004 757.9376767262219 6.5751400922279535
1.1510318585050208 7.211625059140577 21.518689140113697 794.3811313619833 6.728877019749917
1.1573399940663214 7.175708208584885 19.970441619799058 832.8778723706321 6.890234958147684
1.1630714172599574 7.139420397005189 18.55062832471269 873.6454994124609 7.060104003549507
1.1682160156261123 7.1028672975176566 17.266199385474877 916.8431633565934 7.239004718582296
1.1727681808806483 7.065864962117964 16.10118047107252 962.614623469665 7.427275354724692
1.1767269514383603 7.028456850785049 15.046451469958239 1011.2068221140279 7.625857591586157
1.180075217051613 6.9905542638706155 14.088035868001175 1062.8358439969477 7.83542378151989
1.1828250761204189 6.952166860832935 13.2025478641724 1117.7401751187379 8.056721287505187
1.1849317856214923 6.913320537767518 12.418608250784331 1176.17409038274 8.290511457361786
1.1864272090719044 6.873966803445907 11.6966435858938 1238.4358501488807 8.537740451966853
1.187295047929921 6.834109516364207 11.04164314252494 1304.8562795789007 8.799463783543047
1.1875537682209678 6.793714311884814 10.431573017600215 1375.7904171833063 9.076765869157944
