M[M_sun], R[km], Lambda[1], P_c[MeV/fm^3], rho_c[fm^-3]
0.23841724892012095 16.20908015294055 2780876.1263280716 3.453507347168396 0.169602847481901
0.24840064645407792 15.866721048216878 2282788.3219207763 3.635303244578346 0.17197534555386035
0.2586665413467235 15.563719958297266 1882692.0689060353 3.8242616297374563 0.17436873873942754
0.26921567653799544 15.294627056523609 1559417.2096534772 4.019452674050603 0.17675653082035933
0.2800512207278747 15.055175389871561 1296866.3946179308 4.221263091318414 0.17913213095078914
0.29116610177754176 14.84131282020128 1082546.0103093442 4.4310365445088955 0.18153155279099137
0.3025669770244357 14.650103525937636 906924.9590466366 4.649119776324983 0.18395871425973112
0.3142505465005055 14.478618075475634 762317.2434719285 4.875811071197547 0.18641389968241107
0.326216531612721 14.3248154778659 632149.8734963043 5.108521099412088 0.18883943293379507
0.3384658510887896 14.186650859274401 543641.8029388438 5.350439785054181 0.1912875090526717
0.35099771484103176 14.06245373330355 461094.9271770382 5.60203688098755 0.19376547251939163
0.3638083636285727 13.950516271617749 392109.2071171513 5.863723458716742 0.19627907428205815
0.376909189413873 13.849786004541292 334300.2468309411 6.132219977627237 0.19876539871447718
0.3902893241102152 13.759183369374728 285691.45240765 6.411279466714241 0.20128478938835848
0.4039512727783443 13.677485528012015 244729.5325340952 6.701554424912369 0.2038390457723032
0.41789699109377143 13.60402398021828 210099.01753524755 7.002900394688798 0.2064154090767828
0.43213096322362005 13.537872822462628 180731.59930746746 7.312403716506343 0.2089720837310675
0.44664816273938013 13.47865795327367 155809.1122602887 7.634422734356005 0.21157326414658983
0.4614403103088894 13.425255992581187 134562.81119760696 7.969490251098489 0.21421909954474316
0.4765166635951085 13.377444820625211 116434.64647020386 8.315341998532897 0.21686702852350823
0.49187895743425913 13.334732066899331 100931.71497542437 8.672575704487016 0.2195173432362176
0.5075148117631666 13.296644550239051 87644.87811504958 9.04437824454315 0.22221551905900597
0.5234376035497007 13.262697752819262 76223.7726930416 9.431186902688513 0.22496249898394213
0.5396361325826959 13.232565415245379 66396.04350134678 9.827642499657355 0.22768217941586388
0.5561108684317483 13.205931806814178 57930.89235102657 10.240272994535948 0.23045214062142033
0.5728606445831248 13.18251297347126 50612.29911377642 10.66978931287626 0.23327286583912285
0.5898833926209828 13.162024525824341 44283.13031211155 11.112651223428806 0.23609054364337506
0.6071861154469789 13.144354940820334 38802.25168941868 11.57076746843187 0.2389324957744976
0.6247557717351702 13.12892857984649 34041.60082616113 12.047679895507844 0.24183376757219677
0.6425904537620911 13.115909496956277 29906.506056635808 12.542378701961939 0.24477527015669515
0.6606866494224894 13.104875110354856 26306.981347994766 13.0511870585044 0.2477039252635345
0.6790588095611065 13.095793074229961 23166.83926180298 13.580899205234953 0.2506912193149759
0.6976592604439176 13.088077162463463 20425.638806602004 14.13241623282782 0.25373850295931516
0.7165405335346314 13.082204677372888 18030.924044175274 14.698843630618205 0.25677309087257005
0.7356607596632881 13.077592201692365 15933.090843751406 15.287513696675123 0.2598648074192213
0.7550326328456353 13.074344956303415 14096.935417834817 15.90036950562552 0.2630228333038727
0.7746384448626659 13.072114298020328 12484.19457477361 16.533423347890412 0.26619540377565987
0.7944882081104233 13.070981664372535 11068.490735986155 17.187909468116633 0.26939184659782145
0.8145713406109256 13.070775405052167 9823.281644566809 17.869359766825802 0.2726597372918991
0.8348692336156905 13.071287058585888 8726.666157854432 18.577197631955006 0.275987047956889
0.8553882459704198 13.072477466619425 7760.239048485709 19.305381008114608 0.2793149232039817
0.8761257426881924 13.074346248250302 6907.233439660402 20.06349833138451 0.28271412272420826
0.8970685171814604 13.076752497982072 6154.35214191669 20.85279607998724 0.28618545119449607
0.9182105797214757 13.07954176488581 5487.935053771596 21.666391237909785 0.28966669940410883
0.9395370103071445 13.08275072457265 4898.478410938254 22.51047863803931 0.2932068505809056
0.9610404778463991 13.086115541068311 4376.251651100454 23.38924686663788 0.2968301739376204
0.9827334515186323 13.089705654960932 3912.9296700804534 24.30140484372085 0.30051786269572656
1.0045917031250131 13.093533268486565 3501.764729109969 25.241954408134905 0.3042140859885103
1.0265915071168188 13.09729869012181 3136.5441517711074 26.221195078001045 0.3079959641294416
1.0487490474758128 13.101257055811931 2811.8345192575234 27.240611519994996 0.3118656594227835
1.0710472135664668 13.10516798142815 2522.9622740407517 28.294430587681724 0.31577641319306293
1.0934461516552818 13.108712713476914 2265.43844978937 29.386802319911226 0.3197498363780319
1.1159763820308601 13.112273821352924 2036.0072912240887 30.523989365368664 0.32381304211604356
1.1386221473757885 13.115678914055543 1831.149337411358 31.70783173106537 0.32796491968540803
1.1613414165514633 13.118676608984638 1648.3015085842044 32.9302118343767 0.33215181535216975
1.1841317824520676 13.12135732748966 1484.9640224964053 34.20052114947335 0.33642752325620245
1.2069996408266839 13.123704484267618 1338.7687561548644 35.52305472693061 0.34080842842157333
1.22992299742894 13.125642675508463 1207.8979099082324 36.89982385599426 0.3452947001109846
1.2528555290808394 13.127205528314223 1091.1986077201843 38.32414879839939 0.34982350203671714
1.275869995659074 13.128085201885543 985.5909495292104 39.804042005513466 0.3544475372965211
1.2988573616296941 13.128540796773363 891.4291245690735 41.34504190726726 0.3591880549454958
1.3218495465765807 13.128353763846446 806.7753500046758 42.949585696007794 0.36404731025004405
1.3448210385273274 13.127571010579446 730.7840692505912 44.61744445373515 0.3690124215290981
1.367745180011965 13.125998326916832 662.3373293995854 46.34565667608869 0.3740427272307868
1.3906289222063617 13.123916346134715 600.9348019884497 48.145850781601574 0.3792032899203847
1.4134478895801368 13.120924379515149 545.534978440421 50.02102080047458 0.38449836982334645
1.436184562083764 13.117242179591715 495.6280819262346 51.97433036638316 0.3899309496150431
1.45880912987971 13.112669581790183 450.6497102970555 54.00913994665708 0.395503460406099
1.4813245658600567 13.10735968673905 410.0576980574103 56.11947530965012 0.40116191179346217
1.503696227512372 13.101013842050609 373.39399787891205 58.318800280163494 0.4069738694553509
1.5259295450645716 13.093919790225035 340.2901261705488 60.611350464153496 0.41294541246329647
1.5479743597029878 13.085719517486478 310.3306311094438 63.0013375941191 0.41907996187515406
1.5698125728697196 13.076510700578547 283.2397503331046 65.49324030210717 0.42537880475020384
1.591468062633172 13.066474159309854 258.73149785682114 68.09187104209406 0.43184524769952415
1.6128817953924597 13.055293672662483 236.52655473781647 70.8022241055301 0.43849537714081843
1.6340569995970182 13.043036150036768 216.36961956786064 73.62629693987124 0.44532215800143615
1.6549469840193654 13.029640640357245 198.09765051329455 76.57122717344822 0.4523345512785782
1.6755536405398839 13.015099421742303 181.51434987335972 79.64579850700885 0.4595472678689033
1.6958416983246465 12.999456704749536 166.45863191623712 82.85660602737944 0.46697828294934685
1.715851513789434 12.982741057312477 152.76284366489097 86.21063101013208 0.47463917557743374
1.7354737084310203 12.964665904991048 140.30674016213587 89.71531661596781 0.48253541608511086
1.754733888049334 12.945386159111386 128.97058149178542 93.37863316675437 0.4906740830723507
1.7735792022181842 12.92477011115634 118.6544571904269 97.20913610113611 0.49907268205642663
1.792056528163025 12.902941298247283 109.24497214517544 101.21595177730657 0.50774811133191
1.8100951384734236 12.879867336610923 100.67109103986236 105.40885253217951 0.5167084735598306
1.8276637564475775 12.855505017621292 92.86388513528384 109.80943859248586 0.5368438441113019
1.8439761037328726 12.829843443601051 85.96819558254145 114.48001544485633 0.6343274792459049
1.8583819744651324 12.802161789944913 80.01032193090194 119.49302093411212 0.7325677575734967
1.870906161895988 12.771648582750801 74.79622588775612 124.87403447751473 0.8311209481200309
1.8816978848319246 12.738064037937905 70.18207087604539 130.64026569441464 0.9296741201657478
1.890839993085458 12.70147165244732 66.07299449961164 136.81257746633224 1.028964464583659
1.8984219704819756 12.661369841004259 62.37083162491856 143.41323458627252 1.1289755806408608
1.9045583277554876 12.618351552995263 59.02922570366022 150.4677088776382 1.2305448961556413
1.90934860560297 12.572154260823611 55.987705417389584 158.0039579587873 1.3337517843174156
1.912848346015738 12.522692206694105 53.1937184831646 166.05248437334689 1.4389734871408888
1.9151760289712563 12.470346272691797 50.62443208576219 174.64078746787436 1.5461608688878463
1.916379073466761 12.415095033264247 48.248273005255584 183.80427572486295 1.655728506439302
1.916515473487826 12.356968344960332 46.04339544504439 193.58618051631515 1.7684581196440403
