M[M_sun], R[km], Lambda[1], P_c[MeV/fm^3], rho_c[fm^-3]
0.23841724892012095 16.20908015294055 2780876.1263280716 3.453507347168396 0.169602847481901
0.24842320006409238 15.86602298517917 2281839.694782973 3.6357141392291674 0.17198057228922026
0.25871262011339274 15.562497233544967 1881057.9961274439 3.8251068221496594 0.1743790780649628
0.2692870658909365 15.293022364570948 1557338.3896093399 4.0208143188880126 0.17677318796142463
0.28015072182409617 15.053134876634392 1294700.736147461 4.2231276816986885 0.1791539344424402
0.2912914188443234 14.83908974587561 1080389.2762702715 4.433429766183516 0.1815584813687155
0.30272249595423445 14.647604300606874 904784.3816593735 4.652068668826432 0.1839906523096094
0.31443769111859543 14.476021940590927 760282.0320547466 4.879412028196433 0.1864520912877803
0.3264343386134092 14.322197496407066 640855.396758883 5.112843649317356 0.1888844743778159
0.33871596904471907 14.183992303402995 541824.5372139119 5.355427734314695 0.19133727936911624
0.3512791544411166 14.059718628524525 459379.3556744713 5.607721457259103 0.19382010723369364
0.364126859526774 13.947841554733358 390559.2282524595 5.8701381703156095 0.19633847562640297
0.3772662513934918 13.847217575217826 332876.9853926751 6.139698387933841 0.19883465009373683
0.39068467682611974 13.756612728176357 284391.30677301827 6.419584375090759 0.2013588103957123
0.4043855231896484 13.675090649380111 243551.53909055557 6.710723011315329 0.203917432782357
0.4183722547301803 13.601692904956906 209020.63133881008 7.013390220237317 0.20650509204693715
0.43264864951528054 13.53575582895393 179784.16674808186 7.323865829568388 0.20906656955416567
0.4472005069751106 13.476367852693418 154928.02349089074 7.646901979970797 0.21167248051722257
0.46204285285081553 13.423238854674679 133779.9548051008 7.983033225238467 0.21432278800070714
0.477170172370702 13.375631390235778 115733.02915291565 8.330584133657965 0.21698372618831782
0.4925718599395236 13.33287124914435 100287.3206777947 8.689010203648007 0.21963825502712103
0.508261887246939 13.29488412882953 87059.48243999868 9.062058390279939 0.2223410772759336
0.5242295841982709 13.261055032238081 75702.40458350173 9.450335565003046 0.22509486312237423
0.540479097483499 13.231095687844943 65930.1027339394 9.848775927022453 0.2278270981966679
0.5570028493253356 13.204626304511203 57508.78241265604 10.262866520852327 0.2306014433309774
0.5738071682587986 13.18129213993657 50231.680108991226 10.693907889210438 0.2334263185872316
0.5908914694756355 13.160978986812035 43941.72922748057 11.139347439264858 0.2362603964417901
0.6082448236582574 13.143407772089775 38495.73210890042 11.59916859254086 0.2391071488636175
0.6258665710180352 13.128075325487867 33765.775071325406 12.0778669104716 0.242013260996025
0.6437593132658259 13.11515103010944 29657.20784655743 12.575640095039054 0.2449730439787135
0.6619173427012678 13.104139251814942 26079.687726678134 13.086444445375774 0.24790615108368785
0.6803396630770948 13.095140510190962 22964.0091539367 13.618243428829764 0.2508978933040385
0.6990052679273868 13.087688022985107 20093.03532549017 14.171946241284358 0.2539502817086148
0.7179487108095746 13.081893783622247 17866.053894094242 14.74217100216825 0.2570052136804211
0.737137547022614 13.07735388943933 15784.874032348795 15.33328725973708 0.26010230388228933
0.7565637110633063 13.074136715585025 13962.751774798075 15.948706701434666 0.2632650767749248
0.7762349694592163 13.071970227154898 12363.098633133537 16.58625293628847 0.26646016102219783
0.796142346306538 13.070952019356518 10959.616441566035 17.24360205069451 0.2696617938020041
0.8162931586461345 13.070777211205256 9723.822136587964 17.928056932461054 0.27293565316874635
0.8366600750935091 13.071423101650687 8637.380131825847 18.640652988307192 0.2762831402961515
0.8572377078330452 13.072649538139633 7679.585006100908 19.37274668186193 0.27962217382702714
0.8780452605681772 13.07456215073581 6834.019469857769 20.134397748012972 0.2830269738584063
0.8990477208829593 13.076956874316341 6087.722931087017 20.92740454907736 0.2865046893277528
0.9202580151077995 13.079826586078568 5427.789902261377 21.747494345892036 0.29001372709559387
0.941646994759382 13.08306471245343 4844.235720114823 22.595739937420248 0.29356137016015943
0.9632240758597566 13.086437975459212 4326.831767298403 23.47888716637909 0.29719257336177063
0.9849808133222645 13.090115396421758 3867.965874112781 24.398251345465173 0.3009076933839622
1.006903634626614 13.093965040740095 3461.2227381383004 25.344156088107763 0.30461460471812757
1.02896425320596 13.097694850544604 3099.6677758320116 26.32856229936603 0.3084050807523053
1.0511961044789293 13.10166803010052 2778.5104622212666 27.353424130210477 0.3122843103603716
1.0735507256486767 13.105473362934054 2492.4175908121815 28.416617898705304 0.3162298539229927
1.0960163899804423 13.10911010944618 2237.9330012358205 29.515118597592224 0.32021385986323203
1.1186143569569282 13.112681714887287 2010.8284512457271 30.658764970888555 0.3242865052149143
1.141308310014319 13.115947214276606 1808.2263784983609 31.84941698350989 0.32844987741527576
1.1640931215291406 13.118960577947119 1627.4075364409803 33.08331204516477 0.33267621411110926
1.1869557683072216 13.121628413052495 1465.9035987690345 34.36130046026704 0.3369650898526835
1.209876301126775 13.123990418675483 1321.5030988392243 35.69195248932617 0.3413599836324622
1.232858676246394 13.125883585433318 1192.2226075235783 37.077294329966115 0.3458589875150423
1.255873538183826 13.127290380699678 1076.3753155721624 38.51581300811518 0.3504329200256973
1.2789019715840406 13.128132775401864 972.5983671600815 40.00538338624087 0.35507343015682125
1.3019449821196998 13.128539376800825 879.4975489141701 41.55662801870139 0.3598315868756501
1.3249861292634793 13.12824559227686 795.9327991690484 43.172021221336934 0.3647094869065248
1.3480091750617882 13.127362484547712 720.8306751046182 44.85416283732083 0.36970819081106227
1.3709849559411738 13.125763811395364 653.3094123561386 46.59794605190023 0.37477592334554116
1.393929645850396 13.123590945769662 592.6102581701025 48.4111434313428 0.37995890139060273
1.4167665657153057 13.120443664107738 537.9331219255436 50.30010461817775 0.3852778249332013
1.43954105595304 13.116624609062145 488.68960916023633 52.268043627332865 0.3907353980682403
1.462208925393899 13.112014900366336 444.2954273691974 54.3183629857438 0.396332581485719
1.4847511443822823 13.106427659821795 404.2159054779636 56.45272549714121 0.402055456970601
1.5071482859166574 13.099949604120127 368.0266377871818 58.66968581915189 0.407897902862026
1.5293996360557465 13.092627418514027 335.373761261855 60.980973505761824 0.4139018804279248
1.5514525265482004 13.084273986955738 305.8410271820571 63.39087199837808 0.42007026510058765
1.5733618538006056 13.075175170738634 279.12530119321724 65.90392748062365 0.4264035447542894
1.594991409637156 13.06464106129185 254.9314327430825 68.52504465671801 0.43290887001371003
1.6164258204714173 13.0533808392402 233.03271771014818 71.25932664896126 0.4396003553329137
1.6375890341714052 13.04082001855728 213.17083750481336 74.11225545043627 0.44648480715772554
1.6585036431749363 13.027383525938362 195.160885261551 77.08969698805437 0.4535655515796199
1.6790980134623399 13.012507796780147 178.79850858401525 80.19463225115128 0.4608316330332368
1.6993910444314049 12.996639401109666 163.95275935402267 83.43648430634155 0.46831600125788353
1.719327056932047 12.979455141022397 150.46002263084134 86.82361287371549 0.4760336947746179
1.7389427204594252 12.961231852306499 138.1878550689404 90.36360436479279 0.48398902177463354
1.7581874140312301 12.941718059663726 127.02618823020342 94.06458134695325 0.492190055815113
1.7770278145396714 12.920889435394184 116.85721813823763 97.93528533049243 0.5006570992454618
1.7954481835629992 12.898799210472276 107.59310212678454 101.98504723323572 0.509405459799899
1.8134437204845033 12.875463663595427 99.15481483048855 106.22383825241047 0.5184417390161574
1.830984235904711 12.850754172657574 91.44435093083595 110.66236877704885 0.5277795515478189
1.8480470338871122 12.824554340385667 84.39997334141253 115.31216389399799 0.5374434583411423
1.864614648822007 12.797156433781726 77.98280540382183 120.18385245540884 0.547446153826891
1.880684689201293 12.76834960539074 72.1092994474311 125.28771109942178 0.557784712609936
1.8962089902535402 12.738135750872948 66.74370048338886 130.64142959918823 0.568497190589227
1.9111756658787113 12.706522187949687 61.827134590788965 136.26030309056517 0.5796120957819861
1.9255753696930376 12.673371921118562 57.32889630614897 142.1608130067532 0.5911469585700703
1.939365676264854 12.638815112416141 53.20466318742506 148.36072974730442 0.6031221322260515
1.9525723457495308 12.60278193266886 49.425987208140704 154.87920054254812 0.6155732261272145
1.9651383493285794 12.565322426979913 45.95791147249765 161.72986829656506 0.6285071905746706
1.9770550454963391 12.526443393568467 42.781911632047475 168.9330924196359 0.6419352375657662
1.9883082386476258 12.485940793731386 39.858347419833926 176.52021992570326 0.6559280416370301
1.9988813534924843 12.444004907875145 37.17370641715021 184.51728018411862 0.6705251339611441
2.007934796317164 12.402531082472665 34.85861571155229 193.78704812382105 1.4095993801769184
