M[M_sun], R[km], Lambda[1], P_c[MeV/fm^3], rho_c[fm^-3]
0.23841724892012095 16.20908015294055 2780876.1263280716 3.453507347168396 0.169602847481901
0.24843831344703737 15.865544776651575 2281223.675588868 3.6359786175259896 0.17198393655318225
0.2587438346774653 15.56151350770186 1837523.382061266 3.825650912388224 0.1743857339767006
0.2693335488792365 15.291848326841944 1556135.1124553236 4.021690993574236 0.17678391241284955
0.28021241987395284 15.051781242683061 1293292.9128477864 4.224328319614334 0.1791679740401163
0.2913746683579082 14.837573891847335 1058309.043642567 4.434970983588131 0.1815758231775041
0.3028232375637399 14.645993649183747 903393.8667824448 4.653967956627276 0.1840112225909902
0.31455638573879763 14.474431478157515 758956.1841059315 4.881687589883934 0.18647580289010063
0.32657383832997555 14.320526735785158 639616.8813279051 5.115628371931595 0.18891349149282707
0.3388762283482215 14.182355461400995 540657.1551147669 5.358641483085584 0.19136934651433896
0.35146103314236443 14.058029530412906 458313.50546918483 5.611384438310641 0.1938553123068045
0.3643326490263731 13.946314153777044 389571.4935063878 5.874272063267333 0.19637675619364675
0.3774950393007591 13.845606052246106 331953.6430090231 6.144518458675964 0.19887928478658407
0.3909417648956318 13.755117230829393 283573.2307397392 6.42493769588159 0.2014065241307302
0.404663140266222 13.673520801449724 242802.75483498495 6.71663364456525 0.20396796585775412
0.4186795682001237 13.600137590942374 208339.34418628717 7.020153594626972 0.20656291564950563
0.43297675804872515 13.5342875972069 179157.31001406678 7.33125680760824 0.20912749572369616
0.4475611373152979 13.475013699365297 154362.66541416617 7.654949586663418 0.21173646309701694
0.46243176273979475 13.421839502640065 133267.76741958398 7.991767619737328 0.21438966074741744
0.4775819918617436 13.374261541468602 114027.42637309783 8.34041585269283 0.21705900033088504
0.4930200755140784 13.331761734364571 99879.51111659005 8.699612000535678 0.21971625449859417
0.5087404191957394 13.293793523639629 86693.1939488657 9.073464759662837 0.22242208132548477
0.5247365862058985 13.260072859191483 75372.39302843636 9.46258417984578 0.2251788558557289
0.5410177977211688 13.230106606290718 65631.43982727634 9.862413457824237 0.22792061517821702
0.5575814002209698 13.203696969280244 57236.665509970364 10.277447511238563 0.23069779754068356
0.5744147250196352 13.180516705456728 49992.93263794545 10.709474397951542 0.23352535940588043
0.5915380229286381 13.160242999267046 43721.10643501849 11.156580287255979 0.23637003922689223
0.6089221292017181 13.14266795800732 38296.32717729046 11.617503501416985 0.2392198996287513
0.626582203474656 13.127582962314476 33589.885457007746 12.097356327837284 0.242129145996764
0.6445117367781631 13.114563335992317 29496.218605471648 12.596905140983944 0.2450983001306632
0.6627118222334462 13.103814932744292 25937.48444613794 13.109212875575027 0.24803674398574965
0.6811675641666872 13.094780024375977 22834.569484128533 13.642361405448113 0.25103136932672726
0.6998825026228026 13.087426762947636 20127.115549570946 14.197477867425286 0.2540870652829885
0.7188638335586908 13.081692926024038 17760.924437105798 14.770159834773402 0.25715516153509943
0.7380809970384391 13.077181407416441 15689.631730503628 15.362858598827723 0.26025573498907706
0.7575387556708624 13.073934277632953 13877.078595968109 15.978215135526844 0.26339418822058697
0.77726890221367 13.071948382203914 12285.783540526141 16.613088497722284 0.26651656384724864
0.7965087689213635 13.070644286017503 10933.36376839285 17.361918379294202 0.4910494610786402
0.8013673849192773 13.059426648662928 10544.65777744298 18.413416831252 1.4674775548678123
0.793772489414498 13.036409573373952 10870.069338562493 19.553728222251703 2.526377903952308
0.7804411472161302 13.010214840728267 11579.034292263817 21.825589634970648 3.8490713312004594
0.7638751051228276 12.98090811752142 12565.784060956785 25.734692908605307 5.21356467913676
0.7406270129089453 12.936286632734962 14098.90458730804 30.60328816302901 5.2763689084576955
0.7132786943316345 12.874067349499963 16107.813383803996 35.53877997278823 5.307316801617076
0.6844584072209301 12.796330002248519 18482.562757187115 40.71966589803753 5.328838437099384
0.6553378157926972 12.703599693381685 21168.744216786665 46.108674464660915 5.346375848014064
0.6265654870103037 12.595196841766377 24097.66079686081 51.54543620692794 5.363887305643788
0.5987341814779156 12.470384186890534 27149.98870297221 57.106168966676975 5.381741961713678
0.572174670765849 12.32807428222384 30177.41612889868 62.890894034609865 5.400277791874676
0.5473176804247282 12.167002200936583 32950.07379478234 68.88889275514738 5.4194612867478416
0.524114844644101 11.984984026546943 35290.22262531325 74.97340145700453 5.438871799713139
0.5032553467916971 11.78317045233834 36859.80059284511 81.2129142983703 5.458728363273231
0.4844967813176324 11.559165544863433 37522.28756406319 87.68333331224541 5.479266808805225
0.4683069173671955 11.31566669371829 37072.51552786343 94.38171931618388 5.500471232849609
0.4546796095318019 11.054271510184666 35525.15705382235 101.23242691646857 5.522098839738664
0.44356748955051767 10.777334637461317 33003.715522568025 108.23666563887858 5.544147545745266
0.43512021613115454 10.490987605536569 29745.500771989085 115.48950209412442 5.566923733680697
0.42905016189225753 10.197521297482092 26057.359000591827 122.99125936613189 5.590422435367199
0.42539275202758614 9.9043883737468 22252.92739185918 130.74410303694572 5.614644318752666
0.4239875482610721 9.616392667831269 18597.46580553915 138.62285157973133 5.639169845286289
0.4245801286944654 9.336120637690478 15261.058888916261 146.7722173431164 5.664467959214218
0.4270564565029644 9.068613770629558 12356.311232743423 155.19819807299803 5.690550879151671
0.43121885385253217 8.816381288931161 9909.124403481866 163.9054940069753 5.7174260773638705
0.43687445271889647 8.579848247344179 7895.379809206656 172.89992170190854 5.745104220432539
0.4438663623582757 8.360256873384891 6270.985075978539 182.09023359351076 5.773275065683753
0.45203994573278533 8.157937055441085 4981.56567093805 191.58671205962645 5.802292728084175
0.4612530724900497 7.972355492472847 3963.713112972034 201.4022277260209 5.8321896936649305
0.4713696953997745 7.80251100799768 3165.029455945352 211.54505533951513 5.862982697952963
0.48228933466575197 7.647584895751352 2538.470542794685 222.0244250464731 5.894691010468043
0.4939063522577621 7.506821386084253 2047.102801127342 232.85054452896722 5.927336476909824
0.5061314325183601 7.377982814888003 1659.8445843230688 243.9858421938859 5.960782496955006
0.5188871992719022 7.261293546150799 1349.9332016331932 255.47642117967874 5.9951679012202295
0.5320953768458418 7.155118491882996 1109.2775150998164 267.3568636762491 6.030592835311741
0.5457078035366449 7.058477783869237 919.9626891093285 279.64046176165033 6.067083052690301
0.5596476631978192 6.970644153899419 765.1468300310188 292.3415661857765 6.104662349278097
0.5738809267892984 6.890282266770422 639.727195509024 305.47579914584145 6.143367062584466
0.588334959479013 6.817217453554758 538.478697013981 319.0596300884961 6.183241370295822
0.6030205819866492 6.750118889025525 455.06599187904385 333.11075324071754 6.224324848283832
0.6178368531703601 6.688986028609299 386.76401745251087 347.6479977327367 6.2666531550872016
0.6327975581445293 6.63280547549858 330.3020274969031 362.69190247374127 6.310255149791604
0.6478462428557751 6.581185303462631 283.42273500054637 378.2639102676076 6.355198305913743
0.6629431401432292 6.533758371577347 244.20053855002575 394.38696699319723 6.401533353905706
0.6780743580260173 6.490037936705482 211.26218725234403 411.08579261171263 6.449296323684834
0.6932228754195091 6.449442628819441 183.4119030917218 428.3866422002405 6.498554259746885
0.7083349439389331 6.412032068143789 159.89526991282213 446.3173502726729 6.549375647545232
0.7234260914128205 6.377092694391777 139.792455522244 464.90794259764783 6.60180272439015
0.738433479459618 6.344594910735372 122.49721792602115 484.1900677429198 6.655925785871942
0.7533739455262146 6.314274962670811 107.90562677025376 504.19773013214706 6.7118073909134335
0.768193633173976 6.285769899278414 95.2803467944731 524.9673508921794 6.769530132622156
0.7828888771341053 6.259000131002912 84.33055739034819 546.537304826274 6.829169864774409
0.7974488645670245 6.233759356287695 74.75770176172148 568.9491808777334 6.89082934689778
0.8118358596711044 6.209803065736205 66.58587692611115 592.246735012668 6.954576620552182
0.8260509725452452 6.186986678456301 59.37909089972575 616.42585402022 7.0203773034920225
0.8400699073106955 6.165246711550275 53.04494988920865 641.5611741431119 7.0883812456709645
0.8538762564904795 6.144487416067419 47.58305701086749 667.725989439373 7.158797932474823
0.8674535559770787 6.124408746125589 42.73434981845273 694.9778522332371 7.231736721116177
0.8807954707402358 6.105048407637249 38.45710649044976 723.3518482624521 7.307246542770052
0.8938892054274383 6.086212233452009 34.68585880702821 752.8580470470627 7.385268520512031
0.9067098163214267 6.067897213868435 31.31788412304751 783.6399205769148 7.466208195171827
0.9192294910563071 6.04998309698635 28.385550808533612 815.7636916832794 7.550186293626075
0.9314699272519437 6.032407847839006 25.73274360928982 849.1976723706397 7.637002797315661
0.9433996308012336 6.015005967622241 23.384834296899903 884.1396200334443 7.727196926124358
0.9550186121989911 5.99781478983119 21.29545746606022 920.608128761719 7.820735853132991
0.9663191272394298 5.980703820002549 19.425198856020653 958.6959896267211 7.917778747866945
0.9772725933776588 5.96361667366116 17.75786949186608 998.5270998393725 8.018627363233666
0.9878483380727714 5.946691405628928 16.247002704068084 1040.1507067271734 8.123287745050538
0.9980937141375971 5.9295989645342315 14.894972786725736 1083.7235046618707 8.232120814116962
1.0079708948169843 5.912367004477612 13.684578952518585 1129.334564415465 8.34526878262013
1.0174591641266086 5.89507804775472 12.589043186871546 1177.0967894223872 8.46291379037548
1.0265624309935975 5.877596058263062 11.598694195121132 1227.1971171768146 8.58547635906484
1.0352468381158875 5.859924353585661 10.6998163675314 1279.6991087523088 8.712953891648844
1.0435364976408907 5.841933822809086 9.895280824140366 1334.8040170400252 8.845790308809734
1.0514121758232557 5.823690696385388 9.155175250139678 1392.689503965004 8.984325128045114
1.0588702757563568 5.805139354168922 8.489247950650967 1453.5262500406777 9.12884326254099
1.0658917237750338 5.786264314536147 7.884231311553054 1517.479046529168 9.279583225261538
1.0724807312026379 5.766997400481476 7.337138799094176 1584.7686883412596 9.436962111710374
1.078615099771822 5.747306150575395 6.831199051911921 1655.6358235661369 9.601428473056778
1.0843191167821882 5.7273108494996725 6.377412497803968 1730.3234843673688 9.77340178792775
1.0895506912124984 5.706790978840534 5.957879321800743 1809.0974074137835 9.953342039335807
1.0943311827407245 5.685870369083847 5.57625390764113 1892.2478252165238 10.141749441881487
1.0986388671530012 5.66443735186429 5.227525923732402 1980.0920291899677 10.339165621447993
1.1024674914844868 5.642571938458303 4.908742818017751 2072.946512812245 10.5460822981167
1.1058402875502054 5.620142009537856 4.616273241367075 2171.201707112237 10.763198797848395
1.108721887130787 5.59723474125044 4.348046655376991 2275.2822800559616 10.991257709233071
1.1111137288701374 5.573808145669616 4.104291435471778 2385.6429073643453 11.231037521528668
