M[M_sun], R[km], Lambda[1], P_c[MeV/fm^3], rho_c[fm^-3]
0.23841724892012095 16.20908015294055 2780876.1263280716 3.453507347168396 0.169602847481901
0.24840635595071708 15.866534405928439 2282530.9597804323 3.635410707130881 0.17197671251817123
0.25867997929180736 15.563312306463189 1882162.498890177 3.824482662772 0.17437144265922758
0.2692345538506908 15.294060368450216 1558744.6509135063 4.019808746856094 0.17676088669553883
0.28007852183416 15.054596279246436 1296319.4451024446 4.221750658137657 0.17913783228829747
0.29119754125870906 14.840651245725438 1081966.4538109088 4.43166230782975 0.18153859389228225
0.30260921300484817 14.649350577864121 906334.1632365333 4.649890792101127 0.18396706476430305
0.31429736452258833 14.478014476885196 761795.3886403069 4.876775027745382 0.18642433983656728
0.32627373290971484 14.324154789947565 642335.5997087946 5.109651142162882 0.18885120810317807
0.3385310824592036 14.185952928193402 543163.5472773098 5.351743718213744 0.19130051984379737
0.35106910864156393 14.061632482605274 460642.9201969599 5.603522852305588 0.19377975425553937
0.36389338266258064 13.949889011178524 391716.8333831124 5.865400211408759 0.1962946013034222
0.37700174514135915 13.849088270663863 333905.35634508607 6.134174646925477 0.19878349929191944
0.3903948486393344 13.75854973651142 285356.4418589241 6.4134500624319495 0.20130413574045514
0.4040640817876386 13.676852381285496 244421.72525537576 6.703950646980511 0.20385953232007525
0.4180221548427409 13.603405593063998 209818.4882629807 7.005641744123596 0.20643884629777437
0.4322632106834398 13.537309436852263 180491.19723127378 7.315399027497022 0.208996775026892
0.44678805631283935 13.47797217137007 155576.2451341035 7.637683706262157 0.21159919053727488
0.4615968743611599 13.42472775769993 132862.04954092152 7.973029039910034 0.2142461934123131
0.4766802770639801 13.37698658740839 116261.93154282203 8.319324511879564 0.21689751965902274
0.4920586182119169 13.334243448690513 100762.74283586578 8.676869587638624 0.21954893416556112
0.5077121180130781 13.296193306046105 87489.34731593607 9.048997396510572 0.22224832266217653
0.5236456225262026 13.262199620517977 76085.58441053967 9.436311179150042 0.22499869334999273
0.5398581663064707 13.232137358415075 66275.03151367999 9.833163267842098 0.22772003711781694
0.5563418230142585 13.205635327466823 57283.93091225711 10.246174962955472 0.23049114205326482
0.5731102870733952 13.182257090663441 50513.15386333358 10.676089422525079 0.23331294984431464
0.5901519298048128 13.161821288369797 44194.91068137905 11.119624159337809 0.23613490845839552
0.6074638695590457 13.14407229949922 38721.129953995354 11.578185443643871 0.23897811271137726
0.625044573781624 13.128724131334042 33967.48575214387 12.05556403108213 0.24188064701654902
0.6428959638770619 13.1156960879407 29839.7376912431 12.551065168953707 0.24482692030173914
0.6610075677453021 13.104611291248673 26245.989273457966 13.06039446188012 0.24775673617393834
0.6793866479921832 13.095509493387025 23113.1140238225 13.59065123447837 0.25074518993187933
0.6980096450364622 13.087981898979208 20379.09582256577 14.142738690928716 0.2537938046744339
0.7169078484606459 13.082078021671688 17987.537981405123 14.710156863106647 0.25683370057948607
0.7360472008564803 13.077555915841053 15894.852804797962 15.299465237130853 0.259926818073332
0.7554316550341258 13.074314736540176 14061.74585198529 15.9129899755202 0.2630860812102193
0.7750568282391377 13.072094885979697 12453.376968040204 16.54721571122974 0.2662645246651405
0.7949219713291028 13.070960893578013 10966.399671867484 17.202448780773643 0.26946232001853254
0.8150197692359233 13.070721665030028 9796.962579220504 17.884682941649814 0.272731766446491
0.835338608433788 13.071299053617391 8703.121580136318 18.593903705580665 0.2760655776593578
0.8558719361468184 13.072581208069403 7739.110712628131 19.322965183981648 0.2793951235299096
0.8766255575008916 13.074357513969446 6887.969581587127 20.082004272639068 0.2827957821367424
0.8975890266931443 13.076851948337593 6136.732359555207 20.87226948195639 0.2862687748783701
0.9187416162330201 13.079652013945491 5472.3090281727555 21.68755812443312 0.28975726924722417
0.9400968002176577 13.08281085387981 4884.109624315291 22.532729998801138 0.29329937254705424
0.9616138734198663 13.086186922128906 4363.201340349182 23.412640247033476 0.2969247491187473
0.9833189876043354 13.089851592895014 3901.4357314305776 24.326792783424978 0.30062050151728004
1.0051935685208426 13.09364554580583 3491.100791676146 25.26862284736659 0.30431859708269965
1.0272181328781422 13.097497102312547 3126.9773676765963 26.249210437134856 0.3081027150443989
1.0493877166913907 13.101365137945907 2803.1675277750624 27.270046714105874 0.3119748942998869
1.0717002085594491 13.10518972016516 2514.9183593681396 28.326309191341792 0.31589471563536786
1.0941210916301956 13.108855779235455 2246.9459517340174 29.4202787773195 0.3198708955508779
1.1166659328684412 13.11236268498802 2029.3928322185193 30.55914973609902 0.3239365595583821
1.1393186853006816 13.115726868716127 1825.1746691993158 31.744767269295433 0.32809143127091733
1.1620617537015365 13.118745724078588 1642.781304352301 32.97014787821618 0.3322886042678648
1.1848694124652617 13.121437177703084 1479.8931233900978 34.24245872933843 0.33656774180771526
1.2077493866003586 13.123767805831122 1334.1462097262781 35.567108263707816 0.34095229034977725
1.2306891542062022 13.125683019043478 1203.775155903965 36.94611164667574 0.3454418773662128
1.253662003528664 13.127185870172347 1086.9803200203953 38.37413417668504 0.3499824361890997
1.2766815925564423 13.128300667883746 982.283004853215 39.85654911390487 0.35461076168754524
1.2996683605181747 13.128549353131337 888.2813416382301 41.40021851349347 0.35935587270850233
1.322663691114736 13.128338056909953 803.9817938247877 43.00758922260824 0.36421998312346004
1.345661088711211 13.127520204005162 728.1257485280352 44.680024750513574 0.3691987191612816
1.3686008361797914 13.126035444861195 660.0222369029373 46.41143630264966 0.3742338940861859
1.3914962888938969 13.123806394399793 598.7312743233865 48.2150178334675 0.3794002928068274
1.4143275985647024 13.120849726637958 543.5208161109731 50.09378033189392 0.38470158041800645
1.4370541143706288 13.117035368157154 493.7973855139115 52.050900527627505 0.39014066690044896
1.4597086453762869 13.112545478308116 448.94931514682526 54.089749817423375 0.39571960000318457
1.48221374792547 13.107055603509892 408.5326325683308 56.20634035061612 0.40139482340561006
1.5046098873915201 13.100755085086286 371.99205322326594 58.41025788078788 0.4072147168795991
1.5268432369747384 13.093623912173577 338.997598340505 60.70768734486894 0.4131947019551409
1.5488883539108418 13.085338315638593 309.146963571331 63.10285910553401 0.4193380573838071
1.570742086909946 13.076138933151716 282.1686794625292 65.60026934124713 0.42564586187724085
1.5923778372756923 13.065919505341082 257.7362316993381 68.20475447169187 0.4321224237106399
1.6138035063269371 13.054693489427954 235.59024391164513 70.92133705976646 0.43878331519480357
1.6349798640298747 13.042427126138044 215.53048671843922 73.75457487178744 0.4456322510414584
1.65587090157174 13.029050011118928 197.33798293606787 76.70662916642623 0.4526566643817759
1.6764611978645894 13.014351535434619 180.80767599488848 79.7887844876182 0.45988187960595983
1.6967896494593406 12.998759560837218 165.79512127948428 83.00767126927893 0.46732677460217126
1.7167753400127166 12.981984713755796 152.15748890190736 86.37031072340274 0.47500244313686046
1.7363805126378502 12.963737764131544 139.74895956916873 89.88418319122043 0.4829140526010751
1.755629353830867 12.94438925806719 128.45855243103364 93.55729850527032 0.4910689405719188
1.7745204260766574 12.923927331377985 118.18443818234877 97.39826039415 0.49948534073401135
1.7929528372152412 12.901933152006743 108.81137434558526 101.41624829756145 0.508179736728249
1.8109655952916524 12.878673421976394 100.27210980183561 105.62108614284388 0.5171598399787807
1.8285700941411134 12.854395951994587 92.48596935619275 110.02332366323338 0.526437705668672
1.8456551886751849 12.828370378286825 85.36153515001779 114.63429572010841 0.5360363361036915
1.8622582008523192 12.801214400202095 78.87561836186487 119.46616550724582 0.5459758557279011
1.8783978384897762 12.772768743262777 72.93735162365331 124.53196668025839 0.5562649742772544
1.8939426970307702 12.742601037921851 67.49974169155993 129.84100982496227 0.566908613323819
1.908981815572983 12.71123523085087 62.53274675460832 135.40919538784112 0.5779399155351012
1.9234408065643966 12.678410917465255 57.97746233780118 141.2553319996574 0.5893874680212036
1.9373231610675197 12.644252058199763 53.80997797213978 147.396891047088 0.6012681121934547
1.950586477967414 12.608411581012808 49.98558626859681 153.85267854507975 0.613617128131327
1.9632315502702293 12.571202796777953 46.475414213720455 160.64302355753435 0.6264666596420565
1.9752266228914446 12.532599269291161 43.26078522523442 167.77996724934678 0.6397996935062882
1.9865881349626573 12.492584205522457 40.30533647348234 175.28973015939437 0.6536687852745509
1.9972283068497496 12.450786489026841 37.58782552605913 183.2002284477462 0.6681185347191828
2.0067405189540897 12.40841760023883 35.16739462854391 191.6638774834632 0.8383684779520271
2.0131747536730433 12.366048640901132 33.24247149061566 201.12737633175323 1.0918451693166535
2.0162730202504577 12.321357873895433 31.71460407947436 211.66016395202965 1.3470130693917994
2.016317926928595 12.273643442872995 30.492068825370477 223.33756422453897 1.6039292932475033
