M[M_sun], R[km], Lambda[1], P_c[MeV/fm^3], rho_c[fm^-3]
0.23841724892012095 16.20908015294055 2780876.1263280716 3.453507347168396 0.169602847481901
0.24843765048161082 15.86556846115164 2281029.038085108 3.6359750222585205 0.1719838908200203
0.2587440159403146 15.56153067491392 1879863.0543566875 3.8256435157623634 0.17438564349301722
0.2693328488830321 15.29191630813522 1556166.3348588478 4.021679075006161 0.17678376661178288
0.2802112880258843 15.05177633554653 1293381.3471277042 4.224311995917297 0.17916778315980508
0.29137325835403327 14.837575958884495 1079044.6381309289 4.43495002844633 0.18157558738983315
0.30282222307995416 14.646043012697575 903415.377071589 4.653942131817818 0.18401094289478148
0.31455330488365985 14.47447748123472 758986.349458843 4.881656647479125 0.1864754804668494
0.3265717048660306 14.320526497768858 639580.9289903909 5.115590504066725 0.18891309690552258
0.33887402512849957 14.182380475924441 540684.604802638 5.358597779272113 0.19136891043279267
0.3514587981551034 14.058037964709778 458327.4710527945 5.6113346233126995 0.1938548335326531
0.36433111422687803 13.946260855112987 389590.44070213253 5.874215841789503 0.19637623557299022
0.37749143573808736 13.845581339519395 331969.47291545145 6.144452901473818 0.19887867771549772
0.390938610993829 13.755146507965959 283573.0250252904 6.424864883139898 0.2014058751563835
0.40465988215475096 13.673525030180375 242804.47329767476 6.7165532484944945 0.20396727850996357
0.4186749624005405 13.600129568346581 208347.77211991046 7.020061594423349 0.20656212909195254
0.4329714558900685 13.534301274507971 179176.73305755854 7.331156266533009 0.20912666693181486
0.44755568320414024 13.475010456271926 154372.35465303276 7.65484010931427 0.21173559269622635
0.4624261948157931 13.421879076821993 133276.7096258076 7.991648795256812 0.21438875099696025
0.4775756489521684 13.374273181041925 115274.56914271002 8.340282092262143 0.21705797622699297
0.49301332212949334 13.33178822640731 99888.09816913556 8.69946775815266 0.21971519327946698
0.5087345600595269 13.293797510789142 86695.17734048975 9.073309565367477 0.22242097918982973
0.5247294364757041 13.26009283501698 75377.6364089379 9.462417520387044 0.22517771301764816
0.5410106481513492 13.230226527330984 65634.92034826147 9.862227889286865 0.22791934267443772
0.5575735136267764 13.203705042972922 57239.29232630158 10.277249098294718 0.23069648638678433
0.5744083907587137 13.180546010086147 49996.23235890609 10.7092625675333 0.23352401164972095
0.5915299683404736 13.160252272507957 43727.52005523403 11.15634576699643 0.23636854710821092
0.6089123601013448 13.142671442435233 38300.07599810311 11.617253975343617 0.23921836516485603
0.6265749234433329 13.12748457067127 33588.51240892715 12.09709108128929 0.24212756882819947
0.6445032951644164 13.114739265466602 29499.79504590092 12.596623437309148 0.24509668436268572
0.6627005185885453 13.10382357221572 25938.61262991499 13.108902973643456 0.24803496648100978
0.6811552301790762 13.094792242518764 22835.786339000973 13.64203312471859 0.2510295525239832
0.6998737161757768 13.087470256523078 19978.23477409482 14.19713033430994 0.25408520340308055
0.7188519104811885 13.081691770305953 17762.24333283992 14.76977883045494 0.2571531203359904
0.7380691956741426 13.077136014112043 15690.775967470492 15.362456040157246 0.2602536463105032
0.7575412883472046 13.074048885271601 13878.269845027524 15.979511502693564 0.26341945606518163
0.7772497537032194 13.071955516081927 12287.083611256372 16.619926288680833 0.26662891615225737
0.7971985520227058 13.070871874665707 10889.797925003997 17.279102967053284 0.2698338700942747
0.8173845313186732 13.070750302848419 9661.662003421043 17.96547594301985 0.27311154750703937
0.8377839049078117 13.07139474380858 8580.88472571062 18.680088169603863 0.2764630016906765
0.8584210940124033 13.072771105287789 7628.112664482504 19.41570236618291 0.2798180920155762
0.8792537517166894 13.074641590306761 6787.903559025433 20.17961014172539 0.2832264783018189
0.900310463333715 13.077119554602593 6045.607078372025 20.974985790033237 0.28670828211991223
0.9215494346863089 13.079930995360124 5389.972108480442 21.799226534089904 0.2902350811508503
0.9429943479400463 13.083141207681805 4809.660734694361 22.650128575089894 0.2937875200908177
0.9646156429021953 13.086668182738 4295.628265276344 23.53607354728641 0.2974237674962155
0.9864014040722888 13.090355496495542 3840.2493799835647 24.45838066025713 0.301143334488684
1.0083716995546466 13.094205697943684 3435.698156606548 25.409372703628247 0.3048701824738468
1.0304817254153618 13.098072207860973 3076.638186821456 26.39708040106309 0.30866616503869143
1.0527439698267125 13.10192876774921 2757.4804496019824 27.42542287937814 0.3125514998508606
1.0751346897471243 13.105733742924548 2473.434762506152 28.494614060480398 0.31651929998928835
1.0976627372020489 13.109454281159552 2220.533264442613 29.59703352567754 0.3205100845597944
1.1202746812630502 13.112894189111575 1995.1458075599594 30.74481025838847 0.3245887800094202
1.143034318946037 13.116312662266278 1794.0404369984426 31.939817030609802 0.32875951560756334
1.1658429373315613 13.119192618317614 1614.4210494114257 33.18108272808065 0.33301109820119545
1.1887470302284049 13.12189896063211 1454.0784267467052 34.46398345907147 0.3373084110792223
1.211703549602842 13.12417222579903 1310.7218867150139 35.799829372081426 0.34171226809126265
1.2347241440662737 13.126011171499034 1182.2948462831052 37.190656254497426 0.34621943454987075
1.2577689647933876 13.127401774065873 1067.3322358028797 38.63826533620116 0.3508222710247115
1.2808404131508737 13.12824205782555 964.3481507811276 40.13402944001278 0.3554733412246342
1.3039095796140254 13.128475395508035 871.9892132809805 41.691831762677836 0.36024280444440027
1.326993513103639 13.128269814335273 789.0981811465297 43.3141704838413 0.3651326563765412
1.3500369668928438 13.127282364423833 714.5778692105811 45.003661550565454 0.3701426596639783
1.3730470852597914 13.125638195093792 647.6385358652751 46.75922115454654 0.37524461640202256
1.3959977993377974 13.123268829406117 587.4010497836276 48.58074672648447 0.38044196865733937
1.4188808278412728 13.120150520756177 533.1661401961502 50.4785417958903 0.38577618335147423
1.4416730886387892 13.116260955589569 484.3305677732142 52.4558528008334 0.39124978682491485
1.4643553575745036 13.111432011272683 440.27578151673356 54.51610935500088 0.3968627996856745
1.4869346913429176 13.10597350961689 400.5666152847745 56.663030642659926 0.4026135117637157
1.5093284019895579 13.099288655488316 364.70260310552044 58.89414605539409 0.4084890037587912
1.53160468423373 13.091866643212732 332.30757733813897 61.21744510184664 0.4145137944071386
1.5536676999242938 13.083360627434352 303.01084612850246 63.64010920456699 0.4207038943936317
1.5755634192187995 13.074033721485955 276.5377472443267 66.16672809057543 0.4270592805848757
1.5972249250871737 13.063544745506 252.56782024583953 68.80226590702021 0.43358956407686045
1.618650809234188 13.051973794291255 230.84103963619475 71.55189591256251 0.44030759851193885
1.6398273940751462 13.039422301053964 211.16135354976942 74.42116225229802 0.44721967764491793
1.6607219515701293 13.02573325444219 193.32498842208054 77.41599405702813 0.45432914272737057
1.681322544272497 13.010814913723928 177.11017398753685 80.5427110343762 0.46164037013476106
1.7016130350835628 12.994762416689117 162.395770214344 83.80785887756478 0.4691727234033301
1.7215652270388992 12.97758728728507 149.02914133209217 87.21623932844159 0.47692691064439435
1.7411669525330749 12.95914477205349 136.87375310295545 90.77890040515906 0.48492020810077774
1.7603667110724042 12.939350114160915 125.80648706163015 94.50406300276909 0.4931613277426333
1.7792006781462633 12.918403483596414 115.72877570386841 98.40058880168729 0.5016723655131576
1.7975950329418842 12.896101349841206 106.55533345900986 102.47794086556965 0.510467612098593
1.815559257562027 12.872519252614474 98.18718701629875 106.74621892251133 0.5195527086295662
1.8330905978138228 12.84778133691716 90.5625028748524 111.21535785541722 0.5289392873216772
1.8501053143086645 12.82130746373044 83.58963156410485 115.89455482284215 0.5386443822154249
1.8666335017972158 12.793627448958274 77.22250817314736 120.7985350577065 0.5486928495720591
1.8826408559301424 12.764629480315975 71.41465012639608 125.94072752762891 0.5590942337043223
1.8981337792167565 12.73421651939359 66.09556176009887 131.33553030410783 0.5698747585045191
1.9130521941634595 12.70234500646308 61.228985308927214 136.99846598530098 0.5810623721778053
1.9273856780470655 12.668957609884389 56.7727985493181 142.94625050970166 0.5926731859037565
1.9411461420979816 12.634198881637941 52.69102926700395 149.19691569344303 0.6047306020818155
1.954268620749225 12.597910660268674 48.94660569099946 155.76666055051214 0.6172596280563205
1.9667795368864693 12.560342800697047 45.51816437623315 162.66813688063476 0.6302607432300444
1.978605831070325 12.521047479292491 42.37043659054272 169.93390418363362 0.643788702976399
1.9898116147680502 12.480454755688218 39.47994479724712 177.58835803887052 0.6578892101849154
2.0002888031876975 12.438071647261866 36.81818913412131 185.65325587050015 0.672585548003957
2.010071293230367 12.394378013037041 34.37955271594809 194.14557206253284 0.6878628547598399
2.01913949814979 12.349126884399048 32.13209491368324 203.11054851321703 0.7038272488797696
2.027484586849659 12.302436463298823 30.067099841788746 212.57535270650044 0.7205048316374221
2.035068210741212 12.254152332543736 28.163468845310167 222.56308119830663 0.7378845396028433
2.0418680916154424 12.204311706034787 26.412228674854287 233.13047798743395 0.7560958009482146
2.047913885832529 12.153011467968888 24.79608291032278 244.2964144150287 0.7751138111731016
2.0531825995092166 12.100301834872019 23.309158862495757 256.1237236735714 0.7950443112196851
2.0576197165356245 12.045959715736414 21.936536365293943 268.64450420490107 0.815911630559623
2.0612529611659607 11.990182434093017 20.669786770770646 281.9258553940188 0.8378135127435093
2.0640685905267055 11.932959650636917 19.50217179516143 296.0052148769108 0.8607638809574104
2.0660366816805116 11.87417973216811 18.424571529750544 310.9642691964528 0.8849034939766622
2.0671754200056993 11.81407999266271 17.42943693815579 326.85395056922863 0.9102451665305331
2.067463068659913 11.752609016842685 16.512485430665112 343.75386590478377 0.9369124633622026
