M[M_sun], R[km], Lambda[1], P_c[MeV/fm^3], rho_c[fm^-3]
0.23841724892012095 16.20908015294055 2780876.1263280716 3.453507347168396 0.169602847481901
0.24843200300993173 15.865753420149867 2281477.4607180385 3.635873532166477 0.17198259982766567
0.25873108940796863 15.561906306029663 1880473.8062550034 3.8254347220522944 0.17438308929812982
0.26931556649542304 15.292317804072272 1556706.789118001 4.021342641983306 0.17677965099208032
0.2801888216807312 15.052393800265161 1267734.9886112374 4.223851225423772 0.17916239516375249
0.2913397462421832 14.838170179019516 1079615.8687164742 4.4343585368341945 0.18156893191448814
0.3027821391373216 14.646637693334773 903982.713947317 4.653213199513569 0.18400304817624577
0.31450676978318715 14.475121382844492 759466.1240952748 4.880783281160297 0.18646637989403445
0.32651718868558666 14.32119525527528 640086.5954040885 5.114521686071837 0.18890195970480997
0.33881329486651524 14.18292137720542 541079.8664250318 5.357364263218424 0.19135660227143717
0.35138978162452 14.058711538777139 458733.7399475355 5.609928645965708 0.19384132062210382
0.3642516437040036 13.946859976783994 389957.85034424753 5.872629073989688 0.19636154182736823
0.37740402197450534 13.846215226996405 332325.5942184068 6.142602687842966 0.1988615444156909
0.39083831446837153 13.755666801853316 283899.4454891387 6.422809929854917 0.20138755951636397
0.4045547947687327 13.674179074563762 243094.57156412938 6.714284310297677 0.2039478801781566
0.418556020912117 13.60084317738808 206034.61421943223 7.017465223477687 0.2065399313674096
0.4328471288411889 13.53485324743533 179408.07076838217 7.328318903353072 0.20910327764974848
0.44741822970739425 13.475526445652374 154599.0479495988 7.6517506017476755 0.21171102953453677
0.4622770356007371 13.422351201857209 133467.60499204762 7.9882955553007235 0.21436307773863977
0.4774197151711319 13.374824830130894 115456.4333541089 8.336507445969483 0.21702907657453474
0.4928441562379868 13.332158426523321 100038.74638069925 8.695397374330868 0.21968524667794687
0.5085508734548526 13.294254805137665 86839.49888216221 9.068930189517285 0.22238987839285712
0.5245386187854998 13.260507250723624 75501.52643793804 9.457714676929498 0.22514546409141364
0.5408036359433134 13.230559818919108 65749.82847372051 9.85699158856629 0.2278834356583518
0.5573536235544445 13.204130905606155 57347.62835878481 10.271650433800584 0.23065948925020768
0.5741794806031462 13.18093481532185 50089.263144322846 10.70328537737167 0.23348598219708816
0.5912812409966398 13.160551427618788 43810.18653347465 11.149728501564002 0.23632644522161936
0.6086527981107266 13.142911070412739 38374.88567964204 11.61021339379382 0.23917506901530386
0.6262979582946633 13.127746070212417 33658.58248787947 12.0896070289324 0.24208306829764814
0.6442114088447899 13.114799833125868 29560.683115290198 12.588577622934453 0.2450499711336709
0.6623958386138078 13.103865885010235 25991.766549726035 13.10015927633318 0.2479848152498311
0.6808389633065455 13.094937284614304 22886.201023251993 13.63277099517224 0.2509782931570372
0.6995338231449404 13.08747467641406 20172.70452032232 14.187325137033435 0.25403267287002645
0.7185004320808392 13.081765454710197 17802.364699280093 14.759029559766267 0.2570955320077503
0.7377052619696692 13.077269322167098 15728.161319703984 15.351098794635842 0.2601947191599583
0.7571605510267232 13.074001615739489 13910.41862841385 15.967517032040602 0.2633593453749406
0.7768518797593971 13.071938347568661 12316.83189493088 16.60681437257449 0.2665632053468088
0.7967862679859374 13.070860391121172 10916.962889205004 17.265279174004274 0.2697668648646364
0.8169666361254617 13.070841825599764 9686.127911467629 17.95090499575558 0.2730430543243208
0.8373559911728151 13.071466476563945 8602.842103009963 18.664731849634826 0.2763929624761075
0.8579582229124566 13.072680688747674 7648.123622304671 19.39897446371406 0.2797417970990424
0.8787811180271949 13.074598215745485 6764.556561550794 20.162003109964935 0.28314878542198907
0.8998156390561102 13.0770887210601 6062.35866329797 20.956455927431293 0.28662899569547956
0.9210511427117072 13.079944476389409 5404.737311667946 21.779079308071648 0.2901488742777861
0.9424746899335676 13.083127457632463 4822.889026063991 22.628946407555322 0.2936994438689378
0.9640716387023643 13.086582478181095 4307.853735962892 23.513801369448405 0.2973337251330556
0.9858419726961577 13.090237552084556 3851.1907036152984 24.43496188321701 0.30105155851365323
1.0077989803061755 13.094067275238325 3445.573670858091 25.383971478513278 0.30477063747207706
1.0298895274911635 13.097888782164722 3085.633913308219 26.37039279261273 0.3085644734413611
1.052140819170689 13.101812522161788 2765.5182410041457 27.397379051793806 0.31244742837614414
1.0745208659135779 13.105622859929431 2480.767313674422 28.464232888740717 0.31640655456118816
1.0970262954291636 13.109362319148769 2227.2088681754917 29.565125314370356 0.3203946965538076
1.1196409928045163 13.112853959960976 2001.2020336542685 30.711292521472792 0.3244710330957557
1.1423635670788317 13.116163595946043 1799.5326366332724 31.904602287174715 0.32863889808745234
1.1651666434325902 13.119152716905164 1619.5228970746807 33.142995089852924 0.3328806404433991
1.188048887960659 13.121818422751842 1458.7307776585367 34.42398139744956 0.3371746639446429
1.2109881278731058 13.124044618964994 1314.8805586856988 35.75780310694043 0.34157502645345794
1.233993039138772 13.125972308495577 1186.1870592975092 37.14649226349464 0.3460790101554459
1.257029244734125 13.1273417047447 1070.8996195355637 38.59055765441703 0.35067057906545157
1.2800819044426688 13.128140222751231 967.5553192314734 40.08390764456151 0.3553175318534804
1.3031470703496961 13.12855608998992 874.9566783946743 41.63915392658112 0.3600825866053848
1.3262160348687442 13.128233814286162 791.7297953923285 43.25878536919619 0.3649677783518631
1.3492502788801126 13.1273448900259 716.9467640945935 44.94541163446418 0.3699733754361631
1.3722532699702636 13.125713087666927 649.8140042759389 46.696379711391195 0.3750619884105788
1.395184399088132 13.123304558610275 589.3705581648669 48.51465870093772 0.38025373551105396
1.4180524395595786 13.120238991412954 535.0168801658149 50.40900995570005 0.38558198739780003
1.4408643936196823 13.116460553396383 485.9991543754009 52.382667259810084 0.3910493396435985
1.4635188641108514 13.11163157597781 441.8174755918015 54.439049653910004 0.39665617917398055
1.4860803042148598 13.106062828220908 401.97555405519097 56.58186047495967 0.4023997556003905
1.5084836220895044 13.099576788126296 365.99371548492434 58.80666967200764 0.4082586406016852
1.530738421430772 13.09211804331176 333.48998885480296 61.12528534645841 0.41427531399944195
1.5528330646573747 13.08392486257455 304.13398228698105 63.54297182242879 0.42045694454327215
1.5747011501447188 13.074422105368996 277.53776644933384 66.06430182653858 0.42680370822781616
1.596346047915044 13.063944080607904 253.4885941287301 68.69421629992915 0.4333242571208012
1.6177810865218287 13.052500463623199 231.6910854879058 71.43786111976097 0.440031936166593
1.6389619923079206 13.039979558692764 211.93919081036088 74.30075616303058 0.44693323888427033
1.6598471634436813 13.026282963545814 194.033654443095 77.28880587989013 0.4540315005620071
1.6804385404376991 13.011423512450355 177.77462562977334 80.40829852961261 0.46133029459814956
1.7007502083815695 12.99552304090252 163.00235618540978 83.6630875145039 0.4688387510681963
1.720700308298215 12.978260138522664 149.57571136194645 87.06317869476837 0.47657870133401986
1.7402784683863255 12.959824126866806 137.3809746300466 90.61699716985213 0.48455718494567285
1.759540079200113 12.94035560245306 126.27979227116886 94.33272542759103 0.4927826648913002
1.7783897023740218 12.9195993274948 116.17074284859683 98.21917820982043 0.5012765377020042
1.796768226235049 12.897225013441547 106.95825602466893 102.28576696058965 0.5100534903864561
1.8147462737156224 12.873653573872271 98.55687927795248 106.54254119428852 0.5191195383766546
1.8322664397275314 12.8488485812197 90.89969650823399 111.0002967483207 0.5284891215701797
1.8493037216779014 12.822592954109641 83.90929488026303 115.66883348924993 0.5381810422479254
1.8658467699981647 12.795034096372763 77.523436517988 120.55884749426103 0.548206716624095
1.8818798113527673 12.766020852464944 71.68198552179135 125.68608225641823 0.5585835829154109
1.8973819842360868 12.735728176894431 66.34898291301126 131.06485330536077 0.5693375512286315
1.9123300896204025 12.703998386515213 61.46327941206312 136.71059434597112 0.5804967877430914
1.9266748636704705 12.670651965197354 56.98949143751992 142.63992966181283 0.5920779568127457
1.9404469569427725 12.635967005215768 52.88978080569739 148.87078889056494 0.6041032713618859
1.9536132530703432 12.599890771438105 49.13634850762621 155.42250100202338 0.6166085170830492
1.966138206796 12.562235396856062 45.68832439329277 162.30217091359293 0.6295767806587952
1.978001790762212 12.523131919648376 42.52907142674737 169.5435254364841 0.6430657363497903
1.9892124143771581 12.482475793370616 39.62423251496065 177.17169792461354 0.6571241960906087
1.999741087409233 12.44036332898665 36.95687525765661 185.21287359835787 0.6717913767008697
2.009561031676985 12.396816822085155 34.506060729865844 193.67489759844023 0.6870210511216253
2.0186636891178957 12.351573174992748 32.24999461852259 202.60719371919095 0.7029341380586003
2.0270391003923045 12.305020276569685 30.175793918737867 212.04166128164488 0.7195736419362194
2.0346581958164482 12.256887789509499 28.2664787007926 221.99153710259904 0.736894829342524
2.0415061946897084 12.207140673185455 26.506921555103705 232.51800410963162 0.7550430549291625
2.0475980568136634 12.156004420906953 24.885094368075077 243.64505038358374 0.7740116611157689
2.052899977173031 12.103365702413152 23.391131125530837 255.42470625952527 0.7938698636022495
2.0573794250903172 12.049110887658106 22.011589550303896 267.89947216367597 0.814677308479986
2.061062167924245 11.993485155654813 20.7418830228692 281.12513130090855 0.8364971448910223
2.0639210875638088 11.936358280655519 19.570161366388856 295.1499519236054 0.8593764012828811
2.0659444994834963 11.877729266379488 18.48585267620717 310.04956054874424 0.8834402724400465
2.067131707020368 11.817732504657371 17.486894465424818 325.86855958215835 0.9086788739344719
2.0674715711717933 11.756307883213273 16.564591809776175 342.6977774290492 0.935255281539856
