M[M_sun], R[km], Lambda[1], P_c[MeV/fm^3], rho_c[fm^-3]
0.23841724892012095 16.20908015294055 2780876.1263280716 3.453507347168396 0.169602847481901
0.24841765043624858 15.86621993387919 2282059.3881667973 3.6356122801744153 0.17197927660352044
0.2587022636396774 15.562734618917641 1881479.6683425047 3.8248972901906653 0.17437651483900052
0.26926947154359415 15.29336422381102 1557885.3593378316 4.02047673193719 0.1767690582256028
0.28012847799424695 15.053555006919446 1295069.7267022962 4.2226653752516 0.17914852848579366
0.2912600980925628 14.839660816891469 1081028.4240737983 4.432836358186126 0.18155180433016563
0.3026851681607397 14.648164470279085 905290.2681350403 4.65133744105467 0.18398273272995858
0.3143882523844636 14.47676092519826 760831.8609823806 4.878535988704233 0.18644296286020567
0.32637951278894345 14.322920429915014 641405.1842040513 5.111771675656157 0.18887330429471427
0.33865428310770895 14.184646433236837 542279.2536412174 5.354190681990364 0.19132493592245614
0.3512104232871814 14.060392119565188 459793.093281609 5.606311566409096 0.19380655671029356
0.3640481643582619 13.948536817539818 390950.3953985114 5.8685471147420145 0.19632374217525053
0.37717714971369 13.847924983489543 333222.29797853314 6.1378433795521445 0.19881747239370381
0.3905848012922439 13.757323767137908 284722.4926459298 6.417524259001171 0.2013404487400138
0.404278640755786 13.675712674426263 243845.54598843554 6.70844854771251 0.2038979872109826
0.41825634911389614 13.602310362843982 206702.94389313832 7.010787820950848 0.20648284278297574
0.43252123319677693 13.536326609181002 180026.09597146037 7.321022091522428 0.2090431277220625
0.4470624156993033 13.476942324126385 155151.1947895245 7.643805758147995 0.21164786397376997
0.46189190956408516 13.423673693679467 133971.21770287884 7.9796729393185775 0.21429706079669497
0.47700570326112113 13.375973401494747 115902.53922610906 8.326801993084937 0.21695476915774223
0.49240063572965465 13.33334697586204 100447.60007697053 8.684932024244734 0.21960825107199927
0.5080737926099014 13.29530849633908 87205.43684560707 9.057670928605754 0.2223099190562645
0.5240302943103307 13.261408517029661 75830.4507987108 9.445624356936616 0.2250625568372977
0.5402690103905373 13.231457307447247 66046.51599321185 9.843530932002293 0.2277911315609437
0.5567837643931243 13.20493409435579 57609.62247806373 10.257258931939548 0.23056438721999073
0.5735733806172314 13.18160904376932 50327.33695441123 10.687921560984295 0.2333882309943051
0.5906463446523286 13.161274637632587 44025.06882636177 11.132720857554345 0.2362182352810335
0.6079780764755521 13.143484527120204 38569.660952027894 11.592118549302144 0.23906379452928395
0.6255923942453583 13.12834577855394 33833.81065441353 12.070373273852658 0.24196870347699656
0.6434690410091028 13.115251467455643 29716.737099245394 12.56738267071827 0.24492394494175607
0.6616213299236965 13.104435669067186 26135.122142079486 13.077691176944352 0.24785594495542246
0.6800168179669989 13.095205132389442 23012.91261855496 13.608971730054263 0.2508465809781455
0.6986721821054296 13.08773947740667 20288.28815580656 14.162131510617808 0.2538977001012124
0.7175999152121051 13.081978740209925 17906.76711537676 14.731412638650802 0.25694757663810325
0.7367699232709177 13.077380216869724 15821.094400411246 15.321921092261311 0.2600433304401197
0.7561864592076593 13.074203849329415 13996.092277071675 15.936703526611478 0.2632049224634439
0.7758378108836109 13.072003643172845 12393.462808269687 16.57313320122886 0.26639441103180383
0.795733117644309 13.070947911954999 10986.187995196493 17.22977083383602 0.2695947525884606
0.8158602790688174 13.070725318095793 9748.601128459926 17.91347902107434 0.2728671272500016
0.8362133297642247 13.071346369165799 8659.342487726795 18.625290235852972 0.27621307174342
0.8567771300935992 13.072590629990477 7699.355321882291 19.356013986580823 0.27954585705077645
0.8775724118881032 13.074569045477064 6852.05866187478 20.116786708280785 0.2829492632929796
0.8985540833755636 13.076857515062137 6103.757192863559 20.90887155753804 0.2864253895150797
0.9197483759968549 13.079777323147791 5442.712777245039 21.727346451038894 0.2899275173606883
0.9411194442056862 13.082862974559509 4857.131057518942 22.574558314766104 0.2934732962039122
0.9626836703140362 13.086348084017915 4338.982790673955 23.456616881556076 0.2971025386517259
0.984423944122562 13.090084299654135 3879.33548439013 24.374522864477562 0.30081346555173816
1.006328929066578 13.093875098807029 3471.22852005648 25.318762068916435 0.3045150879556919
1.028379976065114 13.097695421840594 3108.878225575112 26.301883857990493 0.3083034240855865
1.0505902056399044 13.10159134994593 2786.7529723599273 27.325391628348658 0.3121802809157468
1.07291713491917 13.105320350303579 2499.98961845076 28.38625333988753 0.3161171701459377
1.095380596467181 13.109011724638039 2244.6009581798376 29.483229787579745 0.3200985420171388
1.1179634333830262 13.112595346807417 2016.9985663502653 30.62526968487679 0.324168837170675
1.1406483626182997 13.115918055629708 1813.9559632705632 31.814228024976234 0.3283293482135951
1.1634161024367609 13.11892313982308 1632.604891837562 33.04525790294778 0.33254587108383077
1.1862534047055657 13.121590764028761 1470.6545106311557 34.32133612279341 0.3368314688490216
1.2091635768392452 13.12386300622641 1325.7172945355962 35.64996857486743 0.341222880295717
1.2321267693217672 13.125852630460871 1196.1409675283878 37.0331777388726 0.3457187138339793
1.2551358315336751 13.127303694219211 1079.9632686794548 38.468163782282765 0.35028141393373413
1.278155887663885 13.128158150547458 975.8233995789768 39.955326361027126 0.3549178221314071
1.3011789972330088 13.128501694036844 882.3705276534131 41.50402185221212 0.3596715870172974
1.3242129741188537 13.128342813485373 798.6302491218183 43.11671531644673 0.3645448446843364
1.3472164804700364 13.127404179641708 723.2794801673747 44.79600035523774 0.3695391606814715
1.3701818892935218 13.125860370224084 655.5536636235729 46.53520886754457 0.3745935983480171
1.393103581164563 13.12358481528273 594.6496015801041 48.34516986538519 0.3797709942502527
1.4159466895310944 13.120601976570663 539.807826382734 50.2306983813656 0.3850839797780638
1.4387046189092694 13.116761465025155 490.39605323834104 52.19499586332881 0.39053532824308984
1.4613650210668316 13.11214455541411 445.8477826230868 54.241454343490865 0.3961263660087442
1.483910187225738 13.106650534844624 405.6256408610384 56.36983283364409 0.4018331965114376
1.5062887337936932 13.10022143676347 369.3812479486664 58.58240239704448 0.407668047855437
1.5285328864242294 13.092933137348538 336.5828200122283 60.88902462690226 0.41366394570223786
1.5505931976608096 13.084672625097713 306.96470587617324 63.2939650681306 0.4198239011221003
1.5724605661243232 13.075414387796327 280.1446138949921 65.80175304184048 0.426148600747529
1.5941184969552373 13.06511963129 255.87821868681584 68.41727022809492 0.4326442387358293
1.615540966902779 13.053838385098759 233.8968074605463 71.14559258510377 0.4393254199555746
1.6367041878508417 13.041311754233579 213.94656806686078 73.99217804264686 0.4461991503103166
1.6576024758817078 13.027901580160233 195.94002768077445 76.96159306787814 0.4532632079908749
1.678228651858348 13.013178991279622 179.46480740056552 80.05804448318338 0.46051199421196476
1.6985106658098106 12.997282379280254 164.56975174224456 83.29216210127618 0.46798306508308857
1.7184650830283552 12.980277285743705 151.0288688064194 86.67104260680193 0.47568660103698807
1.7380865715690617 12.962096284362937 138.71104447537476 90.2022366245599 0.48362719931889053
1.7573410152301983 12.942680994705588 127.50354769460822 93.89382868386843 0.4918126856427545
1.7761923767689862 12.921935475558435 117.29295213226372 97.75451380633463 0.5002626658444684
1.7946303499261504 12.899987319435382 108.00410594620422 101.79357179567671 0.5089928432376122
1.8126176968854875 12.87657076083223 99.52230539389917 106.02092414729547 0.518010192793608
1.8301655682325073 12.851900030067172 91.79154733926146 110.44722702732224 0.5273278039887468
1.8472426284221866 12.825908632471858 84.73170568858042 115.08394131832048 0.5369697127462112
1.86383969666282 12.798579665761048 78.28129361560578 119.94336676244146 0.5469554105203269
1.8799021577953878 12.769755815443544 72.38386535173349 125.03412598844294 0.5572761878045788
1.8954709871451376 12.739747524546633 66.99598781725278 130.37191483317773 0.5679622899736219
1.9104389760648843 12.708015865081757 62.060908902757326 135.9737060452284 0.5790490155554837
1.9248545924309255 12.675067002131145 57.545891981092346 141.85589046636858 0.5905544466082082
1.9386899382550629 12.640597750118989 53.40501394264415 148.03613752089714 0.6024977533854331
1.9519043381506855 12.604736197435622 49.61445723155294 154.5334792049801 0.6149144338000943
1.9645055422425923 12.567417921843761 46.133562968823895 161.36570658843578 0.6278266000261672
1.976449978878805 12.528492771660721 42.93866453747366 168.54469765870212 0.6412159452063456
1.9877190580479014 12.48808540788037 40.00617533447254 176.10574232942975 0.6551670347825846
1.9983315754134245 12.446255792812659 37.31123856326283 184.0747089402844 0.669719383623909
2.0082411692671736 12.403013792361731 34.837414847422444 192.4709746570278 0.6848678289064263
2.017431519298309 12.358079055372185 32.55528290082882 201.3198302451875 0.7006499475372103
2.0258938610947803 12.311779390573442 30.461691105674582 210.66563957240191 0.7171535629930308
2.033612058260621 12.263890721243826 28.531040052963302 220.53007170711635 0.7343640932053234
2.0405716003294545 12.214515244408554 26.75356137517049 230.95207826379283 0.7523514753204894
2.04675131993303 12.163601800371396 25.114932972221983 241.97984506587431 0.7711940260487653
2.0521674202536846 12.111164211508388 23.602848076262294 253.63791462191975 0.7908678022237027
2.0567592952022187 12.05732230111607 22.212011254705242 265.99525093537375 0.811522514891858
2.060558668826678 12.001923857659778 20.92723847094267 279.0788554864271 0.8331331250960864
2.06354022599631 11.94515021018618 19.74140034436671 292.96453888153866 0.8558310399824766
2.065683784728857 11.8868049806733 18.646024175449597 307.6990984938968 0.8796557987405621
2.0669989234587995 11.827139542994475 17.63696498662778 323.3513081736458 0.9046776680219841
2.0674684396430343 11.766028860544603 16.704644626812335 340.00025872003596 0.931022417463854
