M[M_sun], R[km], Lambda[1], P_c[MeV/fm^3], rho_c[fm^-3]
0.23841724892012095 16.20908015294055 2780876.1263280716 3.453507347168396 0.169602847481901
0.24845902200133468 15.864793660952213 2280093.478283052 3.636355806834652 0.17198873454384245
0.258786539360729 15.56039926388471 1878563.489128694 3.8264269687714108 0.17439522755409628
0.2693990821574885 15.290335367468355 1554481.3122521758 4.022941589843806 0.17679921108538563
0.280303317297986 15.049929674585504 1291417.1850318317 4.2260412590953464 0.17918800420978154
0.2914872971545587 14.835569022868906 1077101.7291073878 4.437170076751898 0.18160056741737585
0.30296646801584054 14.643813369298224 901494.9253058848 4.656678265812373 0.1840405766586263
0.3147238958642087 14.472136687904362 757110.9349577441 4.88493519837297 0.18650964332668696
0.32677363832552253 14.31818266560209 637830.0849890228 5.119603165979673 0.1889549092826813
0.33910660162117945 14.179871422403256 538979.5679938308 5.363229132389222 0.19141512259297433
0.351722881396286 14.05558382192391 456801.96819313086 5.616613904175812 0.193905572934835
0.3646298965729214 13.943876327454616 388146.7645832671 5.880174415979897 0.19643141300565145
0.3778247188898117 13.843181508480733 330653.02457089705 6.15140146738154 0.19894302264353161
0.3913013887882375 13.752741317390251 282379.4133913895 6.4325829213389785 0.2014746654351428
0.40506593037597277 13.671380226829806 241724.36919765794 6.725075581952075 0.20404014036773102
0.41911160267544945 13.598057668631522 207381.5932019175 7.029436250333623 0.2066394934131559
0.4334524062986046 13.53227169282616 178286.2043716012 7.341815507354598 0.20921453442511018
0.44807581599641355 13.4730463121437 153574.9003131348 7.6664473785731335 0.21182787640987139
0.4629863913573532 13.420011523073217 132551.5681409356 8.004247743101843 0.2144852117474069
0.4781796957161819 13.372574497587536 114628.91397942249 8.354465882950771 0.21716657093750624
0.4936580502851 13.330104661937058 99295.86740467521 8.714763817620106 0.21982772934922226
0.509421865033563 13.292293305349858 86171.51136243205 9.089767829159044 0.22253786002815304
0.5254684555697802 13.258616396899864 74900.6908789749 9.480092522258737 0.22529891625069232
0.5417938379475644 13.228844777752343 65207.40209465661 9.881909966362773 0.2280543090745514
0.5584034614035701 13.202509948751263 56855.91582103671 10.298294508923671 0.230835558826679
0.5752933474407687 13.179420599455078 49646.94396579061 10.73173221120127 0.2336669731795434
0.5924554632967883 13.159313818637894 43416.102024159925 11.181224380677206 0.23652683554056092
0.6098951259668544 13.141762589781885 38017.98527442852 11.64372567513236 0.23938115323354714
0.6276054958267058 13.126768251337971 33338.054582510376 12.125231819957692 0.24229489499604717
0.645587826631781 13.11390672725692 29273.74721789869 12.626511507869546 0.2452681133912728
0.6638340863205014 13.103112865552 25732.542738283002 13.141785745999767 0.24822357222291946
0.6823374547488124 13.094147328962627 22650.609596239243 13.676867565186155 0.25122233663020294
0.7011179226384292 13.087040701696617 19961.674871149873 14.234009302664251 0.2542827794243992
0.720157839986126 13.081288557740807 17611.529444664007 14.810213338098624 0.25736974486484016
0.7394270804110394 13.076915695073456 15556.33996753541 15.405179892105247 0.2604753193253952
0.7589607301761182 13.073859639224626 13755.874244416902 16.024634976650827 0.2636455938618485
0.7787277689132477 13.07176791161524 12175.857890523144 16.669259518850538 0.2668761512827706
0.798744076841573 13.070968342626315 10790.376836167463 17.331117467992133 0.270085989289605
0.8189812849837338 13.07081332589604 9509.67133852413 18.02030474286573 0.273369279481356
0.8394501905592233 13.071523162260904 8499.705455051868 18.73787539470117 0.2767265656087309
0.8601454909087936 13.072924951934088 7554.554541357497 19.47865868985572 0.2801052318688148
0.8810322503746081 13.074823856078329 6721.18719145946 20.245878725356366 0.2835188953982711
0.9021516859153419 13.077388595487735 5985.690434439313 21.044731479001783 0.2870067131669577
0.9234582204137569 13.080307886871303 5335.5236033976535 21.875069438937317 0.2905596012443401
0.9449609504635152 13.083595713240904 4760.535646493128 22.729871799763185 0.2941190953150376
0.9666285208003391 13.086966763553216 4250.946176283759 23.61992487025291 0.2977627631404183
0.9884906027397902 13.090717602617483 3778.62382887472 24.54655361056446 0.30148887595192686
1.0105087681953586 13.094557197428603 3399.079285445164 25.50502200590848 0.3052450230542387
1.0326734953095993 13.098389277151261 3043.4201075098013 26.49757919879754 0.30904910992827944
1.0550142885436546 13.102412233915556 2727.156130642236 27.53103476279593 0.3129434286780444
1.0774641353608538 13.10611304509004 2445.842309399491 28.606933344933562 0.31692963674078667
1.1000425870103212 13.109840631168952 2195.5390656852815 29.717221251632026 0.3209447131859016
1.1227337345177637 13.113333859110062 1972.287956606263 30.871067768586386 0.3250323192671621
1.1455193492912017 13.116539507726296 1773.356112431673 32.07247464532016 0.329213894397507
1.1683926442673336 13.119516150650655 1595.6410473370188 33.32325926960917 0.3334943928636591
1.1913613466686248 13.122162973604635 1436.9187817615425 34.61470485736306 0.33781234898451934
1.2143637454316505 13.124366522749877 1295.070824803076 35.95818714412138 0.3422294037425263
1.2374404349840271 13.126212935227665 1168.123941328566 37.3570792390934 0.3467485952144672
1.2605371646248151 13.127532071544227 1054.3516914009947 38.81370986357297 0.35136897582680776
1.2836628873153064 13.128311057458522 952.5492664562408 40.32294156268455 0.356060596305419
1.3067870762787883 13.12853021309906 861.1858917617618 41.89039033856999 0.3608467135702237
1.3299100750640742 13.12814550365634 779.2115927851544 43.522947097868055 0.36575417130776916
1.3529965818160021 13.127149638006749 702.7729981594055 45.223251599901765 0.37078082593829803
1.3760514327359212 13.12539842446912 639.3820041155076 46.99422810558408 0.37592321674756674
1.3990452874090027 13.122968625399967 579.8590129553418 48.82993821902694 0.381151720511488
1.421964174826747 13.119689363735969 526.2658145443266 50.740736671350646 0.3865084692186279
1.4447751786185268 13.11560787580825 478.02719603093516 52.73184479289223 0.39200569866351775
1.4674964595607778 13.11075983901711 434.52514598619786 54.806732275040986 0.3976420481851965
1.4900930090516131 13.104986761841747 395.2843559360144 56.969178345418726 0.4034197310953574
1.512534907296093 13.098364661424402 359.8777798886055 59.22302258013743 0.4093528573571981
1.5348114592077584 13.090679907636595 327.86589842732747 61.565122243820866 0.4154134732985976
1.5569137959407562 13.082090512049378 298.9456976917769 64.0065933876206 0.4216355976387887
1.5788112900782136 13.072534872863825 272.80564545159075 66.55319735354213 0.42802359243785826
1.600477005526864 13.061781442420184 249.13231210788788 69.20998628749523 0.43459068806036544
1.6219175068783922 13.050162610088423 227.70415511191834 71.98223729063183 0.44134788552139936
1.6430809825941117 13.037316363138599 208.28215992922816 74.87558658616716 0.44830072548721167
1.6639811947128902 13.023401418679574 190.65704366003595 77.89605696951209 0.4554525723416453
1.6845909031718145 13.008422308696368 174.6734831433189 81.05008748354857 0.462810834333891
1.7048488114459106 12.992028871013408 160.15138564907497 84.34447504291506 0.4703937150249623
1.7247899873128774 12.974549562066658 146.95140503880805 87.78653749361355 0.47821066320929556
1.7443632984823405 12.95589527035172 134.96790508867744 91.3841175484486 0.4862661242794744
1.763573410823708 12.936001735615234 124.0493433052037 95.14557266741338 0.4945701015359559
1.78236016344137 12.914814977261704 114.11782605346689 99.07981211230117 0.5031448754475811
1.800717480869896 12.892120124370667 105.05594307272122 103.19644056026519 0.51200324112337
1.8186445665851707 12.86831366893098 96.81065067783341 107.50576734666137 0.5211514238461843
1.8361076733538308 12.843136645420365 89.2862461906633 112.01880778457196 0.530607092811799
1.8530860490848649 12.816522787701198 82.41458096098577 116.74738691661263 0.5403949974023967
1.8695583732178296 12.78857767892649 76.14539668081284 121.70423991246395 0.5505297949884148
1.8855030667161157 12.759125117672065 70.40563305437354 126.90306706780578 0.5610240533434449
1.900913776198131 12.728353819320045 65.16346165005211 132.35858039153513 0.5719051857410679
1.9157787137041178 12.696298067272872 60.36956374843627 138.0866406587414 0.5832003203931295
1.9300247713862588 12.66255663780804 55.97920823671188 144.1043125981684 0.5949234808118666
1.9436808409350013 12.627396710065174 51.95428550609402 150.42489609766486 0.6070852872236183
1.9567501656253243 12.590923044485951 48.26749179006047 157.06467547314472 0.6197104022038203
1.9691157772745675 12.552719472860563 44.886445124328624 164.05216200190318 0.63284738096652
1.9808859820350826 12.513263231084904 41.78357941876094 171.4104640704288 0.6465232358579581
1.9919428622094442 12.47208411564315 38.931953917844204 179.16228291642764 0.6607757638553192
2.0023092782882324 12.42946366645384 36.31488069595157 187.31934079802912 0.6755901122692557
2.0119726394839677 12.385265405191205 33.904921874094235 195.92653371652966 0.6910481136048159
2.020903973000025 12.339671961033238 31.697394285039923 205.01499033639482 0.7072056396816733
2.029113234231596 12.292503420072778 29.658361609967518 214.59529263787607 0.7240292413872207
2.0365389084018366 12.243807592702908 27.78599782930688 224.72664622132186 0.7416310615566659
2.0432193378675687 12.193564595200698 26.056596583284765 235.4350340587821 0.7600355849259609
2.0491077512803986 12.141855509363092 24.467715880157414 246.76285572958506 0.779287189353373
2.0542033670236215 12.088627131359523 23.00270521379021 258.7596185298141 0.7994557130947835
2.0584798695126936 12.03396119433553 21.651970416717113 271.4665097794616 0.8205869513469154
2.061939109009395 11.977741925552328 20.406223532498373 284.94277618266193 0.8427475586233625
2.064566603410801 11.920018365383319 19.25607457735678 299.2458332653879 0.8660210853406243
2.0663751172195814 11.860924985152344 18.194745279668673 314.4306606578695 0.8904485368199676
2.0673087741155642 11.800299021270243 17.215861807695646 330.5797964817982 0.9161523553336571
2.067402496244377 11.738280725855464 16.31217606452451 347.75751223602737 0.9431948630623098
