M[M_sun], R[km], Lambda[1], P_c[MeV/fm^3], rho_c[fm^-3]
0.23835315348680472 16.224115897624433 2803846.7813616297 3.45143464264431 0.16959267850507953
0.24842205367705938 15.877474315578606 2297365.711791077 3.6347235931208033 0.17198392714514443
0.2587756022640065 15.5711936787644 1891473.4596121993 3.8248609445781576 0.17438306521279917
0.2694233352232397 15.299425699410616 1564107.7974297798 4.022076352037082 0.17679104275884047
0.2803558217138765 15.057678212243685 1298732.9052328817 4.226610295390298 0.17920881814132816
0.29157953625272687 14.842244498277948 1082498.849397059 4.438714379040353 0.18163735627319672
0.3030938529934441 14.649464358890473 905448.8995426913 4.658651648524743 0.184077627249971
0.314892499872571 14.477076397195317 760063.2770228575 4.886696924854177 0.18653060529998675
0.3269835253069049 14.322328872820112 640029.8753488966 5.123137157066614 0.18899726800577335
0.33935301609895246 14.183585319630568 540596.4620693431 5.368271793317448 0.19147859575156287
0.35202626027719675 14.058744342256217 457855.5274617874 5.622413170683704 0.1939755713580034
0.3649796044305727 13.946596610560979 388849.30756273604 5.885886923754946 0.19648917987107728
0.3782215312113386 13.845621807023209 331123.4280518534 6.159032412013685 0.19902040847786062
0.3917478673080621 13.754964340086612 282654.5762822537 6.442203165974847 0.20157024652705138
0.40556953800002543 13.673239034994193 241831.9928963291 6.735767352053812 0.20413968563713292
0.41967801335287946 13.599829780888546 207371.58003406948 7.040108256168382 0.20672971987960556
0.4340749876099961 13.533820266214684 178205.8718808822 7.355624786150173 0.20934134602887775
0.44875804508863265 13.474484151152586 153434.8995459402 7.682731993146007 0.21197556387418134
0.4637300210147433 13.421432780430225 132364.7467622245 8.021861612332543 0.21463337659227305
0.4789830458030651 13.373898428108603 114420.41018981766 8.373462623445349 0.2173157911826772
0.4945351308817993 13.331375218502174 99077.15383741111 8.737306624807905 0.22001396330189535
0.5103648528818957 13.293484214051665 85937.2478073348 9.11398535163492 0.22273119322316134
0.5264765144600683 13.25981700588677 74668.70863467034 9.504479816518746 0.22547553631614148
0.5428796675788595 13.23000964292674 64975.11215802388 9.90931260117365 0.22824807878945244
0.5595631497358772 13.203753224139092 56635.683210403775 10.329026966861738 0.23104991412131942
0.5765215576697068 13.180624523677002 49433.269643851534 10.764187590470865 0.23388214401867002
0.593764026257692 13.16052596565146 43211.25549421549 11.215381332782053 0.23674587949116752
0.6112848764092342 13.143076411910467 37825.11953992682 11.683218041961403 0.23964224205498436
0.6290760063616668 13.128025270181576 33153.08704868744 12.168331395825831 0.24257236508161528
0.6471386561341153 13.115253388513244 29098.918927349725 12.671379786989352 0.24553739530732488
0.6654694585032723 13.10452107710001 25572.667471136414 13.19129718692539 0.24851929807018466
0.6840677166326163 13.095639684244547 22501.76649154551 13.730266778457596 0.2515364934722614
0.7029224166996478 13.088439877199646 19822.723913730853 14.289197683257262 0.25459213953374005
0.7220443664355879 13.082738735567407 17482.905519163614 14.868859718987478 0.2576875150305746
0.7414169746920537 13.078446277557557 15326.988154521929 15.470053268274707 0.26082392218278205
0.7610303758334193 13.075384192444721 13644.891983642117 16.093610570006902 0.2640026893538975
0.7808932815021883 13.073441184253701 12075.993480940997 16.74039709852419 0.267225174013054
0.8009919135992082 13.072484298441735 10696.822762310636 17.41131304014962 0.2704927659745248
0.8213333180596468 13.07246981184475 9485.748409031008 18.107294877345012 0.27380689092899807
0.8418992090229019 13.073198145533016 8419.898993194502 18.82736276342581 0.27715177120488066
0.8626767406555033 13.074630760484395 7481.45870087452 19.574026562414428 0.28054306871538653
0.8836733902760389 13.076636758750604 6654.28665446607 20.348741661380913 0.28398594113705217
0.9048795631178921 13.079126784127578 5924.536768850333 21.15261667057368 0.2874820554969574
0.9262876068266559 13.082038787907361 5278.599426464465 21.98680722853416 0.29103313611476045
0.9478795632049568 13.085287670486817 4708.278853163278 22.852518505557082 0.2946409701067836
0.9696599419084329 13.088764505536506 4202.954159529708 23.75100790926113 0.29830741328472254
0.9916097171314503 13.092479352741679 3755.8496278897974 24.683588010218216 0.30203439646360486
1.013721547373247 13.096250665725952 3358.908937684706 25.651629706730276 0.3058239321942355
1.0359907817639094 13.100139183117134 3006.4404176862427 26.656565649044072 0.3096781219362915
1.058408218902662 13.103992449152145 2693.2588522645397 27.699575322344124 0.3135969239471946
1.080958649863176 13.10772816463929 2414.985913128987 28.780782671860166 0.31757287603103795
1.1036283877169935 13.111334398823276 2156.3870861334694 29.903652360550264 0.32162144857554553
1.126414911989559 13.114819510565136 1946.2318730154104 31.069920877728286 0.3257452287802908
1.1492978551706436 13.118008771472836 1749.3336687488502 32.2814091248116 0.3299469349913425
1.172261126880313 13.120854601982883 1573.740710193261 33.54002790005768 0.33422942705813596
1.1953045683501442 13.123399513734887 1416.8089760217536 34.847783827546586 0.33859571731931526
1.2184059802378078 13.125560879758572 1276.5762272004224 36.2067857649295 0.3430489822544314
1.241555748025701 13.127252729630888 1151.1834012639245 37.619251727026075 0.34759257484289846
1.264733006679312 13.12844567581062 1038.9138190710253 39.08751636519399 0.3522300376766682
1.2879372465670866 13.129128293237414 938.2763173875718 40.614039045555465 0.35696511687872595
1.3111417733718809 13.129191921090522 848.081334002694 42.20141257267804 0.3618017768857402
1.334331098617888 13.12866780160095 767.1607968445771 43.85237260923187 0.3667442161601037
1.3574937121928552 13.127466999382715 694.4969866296892 45.569807846511836 0.37179688390415994
1.3805986315418128 13.125533297791456 629.2543618427155 47.35677098558658 0.3769644978577167
1.403661283663742 13.122914423658214 570.5018680234173 49.21649059426788 0.38225206326903355
1.4266333718595567 13.119492695485095 517.7265769792695 51.15238391114593 0.38766489313939734
1.4495170067675585 13.1152349684199 470.120019336888 53.168070674674425 0.3932086298522421
1.4722788758598244 13.110124349949894 427.24184693659834 55.26738806279787 0.3988892683096356
1.4949162877168352 13.104127032888059 388.6328694971098 57.45440683695995 0.40471318071189233
1.5174049648825223 13.097187433395435 353.69765790825477 59.73344879361999 0.4106871431302382
1.5397123551662208 13.089351331944776 322.21067599168845 62.10910563673591 0.41681836403797207
1.5618394210774929 13.080436799623781 293.74535324592887 64.58625939614713 0.42311451498255165
1.5837483958490406 13.070539582570708 268.0088303996071 67.16563475813524 0.4295637787650523
1.60545612092163 13.059646837208014 244.71234322259315 69.85656427858173 0.436192530172096
1.6269012966819478 13.04764165935212 223.61955519645534 72.66491647465831 0.44301003535635164
1.6480715635902623 13.034482770555918 204.52452241440326 75.5969300795896 0.45002608433351615
1.668969349041388 13.020244647470907 187.18243286917385 78.65926228202606 0.4572511166707024
1.689557697108469 13.004805455975758 171.4623124237882 81.85902163769765 0.464696269376925
1.7098137205914345 12.988142942856545 157.19445199611616 85.2000434605175 0.4723581555433025
1.7297184534215928 12.970270939788756 144.22898826199452 88.68878227702074 0.48024341469256493
1.7492599199487946 12.951179771099019 132.44056648268807 92.33839328970511 0.4883841060831662
1.7684147405655384 12.930803324431329 121.72048009866043 96.15812033985166 0.49679458521709
1.787160609047437 12.909145686341098 111.96148419417247 100.1548999494827 0.5054788162220945
1.8054756424798704 12.886167462277102 103.06342779107223 104.33282318270929 0.5144289020766032
1.8233372706820086 12.861875009268374 94.96602909874638 108.71160242375628 0.5236948483717567
1.8407111571226424 12.836146439965516 87.57671240893823 113.30313314580674 0.5332943379069258
1.857623750587061 12.8091208979083 80.83554919393332 118.10582840626347 0.5431939261255327
1.8740056843854795 12.780669222524754 74.67831729834056 123.14728435619755 0.5534657497105261
1.8898634752986074 12.750804353761067 69.05305223614519 128.43618676270015 0.564109446373637
1.905142215431115 12.719515706906492 63.91220064182588 133.99026960157175 0.5874842584541882
1.9195195290828286 12.686899746251207 59.28355930783166 139.86126624965166 0.6478455561755445
1.932769862526762 12.652585868836013 55.13198180593348 146.0888657669466 0.7098589786376351
1.9448677398711498 12.616284412435784 51.39306738513904 152.6961672912544 0.773684353729221
1.9558003562295936 12.577898839004275 48.020261525156016 159.7095647475074 0.8395679739345362
1.9655898084911352 12.537320885853473 44.95965237158387 167.15703676775064 0.9077304488695851
1.9742431052430458 12.494529543705553 42.180454047735175 175.06871576096785 0.9783985633844152
1.981749388335946 12.449427237664104 39.648920579935655 183.47756085522292 1.0518242366713093
1.9881462964436305 12.402049069537615 37.33843503691185 192.41968061038162 1.1282840744199076
1.9934273950779553 12.352387932647467 35.22497510044987 201.93467604607298 1.2080797086990795
1.9976143691286241 12.300441409496754 33.28867198973506 212.06601126747316 1.2915388142417414
2.000710097244794 12.246252852124776 31.511179560426797 222.85952118672736 1.3789705390168734
2.0027382871955983 12.189867726787067 29.876207278337937 234.36778826350033 1.4707708023269823
2.003710229606934 12.131341967472181 28.37408343022474 246.64661640054132 1.5673220533440873
