M[M_sun], R[km], Lambda[1], P_c[MeV/fm^3], rho_c[fm^-3]
0.23835315348680472 16.224115897624433 2803846.7813616297 3.45143464264431 0.16959267850507953
0.2485723525075315 15.872593696059486 2290465.9748112275 3.6375469718551 0.17202055202356606
0.25909231078741235 15.562601974337156 1880575.9373984565 3.8307252931134297 0.1744567042693749
0.26990308694083487 15.288024072044884 1551049.824044432 4.031207402252821 0.17690205478178825
0.281016811181914 15.04424742898513 1284573.5123351214 4.239242373994454 0.1793575356429104
0.29242965325033027 14.827063856950437 1068103.6246073858 4.455090890640388 0.18182408957661442
0.30413898315566995 14.633234216538014 891315.9157537882 4.679025588679327 0.1843026684466078
0.31614709266275043 14.45997318202868 746361.4093433955 4.911331424320321 0.18679423209668441
0.3284485769471554 14.304961141780648 627168.9469090401 5.152306058742078 0.18929974748192469
0.34104458357640494 14.16601762306421 528550.016106384 5.402260263659232 0.19182018804548967
0.35394176415103906 14.041314286410202 446767.81267379853 5.661518347660974 0.19435653330143474
0.36713224672011524 13.929296117674829 378678.8945238472 5.930418603669426 0.19690976858966008
0.3806241051752022 13.828695552991205 321819.2117617795 6.20931377779409 0.1994808849746013
0.3944073081913596 13.738394022003042 274154.6209384154 6.498571559824587 0.2020708792644565
0.4084936704576456 13.657246199678273 234114.739113321 6.798575095606131 0.20468075413267348
0.42287730379631927 13.584381743223878 200399.98057778247 7.109723521579594 0.20731151832799166
0.4375551125863875 13.51908712129076 171899.72851521548 7.432432521843464 0.20996418696355504
0.45253180219305716 13.460523132692112 147760.35462401545 7.7671349082061685 0.21263978187948224
0.46780258120065654 13.408072384876442 127255.38070059389 8.114281223847614 0.2153393320767809
0.4833680756696535 13.361297853319904 109814.4936634303 8.474340371397602 0.21806387422363702
0.4992327237360048 13.31956081670475 94927.42405152855 8.84780026646725 0.22081445323789023
0.5153916659280827 13.282503978009466 82214.93603283555 9.235168517940226 0.223592122951947
0.5318383243664007 13.249678422406273 71326.73938972944 9.636973136641249 0.22639794686848239
0.5485763598623895 13.2206197583581 61968.77436334634 10.053183164859865 0.22922546017198855
0.5656073372042183 13.195110417437167 53932.10200487741 10.48418893097967 0.232074081579222
0.5829273210339294 13.172808519535879 47003.9046156248 10.931239021391272 0.23495372567700365
0.6005352668496851 13.153412176234811 41029.476403564884 11.394950594264602 0.23786556377156906
0.6184231768870403 13.136725659161945 35864.39489411828 11.875965672264714 0.2408107825382381
0.6365983367612237 13.122432041683364 31388.155665412014 12.37495211168753 0.24379058552593674
0.6550400553154188 13.110392305519753 27511.945644960924 12.892604623442626 0.246806194834162
0.6737684638571808 13.100297850050358 24146.825182201148 13.429645851199819 0.2498588529791083
0.692765517264463 13.092073362034723 21215.230065788288 13.98682751269768 0.2529498249657555
0.7120263383062199 13.085486844573614 18665.135964426026 14.564931610932037 0.2560804005826474
0.7315582410994216 13.080451977426495 16440.850333779228 15.164771722698271 0.25925189693589323
0.7513408766050383 13.076709817771349 14496.976084057535 15.785344521444435 0.2624474916952141
0.771383965538293 13.074232005771695 12798.776804344798 16.42922504707763 0.2656861802782336
0.791670776212659 13.072871125350929 11312.004447229458 17.09740714989282 0.26897016551634223
0.8122055955712187 13.07238289166386 10008.258633982472 17.79085114655404 0.2723009646814108
0.8329762057551581 13.072799092358819 8864.170669868656 18.510557575812243 0.2756801385382532
0.8539767019227246 13.073947646166918 7859.277488815129 19.257569175159816 0.2791092955556874
0.8751979400949006 13.075730846631295 6975.107818841721 20.032973008362074 0.2825900964691563
0.8966365074180088 13.07811785506366 6196.788220260174 20.8379027584251 0.28612425921079465
0.9182803794154615 13.080923841271462 5510.178341076911 21.673541201631387 0.28971356422277544
0.9401261852679872 13.084083989555301 4904.429587890617 22.54112287938911 0.29335986016989835
0.9621695201845634 13.08756267575704 4370.183666497719 23.441936985795127 0.29706507006769833
0.984387875707035 13.091251706199559 3896.4843795827874 24.37557779187761 0.30081793788705247
1.0067858323361913 13.095085716180986 3478.0695034349956 25.34499327621598 0.3046328694847392
1.0293442898351677 13.098981501744413 3107.1241021188707 26.3518958096009 0.3085138578929888
1.0520512297783675 13.102904940161615 2778.272533725825 27.397841540267404 0.312463248026224
1.0748992496281837 13.106722000109768 2486.297473915617 28.484460538973888 0.3164834957027963
1.0978720679168161 13.110473339573838 2227.11162535747 29.613461432223062 0.32057717671175207
1.1209662419723434 13.113970517524251 1986.961279219958 30.78663641426243 0.32474699646151567
1.1441704901220688 13.117291940339854 1791.5279914717773 32.00586666839394 0.3289958002409069
1.1674682936636858 13.120311258993889 1608.6632322086716 33.273128230289245 0.33332658412629446
1.1908369111464987 13.122931021729473 1445.7901093592156 34.59049832838288 0.3377425065725708
1.2142733143516564 13.125204282662507 1300.4482572569216 35.96016223903796 0.34224690073006486
1.2377649309349825 13.127016602919129 1170.7764968580536 37.38442069707417 0.34684328753448823
1.2612890763083837 13.128308549081337 1054.7770385599304 38.865697905466135 0.35153538962261544
1.284835371258388 13.12907111410392 951.0858546201682 40.40655019159363 0.3563271461326255
1.3083834878596 13.129229706903494 858.2838488091792 42.009675361403154 0.36122272845494074
1.331922710751624 13.128753340605225 775.2045139110094 43.67792280727268 0.3662265570070243
1.355434141922829 13.127629672854987 700.6633700527907 45.414304430313386 0.3713433191140007
1.3788975957067227 13.12574584269582 633.82498031646 47.2220064433482 0.3765779880861829
1.402300924864109 13.123102651694998 573.8053296791797 49.10440212694796 0.38193584359471144
1.425619908345776 13.119636914105401 519.9208548154268 51.06506561774784 0.3874224934575935
1.4488429671091525 13.115340453010813 471.4334707121953 53.1077868158923 0.39304389696057507
1.4719570953497136 13.11019936120476 427.8410995289134 55.236587506942435 0.3988063898505648
1.4949282032856865 13.104121882567963 388.5787201537763 57.45573880304302 0.4047167111539231
1.5177521453698282 13.097097547480956 353.18741965626157 59.76978001866293 0.41078203198788643
1.5403925935953484 13.08910412067313 321.29195072329367 62.183539107939765 0.417009986550953
1.5628349343624839 13.080043905036302 292.50426209787946 64.70020016813193 0.4233998267898581
1.585079433565721 13.069971804319785 266.52336476870926 67.323930536258 0.4299548105903316
1.6070775407839983 13.058779034563104 243.05213111371907 70.06313105850029 0.43669613927474854
1.6288178820894548 13.04648112479641 221.8158708965374 72.92397906693712 0.4436335656659722
1.650282569414925 13.033041516039857 202.61032292917056 75.91306898465169 0.45077749436648645
1.6714573819197727 13.018411268859621 185.2147364159497 79.03744540572097 0.45813903028208736
1.6923079110733894 13.002599875413523 169.46650827713782 82.30255635609169 0.46572146245040547
1.7128167539953527 12.985520102360935 155.1769928146419 85.71135621637958 0.473517127337859
1.7329656371505417 12.967196743155489 142.21072287278014 89.27868119531269 0.4815656104399037
1.752732912594147 12.947592709435005 130.4370997575052 93.01370712954886 0.4898812501155764
1.7720830022260505 12.92666184578316 119.74476805736428 96.92440340556529 0.49847214482542634
1.7910437673555686 12.904457062339654 110.02667816546024 101.01249165279177 0.5073211761185191
1.8095243593864134 12.880830754017216 101.18565461658048 105.29880324068033 0.5164833867495509
1.8275464992223036 12.855845741173011 93.13407986015781 109.79542938796018 0.5259774408590181
1.8450693734749457 12.829415100417693 85.79964903461013 114.50044471223104 0.5357683967378872
1.8620881531615596 12.801598020224677 79.11972437721916 119.44099524006879 0.5459275168115076
1.8785721995954254 12.772319414854728 73.02621500255998 124.62680804288568 0.5564588621934553
1.8944962682728232 12.741588976775802 67.46193518505132 130.06671013734385 0.5673616627449335
1.909850688501325 12.709370091808529 62.38246738486414 135.7889164212864 0.5787018321780351
1.9246118327588202 12.675661252019658 57.74244025315842 141.79243814194294 0.5904391418306212
1.9387461213208983 12.640421571250522 53.499564346838135 148.1157396860348 0.6026691052318157
1.9522461103988402 12.603686669906926 49.61323863603925 154.75792571831607 0.6153470000329245
1.9650795667113865 12.565347686080274 46.06003318259318 161.75908124219944 0.6285662454700106
1.977265496398922 12.525571700813385 42.80497722038319 169.12654027311922 0.6423043755798628
1.9887392451328443 12.484183299317552 39.81915733091286 176.89470941032064 0.6566270937838969
1.9994811289909489 12.441169216122868 37.08520039724398 185.08979208274874 0.671567781508816
2.0095193715838806 12.396643505403329 34.57250567534624 193.73030570718524 0.6871298605290574
2.0188039257654604 12.35054958376779 32.264049682422396 202.85821975051553 0.7033895780883477
2.0273218289588493 12.302862858244495 30.14845201535137 212.50575297930843 0.7203851054316084
2.035052753535048 12.253574345267879 28.20192557544206 222.70381205535466 0.7381444118509063
2.0420050882682697 12.202782159862286 26.412674772847872 233.49257103139854 0.7567192160711191
2.048127625260513 12.150347863501336 24.766053613442242 244.91834165548312 0.7761738845007874
2.053441827247956 12.096403546629345 23.25095217993808 257.0270866607872 0.7965635066226034
2.057921182441472 12.040889657242149 21.857281398376024 269.8691047773095 0.8179483338624304
2.0615307607176674 11.98380609449821 20.57443322984653 283.49947150485207 0.8403942163477199
2.0643004879271714 11.925218567432491 19.391258035871104 297.97853196336945 0.8639730966016618
2.066187660991204 11.865083678472832 18.30201473967708 313.37245259057755 0.8887635664688156
2.0672116310643682 11.803493075039686 17.297222017137113 329.7538394216391 0.9148514945508179
2.0673394014517323 11.740434993153873 16.37125163018244 347.20243180051597 0.9423307325488411
