M[M_sun], R[km], Lambda[1], P_c[MeV/fm^3], rho_c[fm^-3]
0.23835315348680472 16.224115897624433 2803846.7813616297 3.45143464264431 0.16959267850507953
0.24769889188625968 15.900787965426536 2329603.4620842547 3.6214337528098968 0.17181153129200682
0.2572980112842383 15.612202160098892 1943472.4372864412 3.79734204981824 0.17403750842402058
0.2671458169403196 15.354267009739548 1627769.7421967254 3.9793575383257767 0.1762716827930124
0.2772445067586122 15.123067164520341 1368058.1674022228 4.167687149390611 0.17851511575607254
0.2875932728951499 14.915400922325837 1153788.733071154 4.362546933145303 0.18076885636721915
0.2981899143493441 14.728378052434595 976166.2034022425 4.564162265170889 0.1830339408673623
0.30903017760545515 14.559812141288639 828346.7383789942 4.772768066082183 0.1853113923774446
0.32012955108949714 14.407568544873433 704949.3033610218 4.988609033664208 0.18760222074800798
0.33147024904918787 14.269892930774748 601556.1413105429 5.211939886765238 0.18990742252616857
0.3430653109669319 14.145388772844047 514589.6440701166 5.443025620052475 0.19222798100812244
0.3549079853584034 14.032503783334061 441271.13981749036 5.68129653735815 0.19454921207613943
0.36699679495972637 13.930399796230903 379341.5884700488 5.927558816342751 0.1968827587330938
0.3793350143825883 13.83774881952293 326759.00307997176 6.182318503218845 0.1992336623848401
0.3919249990289645 13.75376596081769 282069.69632000953 6.445881333292365 0.20160291396436938
0.4047636552612291 13.677734582090094 243992.6593535133 6.7185647725018285 0.20399149095107713
0.41785089267662506 13.608729982014571 211464.0813953727 7.000698333558579 0.20640035775349772
0.43118931276855954 13.546383939936431 183616.85735398508 7.29262389851977 0.2088304660845202
0.44476836702841704 13.489860567297452 159721.16162721516 7.594321524196166 0.2112769596501757
0.45861037782091146 13.438782714011472 139152.0761041767 7.9051292198116085 0.21372574326283142
0.4726919465140566 13.392727289343362 121446.13960923698 8.226697909081809 0.21619803700087953
0.4870189867083087 13.35116155548108 106145.63231821054 8.559419886101967 0.21869480169154154
0.5016024008948782 13.313805261921294 92926.3356512723 8.90370167999757 0.22121698696542513
0.5164234099925709 13.280295783183629 81468.90681863154 9.259964432994973 0.22376553178417216
0.5314964204548936 13.250304132133435 71531.45272960218 9.628644284232147 0.22634136500021151
0.5468119461153307 13.223507297837884 62882.94894519968 10.008262234950923 0.22892029086247667
0.562366985730203 13.199663564770125 55357.78876135307 10.400678966842133 0.23152286280491421
0.5781677169386252 13.178613374386401 48798.42756768796 10.806770551663487 0.23415530013544275
0.5942068262319055 13.160060755750868 43064.097675800826 11.227036300406422 0.23681855275345
0.6104897300317209 13.143792944060147 38052.07482750585 11.661992913904722 0.23951356383799438
0.6270046838396811 13.129653729006096 33661.04949982426 12.112174955033861 0.24224127086403985
0.6437552871840448 13.117472851946959 29811.566871503066 12.575526015842067 0.24497315441608608
0.6607403706958996 13.107090355793856 26430.91270050221 13.054804290601574 0.24773646498033464
0.6779542410749624 13.098347834331376 23459.625846748382 13.550880640502955 0.25053541396762335
0.6953918904744544 13.091094707246429 20845.08931498085 14.0643675900628 0.2533709815845573
0.7130635140097101 13.085209239714981 18538.652033750546 14.595898707891088 0.2562441487441836
0.7309456720915432 13.080563885592861 16504.113190883934 15.145663537360274 0.2591512013562473
0.7490496267506448 13.077113726798245 14708.444629154475 15.711857893624266 0.26206907761838577
0.7673653889891485 13.074631823651384 13120.25182616877 16.297998096542884 0.26502792684953247
0.7858927925102797 13.07314178880603 11635.57020006723 16.90481258217585 0.2680288029889926
0.8046225209926817 13.072459471152133 10467.681107281212 17.533055146689176 0.2710727707643043
0.8235575349557721 13.072564213099211 9363.645899376395 18.183505876134372 0.2741609084759315
0.8426885178982866 13.073238728901357 8381.684571869786 18.855775053919494 0.27728375280259115
0.862008733670078 13.074577564886408 7509.836368482536 19.549273111604013 0.2804309182812007
0.8815073725831786 13.076369941916095 6734.8698585723 20.26738462502206 0.283626305105066
0.9011933766311535 13.078621459402063 6044.432855277549 21.011012838560987 0.2868711223612069
0.9210479607088817 13.08127457366723 5429.106147063407 21.781093845502166 0.290166608707566
0.9410686672190937 13.084227279934204 4880.707469886996 22.578598085387082 0.29351403657687497
0.9612510629651342 13.087394445403724 4390.606412825387 23.403786500782566 0.29690893679360286
0.9815921791503265 13.090786504255867 3931.358005309525 24.255189664414473 0.3003340250948466
1.002076006518623 13.094248248924684 3561.4986741219996 25.1370958753074 0.3038160997745526
1.0226915276573711 13.097815486422562 3211.383386577003 26.050641442635886 0.30735665228180903
1.043446358103832 13.1014256400086 2898.140122386264 26.99700730610106 0.3109572313102717
1.064319746433706 13.104985784272603 2617.0522956122973 27.977421472091 0.3146194486951292
1.0852997810033844 13.108442010525843 2365.0863999918593 28.993161654852628 0.31834498562170216
1.1063897476312448 13.111806268129213 2138.7869293564545 30.04443490321974 0.322128064165049
1.1275763426395866 13.11495603906142 1935.6637841003298 31.131041811365012 0.3259606055452691
1.1488392733524997 13.117931820130845 1753.1083941460633 32.25716599066068 0.3298632510188244
1.1701885468132847 13.120633381473228 1588.7828374524931 33.42433007253195 0.33383805540188155
1.1916019759382004 13.123046068580907 1440.8075988725843 34.63412381126433 0.3378871774963009
1.2130654050897043 13.125118637538586 1307.6096210510161 35.88820829215482 0.34201288845896627
1.2345691977827162 13.126816830276576 1187.4955494028284 37.18832047280778 0.3462175805772378
1.2561125474574877 13.128078466809484 1079.2063080433406 38.536278080483044 0.3505037764707089
1.2776657523708599 13.12889140542848 981.4607212396331 39.93398488984935 0.35487413874269397
1.2992382642867812 13.129261240134129 893.1378917960765 41.383170987753005 0.3593299845313455
1.3207965877366221 13.129071874871082 813.361615562438 42.88379624891537 0.3638625828936149
1.3423439069837413 13.128341097724716 741.1770513332397 44.44064188783368 0.36848983566281274
1.3638638309637428 13.127032025481995 675.8514599927007 46.05603746423168 0.3732150947700155
1.3853384809345743 13.125116635401296 616.6835553561311 47.73243219691442 0.3780419083289932
1.406742946591668 13.122497675237282 563.1462487551108 49.47240315133633 0.3829740339354729
1.4280977688328904 13.119226395206057 514.5053433030513 51.27866404236946 0.38801545271214544
1.4493610438823372 13.115273210738554 470.4525131880051 53.15407469723329 0.39317038416123684
1.4705208634699767 13.110540699748999 430.42665801453865 55.10165122754362 0.3984433018932629
1.4915766744154526 13.105075895217302 394.0614195784749 57.12457696388263 0.4038389503079046
1.5125045546474039 13.098819708483964 361.0367979440093 59.22621421121891 0.40936236231079604
1.5332901879981533 13.091723729372761 330.96587027919605 61.41011688897589 0.4150188781585035
1.5539040678034617 13.08375223915496 303.65890985995924 63.680044125606344 0.42081416553313883
1.5743570232780715 13.074962077795364 278.759714416499 66.0399748842267 0.4267542409579315
1.5946270658452322 13.065240920653302 256.0680859641967 68.49412370327259 0.43284549267581446
1.6146892511933784 13.054619623612746 235.40587361402592 71.04695764432546 0.43909470512472915
1.6345270145959188 13.043048659024855 216.54070529202554 73.70321454829883 0.4455090851560181
1.6541146539371414 13.030452290480447 199.34840976103774 76.46792271116132 0.4520962901561044
1.673473985878007 13.016960549673493 183.6445101751972 79.34642210140242 0.4588644582467621
1.6925485435069703 13.002391273018826 169.28750523353995 82.34171370150378 0.4658112422251338
1.7113338997224168 12.98681791180999 156.16085326531288 85.46023533327713 0.47294792186194795
1.7298363571061328 12.970160664955108 144.15531824800158 88.70997836295572 0.48029092346705904
1.748013913230843 12.952449744321775 133.16803184527072 92.09773809265823 0.4878505830441439
1.7658569118371144 12.933644674370132 123.10281600210378 95.63075378124276 0.49563790024928356
1.7833442884565243 12.913721247634937 113.89148347005629 99.31674225714114 0.5036645852616755
1.8004641081543742 12.89266127454671 105.4396588489336 103.1637868735713 0.511942549320742
1.8172014850632827 12.870455014840445 97.68740659047835 107.171903113093 0.5204521664721207
1.8335176257039398 12.847022720903713 90.57637100673684 111.35845712445739 0.529238371780868
1.8494458972894066 12.822498061828696 84.04479727098959 115.73341948625684 0.5383161480614138
1.8649315427531061 12.796732971590494 78.0366015888443 120.30745067033088 0.5477014782626218
1.8799582514605704 12.769745285721608 72.52683156084268 125.08113293776049 0.5573725479466493
1.8945215224465506 12.74155146083318 67.45265677486002 130.07491565307734 0.5673780221753438
1.9086062051328818 12.712099150831417 62.787211065290066 135.30327866922568 0.5777425265331201
1.922183948013011 12.681375755591983 58.486755947462015 140.76991627337316 0.5884509258060774
1.9352502035314494 12.649429768090545 54.527897910821004 146.49411598946764 0.5995412011865879
1.94778969827701 12.616174376778694 50.876828476452424 152.49616737623128 0.6110519857323214
1.9597728400274774 12.581602309950693 47.51260032382944 158.77600680055602 0.6229498004255789
1.9712068679536419 12.545791710351425 44.409745961402464 165.3681792690622 0.6353172955053946
1.982073063177441 12.508703228326668 41.54431383632255 172.2780543051133 0.6481348502916796
1.9923301622867997 12.470202076194827 38.895104333647666 179.5342400948928 0.6614587164444161
2.0020102130744157 12.430497359370646 36.44995495039907 187.14998485560045 0.6752903296777563
2.0110582268501074 12.389409037281693 34.19225334507519 195.15613899987525 0.6896865475710272
2.0194681725142525 12.347006297633909 32.10008775967637 203.56580750119238 0.7046416905626013
2.0272456454100753 12.303280973183638 30.16601710060069 212.41808207285817 0.7202319479182151
2.034371158732897 12.258241356381735 28.37646225816414 221.72821108831712 0.736450763602923
2.0408316101624475 12.211894500299977 26.718883290753528 231.5339546154098 0.753360709287468
2.0466116496625073 12.16421512462522 25.18485611323841 241.8700454539721 0.7710092821752262
2.05170748344964 12.115231799652134 23.76144813953458 252.76354287654706 0.7894133859080865
2.0560967906541974 12.064926150032983 22.44270735310806 264.2558827140063 0.8086305674346743
2.059781748672603 12.013336487800148 21.221381925683414 276.3909363972861 0.8287196054692857
2.0627521468228256 11.960441495196767 20.086328368322018 289.2123178809138 0.8497310205325463
2.065004626520518 11.906276454793248 19.03596399805782 302.76754052456846 0.8717198306277378
2.066513478163808 11.850852048068537 18.05892529481032 317.1083864805502 0.894745895385655
2.067282515321194 11.794157170286041 17.154178806641216 332.29083933998095 0.918872718676549
2.0673178536704326 11.736278109279462 16.313836851482595 348.37731264899617 0.9441737450774419
