M[M_sun], R[km], Lambda[1], P_c[MeV/fm^3], rho_c[fm^-3]
0.23835315348680472 16.224115897624433 2803846.7813616297 3.45143464264431 0.16959267850507953
0.2463413779905276 15.944767461343273 2391851.8914980204 3.5963728783065165 0.17148644154379972
0.25450497321067156 15.692015996657167 2046779.5086146325 3.745829475765819 0.17339066123678537
0.2628572137006648 15.462310518520384 1756560.8402270628 3.899965298732839 0.17530646051131096
0.27139260262371695 15.253295809657581 1511591.1644526946 4.058947254544321 0.17723492062820684
0.28011008748640537 15.062837535302577 1304097.6430001217 4.221866327119894 0.1791529673877928
0.28900976287471414 14.88898812830431 1127762.5975694724 4.389459433045954 0.18107572636080593
0.29809272735568676 14.729997976918142 977544.5532813203 4.562316480025875 0.18301355317138318
0.30735556957054383 14.584482579828693 849265.759838144 4.7406271458711515 0.18496743540564597
0.3168048635684523 14.45119179727894 739330.1816566624 4.924354856669511 0.18693360272838505
0.32643372152804745 14.328986363471222 644913.1202256541 5.112212854752788 0.18888398375263382
0.3362458463240619 14.216831711368734 563685.89793193 5.3060040653864675 0.1908527901237231
0.34623866425641486 14.113808457003072 493539.7431409154 5.505942574077577 0.19284091686298677
0.35641956262849145 14.019130442557287 432854.67942122405 5.712249506278163 0.19484922514547884
0.3667751975993922 13.932055415165545 380345.5946457872 5.922989888841384 0.19683960654645302
0.37731464766813083 13.852165488240887 330061.09320398927 6.1402496605318 0.1988483961335798
0.38804174833071875 13.778645307312434 295012.1747034296 6.364444028306355 0.20087963309476145
0.3989474658566365 13.71107226239667 260414.8382620032 6.595820981172866 0.20293409269482574
0.4100408641434001 13.648989241856839 230197.34450929193 6.831945302552578 0.20496822772505546
0.4213121084221496 13.591917913695976 203771.6066945787 7.0755622129146625 0.20702602065361383
0.43276562631171167 13.539433836526998 180616.29208291738 7.3270031562301785 0.2091092506211633
0.44439860000723364 13.491322110739722 160307.91788947154 7.585905963681839 0.21120871710234812
0.45622215168657115 13.447253554586005 142457.7854600394 7.8506349745531185 0.21329689481772532
0.4682242468220393 13.40674893745126 126747.91456669396 8.123889441107982 0.21541272530534034
0.4804066110513228 13.36976409118702 112900.03005308818 8.405969050195019 0.21755685035645198
0.49276847144425645 13.33589062493032 100684.2532482458 8.695193857459019 0.21970166601432606
0.505314831658907 13.30503057925967 89885.43473927255 8.992185474093537 0.22185413921640645
0.5180419542869642 13.276900478923837 80324.5440529537 9.298792657244388 0.22403707477863724
0.5309420255285384 13.25129786017412 71866.57219610705 9.615324714090855 0.22625072385020334
0.5440261284832858 13.22809491258015 64357.89641636761 9.938168408955024 0.22844411005937273
0.5572905286954417 13.20708744269217 57690.94329738009 10.27148997418233 0.2306701334459276
0.5707340979059126 13.188203331109854 51760.32850444645 10.615648471316064 0.2329293129369228
0.5843524549635806 13.171132225116308 46482.30370045403 10.968750150075259 0.23519434760558985
0.5981478070231122 13.155871069140819 41781.31453184984 11.33118990160714 0.2374679910206057
0.6121126123316545 13.142328749837398 37590.603846648344 11.705434982474456 0.23977693317602533
0.626253707447512 13.130219545983456 33849.46471562459 12.091549487948278 0.24211776834016016
0.6405662322567354 13.119655707073138 30504.028053004862 12.485751146697961 0.24444384843376224
0.6550523782431285 13.11036897777805 27510.479265375903 12.892813679315388 0.2468073938405516
0.6697075749306988 13.102292652188652 24830.998906115088 13.313164542994672 0.24920881919362653
0.6845190716656827 13.095434334552191 22431.438163846426 13.74384812156264 0.25161228530535923
0.6995148260709553 13.089593173022369 20126.483216170236 14.186733404221277 0.2540356078565333
0.7146617731693536 13.08476154461231 18344.59319350316 14.644090841548357 0.2564989796473619
0.7299708519831407 13.0808175068567 16608.631056918846 15.115069829700719 0.25898942760682375
0.7454401146851148 13.077683346367293 14940.15467085737 15.597089065656592 0.26147808383662813
0.7610698904577367 13.075378913332793 13641.944118933816 16.0948720557426 0.2640090171494257
0.7768526794938707 13.07377816440415 12377.766810433957 16.608926445828924 0.26658257257646834
0.7927848666454825 13.072787225667689 11161.310825997736 17.13484102185655 0.2691531345623438
0.8088693655025211 13.072406064930904 10207.932772096026 17.676822684379395 0.2717577093023773
0.825095109394136 13.07257321144036 9279.994374921642 18.236526633760096 0.2744072020405007
0.8414742950201257 13.073177545710632 8440.252213129515 18.81215389217808 0.27708112251405814
0.8579848768576891 13.074275139643794 7682.873866914369 19.402506293224036 0.27976596200777254
0.8746323185208807 13.075700614291573 6996.87960895094 20.0121693788878 0.28249813472755547
0.8914144473500977 13.077465405611914 6376.418650025521 20.641748691836614 0.28527797548183187
0.9083223793874426 13.079586758755786 5814.480091212576 21.28590545393876 0.2880571143299295
0.9253575608153576 13.081875261569461 5305.279422668773 21.950306284257312 0.2908793830232591
0.9425159275984322 13.084441473633882 4842.86663137304 22.636417477379357 0.2937519108159499
0.9597947760814737 13.087159262550314 4424.039793050029 23.342621088441067 0.29665729672238966
0.97717284418051 13.090031557939373 4043.3849817601254 24.067073035427544 0.29957787043814016
0.9946741722517074 13.092999866334322 3697.605992093267 24.815211979554647 0.3025515095723724
1.0122691827584525 13.096011386036757 3383.4270625654785 25.587770311277552 0.3055786296896148
1.0299677827693583 13.099074451084885 3097.3001450140496 26.38053622839308 0.3086238740685774
1.047755796361559 13.10217645989989 2837.2863898882038 27.196838124253564 0.3117080368224955
1.0656361809128918 13.105217932946408 2600.511121880356 28.039814031399963 0.3148488248341229
1.0835925557196189 13.108146639031796 2384.46843455749 28.9102873795162 0.3180467568849702
1.1016313407878728 13.111043155635764 2187.7103877644568 29.80232242091881 0.3212568058710786
1.1197382177229 13.113839284937999 2008.2077375006634 30.72284067264083 0.3245221942598425
1.1379125154937981 13.116449668674502 1844.3480694746934 31.67344688570428 0.3278483327647183
1.1561408886767193 13.11888126694647 1694.8471026446052 32.65507572687454 0.33123589463724784
1.1744318447328062 13.121152195141386 1558.1581007810662 33.66145664067107 0.33464018470455914
1.192747354132072 13.123116550322639 1433.3510726084887 34.70052335788034 0.3381073718210331
1.2111201460557908 13.124896507066309 1319.0267798476807 35.7736140675084 0.3416401993164534
1.2295212109799478 13.12642793698343 1214.5929637322733 36.88180142645395 0.3452395546695629
1.2479560372078442 13.127647065182813 1118.9326798178424 38.02048315082941 0.3488728043494197
1.266395614931011 13.128501032561882 1031.2550560529057 39.19483762614897 0.3525661255981709
1.2848532192329813 13.129069810200814 951.0399089354952 40.40779756565978 0.3563309814623237
1.303316364578194 13.129274830042819 877.3973307453955 41.66060862990351 0.3601685431886838
1.3217649078671 13.129034723091374 809.8987444249518 42.95305655830219 0.3640717497694679
1.3402104138967044 13.128445311791348 748.0405219960433 44.28241055475356 0.3680203028977824
1.35862461708504 13.127411827605014 691.1197623196924 45.65575599616626 0.37204757328073823
1.377018103267469 13.125902657326218 638.911496746866 47.074556933669456 0.3761550973513345
1.3953787179882975 13.123986428318952 590.9590730574721 48.540337183169385 0.3803445252630128
1.4136770550196025 13.121525982435681 546.8414306648958 50.05429883748175 0.38461565567196404
1.4319346129582997 13.118582384014193 506.25102930325664 51.612445582332676 0.38894204593712073
1.4501214845137658 13.115110649544782 468.9239567754627 53.22271947765647 0.3933579642764684
1.4682384061842826 13.111098876758783 434.5440738715774 54.88693811180086 0.39786554958714987
1.4862699346405837 13.106519883576324 402.9309190650829 56.60700068901966 0.40246708877321025
1.5042233760291943 13.101401289169537 373.75766439232376 58.384893281750784 0.40716502429594964
1.5220682279099624 13.095636649038736 346.8680988958136 60.22269442003692 0.4119619620455234
1.5398039522680467 13.089310728428648 322.08818753195357 62.11885339148187 0.4168434587867475
1.5574177779416734 13.082313176519794 299.2157668362476 64.078210895328 0.4218248776004351
1.5749148169943554 13.074716789498959 278.12767817356155 66.10460789348204 0.42691606359823575
1.5922493900288537 13.06640553717891 258.63431212368283 68.20057053214079 0.432120339840499
1.6094549595685494 13.05748337734651 240.63177531089778 70.3687512275713 0.43744124020123365
1.6265069267541505 13.047869248267771 223.9856039459526 72.61193677894053 0.4428825200490125
1.6433800125573523 13.037502904029491 208.59950236883043 74.93305700284343 0.4484481675301794
1.6600711679715956 13.02646900377469 194.37870438030453 77.33519392556009 0.45414241550862017
1.676580798418181 13.014681099054188 181.23124317062755 79.82159157238509 0.45996975422062314
1.692892346616176 13.00214125335289 169.0386779368905 82.39566639697327 0.4659349447078803
1.708991490226049 12.98886807447547 157.74639851855187 85.0610183975523 0.4720430330964912
1.7248517338736178 12.974748304917492 147.30172240222583 87.82144297111851 0.478299365795028
1.7404958100443546 12.95988974321331 137.61454562826418 90.68038002666313 0.48470736943689857
1.7559223386396146 12.944287291355408 128.62632735797294 93.64273139372432 0.49127577199235223
1.7710853029719804 12.927833514833175 120.29007218144413 96.71332462884305 0.4980123273068274
1.7859719610311262 12.910553803941397 112.55355774190103 99.89689075199597 0.5049237657919455
1.8006122627037155 12.892469376918413 105.37107124177375 103.19783909335465 0.512014972931403
1.8149492417438162 12.873510012972675 98.70435099078908 106.62105185611625 0.5192920468383586
1.8290073836411123 12.853709949845461 92.50617757522338 110.17255509008224 0.5267647067405095
1.8427545888454697 12.833038856490413 86.7398604598586 113.85824362574195 0.5344413877004431
1.856190499525896 12.811501420940795 81.38394747915916 117.6843586705903 0.5423310184238991
1.8693019928043997 12.789071560737291 76.40345083598059 121.65751110641229 0.5504430511626872
1.8820811146631709 12.765775898773706 71.77681888233406 125.78470650386275 0.5587874938387265
1.8945061630543802 12.741518781728411 67.45906288440146 130.07337199870457 0.5673749445739951
1.906582278793606 12.716373645280049 63.43750942854891 134.5313851873547 0.576216628827264
1.9183064412335944 12.69032990520244 59.69231300822545 139.16710521398284 0.5853244393561846
1.9296632573532777 12.663388616962639 56.20189806357291 143.98873065449632 0.5947086343335625
1.9406200406459715 12.635491039211074 52.94518063757201 148.99919292173126 0.6043602498514533
1.951185404838875 12.606651100766287 49.912024300609 154.21487638144032 0.6143157648985537
1.9613598711408353 12.576888955460836 47.079564128710395 159.64639275435488 0.6245901203995834
1.9711013783135556 12.54610957757724 44.43629469092109 165.30502861637535 0.6351991681470123
1.9804422548080407 12.514473186479426 41.967482983731806 171.1980747943552 0.6461438793629656
1.9893510273115125 12.481836805393288 39.661718336131685 177.33613811399215 0.6574351226278612
1.99781241840921 12.44821129902522 37.50819963890422 183.73877730993647 0.6691119808014937
2.0058308732247827 12.413645915461048 35.49287055007038 190.4204601126098 0.68119449687539
2.0133871690267884 12.378061691020259 33.61091274667927 197.38678072608678 0.6936657902888553
