M[M_sun], R[km], Lambda[1], P_c[MeV/fm^3], rho_c[fm^-3]
0.23835315348680472 16.224115897624433 2803846.7813616297 3.45143464264431 0.16959267850507953
0.24684252319897615 15.928327479930513 2368421.8356907116 3.6056347814019856 0.17160658698185371
0.25553884251515724 15.662113097103273 2007813.6236778633 3.7648095347117905 0.17362899523520423
0.264441640256576 15.42164953892686 1707490.1232585686 3.9291308497044444 0.1756610447855452
0.2735491460970209 15.204159815953023 1456500.0424739616 4.098777703187962 0.17770384462676664
0.28286831025959674 15.006819402998449 1245898.0036843957 4.27393622399074 0.17975847205322512
0.2923897230490874 14.827702000820397 1068656.178160107 4.4542886598097775 0.1818149421332051
0.30211803636845025 14.664777121696865 919046.2444605601 4.639712093195632 0.18386842961010885
0.31205420588842125 14.516411697588323 792191.4967388909 4.831131344013964 0.18593596865621478
0.32219386892315577 14.381218242906094 684539.9287923625 5.028759718045066 0.18801858054495074
0.3325355661966966 14.257818270827434 592801.4400341492 5.232818366108066 0.19011725626039377
0.3430903239387395 14.145111659760433 514395.3972357222 5.443536452997381 0.1922329575336493
0.3538473243243381 14.042024861261314 447265.00772386196 5.659598274738704 0.1943378279849386
0.36481251161736794 13.947974823360282 389667.4006321421 5.882442032444861 0.19645664387817183
0.3759827937728637 13.861908540040377 340100.73451089085 6.11254833594095 0.19859470754130132
0.3873568514836806 13.783138011457885 297355.07912095357 6.350177280497856 0.2007529237720109
0.3989363947251697 13.711114803701552 260423.16374808253 6.595597843631336 0.202932170436724
0.41072785074345486 13.645306392380839 228459.2129846794 6.846868774627303 0.20509678863374323
0.42271635870410285 13.585097304442922 200729.43420523193 7.106298030160757 0.2072828903312345
0.43492228412167416 13.530141899809044 176627.2255686727 7.374234758265897 0.20949225599025406
0.44732854857809473 13.479997478772217 155646.3125946541 7.650982633654056 0.21172570880440925
0.45993526810662594 13.434168724694786 137359.67625610568 7.93565086058556 0.21396593666538077
0.4727554224079761 13.392529833528899 121357.38678944498 8.228154404011287 0.21620916256791844
0.48577283402443405 13.354661731329623 107388.05467024478 8.530285693124181 0.21847875012297313
0.4990015524412709 13.320214686029782 95138.35838378777 8.842386553479788 0.22077547028681574
0.5124333838663305 13.288916585754205 84377.16159575459 9.164367135956402 0.22309398132031358
0.5260624724892696 13.26065086557837 74933.82930868358 9.49423479946383 0.22540388836769124
0.5398965571133982 13.235138363862227 66623.54429550706 9.835001849001857 0.22774325039485901
0.5539394885937171 13.21220185191061 59296.52641280589 10.187052135793527 0.2301127901125594
0.5681777615060808 13.191562173947005 52825.6432925152 10.550781020976492 0.23251320892857177
0.5826167316183596 13.17318096421162 47117.80231953953 10.922984646858493 0.23490077649661287
0.5972534494254426 13.156838224364796 42073.536632873744 11.307458893385908 0.2373200189420661
0.6120846175183104 13.142341261764026 37596.82773783938 11.704704243843683 0.23977250304284345
0.627113960324286 13.129565838804618 33634.518574108595 12.115163440439094 0.24225889075274765
0.6423407881089715 13.118428355249215 30116.987573308685 12.535531566327561 0.24473735010258943
0.6577582252310853 13.108779300953952 26990.552366195418 12.969504439735108 0.24724724138250634
0.6733627557455695 13.100514474128742 24213.19918467396 13.417932805495983 0.2497934873375671
0.6891568322056424 13.093495009484183 21739.04693221998 13.881312060072371 0.25237672093015134
0.7051367744917983 13.08767092835099 19533.69436503166 14.356109892268544 0.2549555712023861
0.7213047140407859 13.082976971866579 17567.52286234994 14.846200403106959 0.2575676968467129
0.7376492917798826 13.07919124046837 15811.255465604749 15.352654157065555 0.26021938394764366
0.75417593920569 13.076296355486429 14241.919425672173 15.876025636122096 0.262911251747676
0.7708704498284891 13.074314798240623 12839.807977784634 16.41257472804896 0.26560265986154385
0.7877504445773832 13.073046156929893 11583.165476329372 16.966360404550358 0.26832963605147275
0.8047897845342088 13.072432909699868 10457.585980239723 17.538673482046217 0.27109953768587564
0.821999843750293 13.072497876789347 9448.214146949706 18.130135657720427 0.27391299158595045
0.8393731556947063 13.073058612806507 8542.618973453453 18.73703142752782 0.27673216145755
0.8569042566384079 13.074151151313101 7681.689265742663 19.36321022116808 0.27958792333443266
0.8745849537446242 13.075676926889022 6998.673052583337 20.01037856429329 0.2824902184921121
0.8924128790522236 13.077567534193369 6341.628674972888 20.679235935524357 0.2854397098008208
0.9103998125446199 13.07985870881182 5749.77283355487 21.3666151335025 0.28840532678237835
0.9285113071198741 13.082351323893649 5216.757260351432 22.075208523071375 0.29140550928474546
0.9467717612141894 13.085094231124547 4735.557965554248 22.80760483211001 0.29445619116796823
0.9651545297474398 13.088015633836362 4302.3178752625145 23.5645952855584 0.2975581080572114
0.9836719315221382 13.091106830077598 3910.9298510943117 24.344465981929417 0.3006928806813307
1.0023012004626741 13.094303228220523 3557.4857260252616 25.147076688337222 0.3038553115479089
1.0210490982118463 13.097533255544233 3237.9912597271386 25.97672380198414 0.30707271313301227
1.0399037931359685 13.100798830126688 2948.9787324612257 26.83430887251885 0.31034593980932573
1.0588564793800068 13.104061067246874 2687.409826870467 27.720762088030998 0.31367588203903707
1.0779112403384208 13.107231644194208 2450.640362921478 28.631100854726487 0.31702259507330915
1.0970441048667945 13.110305718440651 2235.937732912585 29.572022120770264 0.32042805452087386
1.116268540142613 13.113319199971315 2041.2486167220356 30.544759632052212 0.32389467572987524
1.1355672846571438 13.11609562087192 1864.576012223074 31.55038552640037 0.32742354183851574
1.1549285378852885 13.118723844583533 1704.3573201513898 32.588787412031685 0.3310079626612898
1.1743610137427878 13.121149933601565 1558.692046812435 33.65745743522805 0.33462665657104607
1.1938283601112252 13.123282225118231 1426.3282140891286 34.76248129278478 0.338312836863091
1.2133490481829736 13.125126750368166 1305.9265365060655 35.90510813607373 0.3420678509874721
1.232909115154308 13.1266916704734 1196.3754180740166 37.08663467176075 0.3458931265211206
1.2524867899366465 13.127903708252159 1096.5934201916743 38.30840806596041 0.34979017733040596
1.2720851083469724 13.128720997430962 1005.7935401591561 39.56654066081239 0.3537301531098182
1.2916972645020883 13.129187265106356 922.9810058128312 40.8673648262303 0.3577440234764429
1.3113067746342244 13.129190738089076 847.5016104773921 42.212907401860264 0.36183649139293483
1.3309007572564062 13.128783649389517 778.5933603818082 43.60476607605618 0.3660094730602482
1.3504862377355051 13.1278938255143 715.6983177072194 45.044607345548414 0.3702650046642402
1.3700300020143306 13.126497159206654 658.2004595423464 46.53417095755762 0.37460525006437095
1.3895573337110385 13.124602137687438 605.7027808998967 48.072158219206536 0.3790162553276862
1.4090242256112748 13.122182767221625 555.5703906086088 49.66190015423934 0.38350863559410725
1.4284324195551745 13.119207713571848 513.7989964458915 51.307259196877915 0.38809483420351726
1.4477600873398622 13.115579084489307 473.60867171971285 53.01033552450515 0.3927775995909109
1.4670186903846112 13.111360648164046 436.79976587517604 54.773330045303275 0.3975598518090474
1.4861759547113969 13.106521604652936 403.1004266737462 56.59855103856575 0.40244469255645476
1.5052489033629748 13.10104826625727 372.1435786561471 58.4884212487213 0.40743541568817127
1.524205018488799 13.094942870380558 343.7822196344441 60.445485462544454 0.41253551825275725
1.54302321443671 13.088080235698458 317.7815878931462 62.47241860167686 0.4177487121035025
1.5617141201735136 13.080491791383041 293.8911949562012 64.57177007273626 0.42307773508243957
1.580251848788221 13.072238402075694 271.97332608313803 66.74465896676494 0.4285185691260076
1.5986258529571629 13.063145551132251 251.80864208448392 68.99666049443618 0.43408688951563595
1.616841852067854 13.053373055184714 233.27281707536977 71.3310819169188 0.4397873991291521
1.6348732045455208 13.042835596055157 216.21904569961094 73.75141055176181 0.44562508673192064
1.6527028189132682 13.031456463074715 200.54903198620784 76.26132586659963 0.4516052435329336
1.6703260611942092 13.01925122124674 186.11179771054367 78.86471241923842 0.45773348080030574
1.6877274335178232 13.006202148081298 172.8150993844578 81.56567370952199 0.4640157486306194
1.7048846602719134 12.992272196366208 160.56171039431692 84.36854701449097 0.47045835597446733
1.721823605290462 12.977571126693755 149.2486640712746 87.27791928505276 0.4770679920291279
1.738484348176037 12.961919035545112 138.83191194196746 90.29864418971779 0.4838517491186288
1.7548888832849094 12.945400322413692 129.20549776946663 93.4358603989854 0.49081714719158726
1.77100187660057 12.927947169730269 120.32655831141287 96.6950112127718 0.49797216007829725
1.7868112012687514 12.9095567211283 112.1310502412012 100.07989575756208 0.5053176850978951
1.8023304801171691 12.890230028317914 104.55101676402118 103.59675309409948 0.5128633990387451
1.8175168035627445 12.869942378903964 97.53956245794362 107.2532738657407 0.520623537248832
1.8323754322513968 12.848720069441496 91.06003931663754 111.05631724972329 0.5286081402577204
1.8469015739118941 12.826538004024737 85.06237367266476 115.01316810309875 0.536827860179642
1.8610467300428533 12.803309971988963 79.51291655918808 119.1315672642028 0.5452940009006932
1.874861111600633 12.779145211557386 74.36836238707026 123.41974423360936 0.5540185614058064
1.8882611019346405 12.75392058835071 69.60530610797456 127.88645244611251 0.5630142825221776
1.9012712139600518 12.727664474879884 65.18954720872003 132.532878663233 0.5722659327896397
1.9138872083800658 12.700400520130483 61.09203256716814 137.3758463850133 0.5818128524359082
1.9260790380715274 12.672114683757645 57.29026543474913 142.42624503330396 0.5916715311384732
1.9378487438338348 12.642772775079294 53.7617932608788 147.6952920746418 0.6018581157357529
1.9491647656712643 12.612343213354697 50.48718851866385 153.1878607010108 0.6123654915416208
1.9600373623653444 12.580856330168976 47.443330027028054 158.91836805853032 0.6232180929157788
1.9704513284458784 12.548323465905359 44.6134416738313 164.9048243325924 0.6344505602887375
1.9803809512761448 12.514678421924541 41.982581625991926 171.15737258734094 0.6460688437626669
1.9898220053743247 12.479955584451313 39.5375253677394 177.68518145195617 0.6580740413989394
1.9987892113819206 12.44419927265566 37.26234324358549 184.51432832030594 0.6705217349789889
2.007225358356163 12.407286907201515 35.14430274660352 191.65276603435805 0.6834045871833395
2.0151527563905676 12.369296811992802 33.171796377146 199.12098148807317 0.6967547612269192
2.0225571313030346 12.330230600663308 31.334285517987492 206.94190434124462 0.7106096013967713
2.0294385951629437 12.29011693220974 29.621061364448003 215.12585765976522 0.7249623219101075
2.0357577035429406 12.248838551646404 28.025187560376608 223.70736451625766 0.7398824313290321
2.041535490667175 12.206475613170928 26.53648250976622 232.6952095318006 0.7553519529441683
2.0467520379735333 12.163058409629446 25.14830585193149 242.12775392409014 0.7714459069899108
2.051391199084064 12.118525197789499 23.852741007726262 252.0210830576249 0.7881628610384418
2.0554590957496197 12.072929083485269 22.643294104603516 262.4103851255594 0.8055579913544492
