M[M_sun], R[km], Lambda[1], P_c[MeV/fm^3], rho_c[fm^-3]
0.23835315348680472 16.224115897624433 2803846.7813616297 3.45143464264431 0.16959267850507953
0.24817440498694168 15.885287196777078 2308455.3036687113 3.6301643944540127 0.17192478520472998
0.25827015585900415 15.58510912683643 1909351.715510412 3.815404550415918 0.17426432057466468
0.2686425435181261 15.318035266640628 1585456.0299868577 4.007372723255446 0.1766122813308386
0.27928787953961826 15.079949854382084 1322003.4047784987 4.2062966586947335 0.17896966563190506
0.2902129504033871 14.866827299653654 1106303.4778390948 4.41241449302222 0.18133747161426458
0.3014096331181803 14.675945381487088 928976.2224797443 4.625975026360402 0.18371669627156834
0.312877723382257 14.504933908322764 782734.3379510909 4.847238011913184 0.18610833462084825
0.3246266730278496 14.350903439474633 661453.6977763614 5.0764744612634525 0.18851337910452537
0.3366490374553787 14.212352100494403 560576.6647950419 5.313966965621732 0.19093281918446992
0.3489409316731005 14.08769474453763 476462.6556704842 5.560010032793334 0.19336764109084853
0.3615095045545022 13.975264762845002 406017.52400690224 5.8149104395360585 0.19581882769472858
0.37435388777279954 13.873872899782668 346828.99678216025 6.078987598916592 0.1982873584792153
0.38747355392861565 13.782322769559636 296967.41579180217 6.352573942244619 0.20077420958927428
0.40086391987861447 13.699865760696753 254853.35130006258 6.636015315166757 0.20328035394532287
0.414529280267762 13.625485466216992 219198.76441880412 6.929671387536721 0.20580676141015228
0.428473875008823 13.55845306158685 188892.1808376412 7.23326207324701 0.20834397201830523
0.4426931939550139 13.498100971322252 163116.1237447288 7.547287999718007 0.21089556051006664
0.4571850952639047 13.443809001951516 141111.3051150763 7.872579698209109 0.21346959122949347
0.4719478697753291 13.394999783794107 120969.39535944261 8.209554013506269 0.21606708181821888
0.48698570718188827 13.351269848611384 106181.70681880471 8.558644037656048 0.21868904820203044
0.5023017254932223 13.312165686579371 92343.82530214557 8.920299626432755 0.22133650511042438
0.51788337682614 13.277233910634484 80439.08526771874 9.294987932130626 0.22401046664832794
0.533737089387713 13.246145561293481 70179.34850777505 9.68319395354891 0.2267119469305777
0.5498612594928318 13.218552083833115 61314.94549348408 10.085421104360819 0.22944196079109408
0.5662538750708207 13.194236759261658 53652.929406249015 10.500764725799838 0.23218349234712632
0.5829061642317445 13.1728506750061 47011.28814813221 10.93066306241805 0.23495003108385795
0.5998281576176537 13.154159426303348 41248.968730560795 11.376082735380173 0.23774791532314693
0.6170159130403428 13.137941544356135 36239.42901599681 11.837606768700663 0.24057823009835966
0.6344544881424201 13.123960276805322 31881.415290959125 12.31584020195934 0.24344206608231053
0.6521560941501436 13.112126677555601 28078.851481231628 12.811410847997545 0.24634052097258996
0.6701179401545808 13.102129449161536 24760.89747317909 13.324970088555512 0.24927470103843785
0.6883276847912497 13.093832808757968 21860.677878946397 13.857015859192344 0.25224382743018053
0.7067839034520574 13.08715483680451 19321.812757200012 14.406145738535741 0.2552273394098583
0.725489740446686 13.081873968764423 17096.31150132116 14.97525130792983 0.2582500936641243
0.7444323042366731 13.077902048814343 15144.453802613642 15.565090110184288 0.2613133075289691
0.7636124474526838 13.075077631721642 13428.193697258866 16.176448588501547 0.2644182168768545
0.7830218891771408 13.073311478917082 11919.797053112192 16.810143253343846 0.2675660788337467
0.802653868242948 13.072483891009705 10591.349959828158 17.467021930977136 0.2707581747507625
0.8225190068667739 13.07248394537422 9419.726062500367 18.147965102821047 0.27399581344261126
0.8426013178737568 13.073239106950458 8386.194205852931 18.852605728379626 0.2772690305594651
0.8628795002663219 13.074625118572223 7472.972705110335 19.581569421457626 0.28057724313911336
0.8833681316841567 13.076569895534046 6665.466260601368 20.337373373324457 0.28393568800357927
0.904059896995236 13.07901055837433 5950.7434778063125 21.12105223027202 0.2873458744189624
0.9249408054874585 13.081848216098653 5316.937568918589 21.933682452926117 0.29080935838388594
0.9459978263420169 13.084997924379186 4755.00685852756 22.77638443847927 0.2943277476281343
0.9672292566254005 13.088361023476816 4256.2692159197895 23.650324816004105 0.29790270695850407
0.988629686560174 13.091961493486364 3813.338587938224 24.55671893035717 0.3015359639621071
1.010190884193652 13.095656796357819 3418.915540688588 25.49683353108162 0.3052293150776292
1.0319011816023944 13.099432570367238 3068.0177757559172 26.469179127469594 0.30896437721625286
1.0537493589453064 13.103176247317638 2755.3422173670674 27.477923874592204 0.31276413383852614
1.0757161761846241 13.10687008658449 2476.5759202603003 28.524547513416458 0.31663086897171516
1.0978156882705732 13.110404339694044 2227.639587602298 29.610568553022297 0.3205667664884824
1.1200212025997784 13.11386932686335 2005.5038690795755 30.73757480911551 0.32457411412526094
1.142321446803356 13.117062615135715 1806.9559984879456 31.90722771444562 0.32865531210682186
1.1647063696985842 13.119920736963932 1621.573662901596 33.12126697862504 0.33281288226295164
1.1871758881140846 13.122575698362285 1463.3479726722264 34.381515623780295 0.33704947766099114
1.2097027920765533 13.124806560641884 1327.616369630782 35.689885424201464 0.3413678927811624
1.2322792961085924 13.126656575922548 1199.7425666524084 37.04838278007259 0.345771074265205
1.2548902827697905 13.128032762057057 1085.0464797979503 38.45911505750113 0.3502621322729042
1.2775105603301165 13.128871683018698 982.1256475495462 39.92429742943556 0.35484435248560114
1.3001550079075395 13.12923328580007 889.5670210340717 41.44626025471052 0.35952120880077526
1.3228007513088837 13.12900894292078 806.3265940099276 43.027457035414585 0.36429637676728965
1.3454169613282456 13.128175068952512 731.4199930836281 44.669690595406074 0.3691695106102432
1.3679971298674565 13.12668869115754 664.0279838331153 46.376713456281514 0.3741504268842475
1.3905356719790412 13.124531211681349 603.2256993156902 48.151452966684886 0.37924367564331696
1.413002728038519 13.12159654418469 548.3967592601489 49.996973777589574 0.38445393241708303
1.4353799937719365 13.11791808811671 498.9437750626046 51.91651473871699 0.38978615619037416
1.4576715766579793 13.113480998868992 454.2566039364612 53.9135014343791 0.39524560902153294
1.4798511412750444 13.108241005054131 413.8987837862804 55.99062989126995 0.4008333674656298
1.5018866222946035 13.102088622429267 377.42993856613833 58.15196709673484 0.4065566743273922
1.5237843731643506 13.095062604951732 344.3954052523591 60.401823561906674 0.4124231144781325
1.5455008122065828 13.08709360673659 314.4870743681239 62.74448577115875 0.41843933119133525
1.5670495077182822 13.078203914092466 287.4116905300509 65.18450476533572 0.4246123875159321
1.5883995215698294 13.068358549243003 262.8511574265409 67.72671585885787 0.43094979530666294
1.6095069312433536 13.057431325299191 240.56936446080033 70.37625994955167 0.43745954643972995
1.6304028002961701 13.04551319424321 220.3353019424352 73.13860656289462 0.44415014641902595
1.6510256749680967 13.032552213179843 201.97051842486832 76.01957878689863 0.4510306505985621
1.6713833960119868 13.018488156208404 185.27360763580813 79.02538026998705 0.4581107032691401
1.6914367076339356 13.003308702442459 170.0887621794664 82.1626244721318 0.4654005798820461
1.7111752008423096 12.986970956936293 156.26959280148967 85.43118092863097 0.4728820654265149
1.7305841107254036 12.969475800410775 143.68611830804733 88.84490738778128 0.48059335253971014
1.749639011975409 12.950769321939662 132.21729038499552 92.41182355399816 0.48854689807038515
1.7683316546268313 12.930905941557235 121.76870563214764 96.14047389448535 0.4967558808704506
1.7866197276067644 12.909762665039644 112.23128243927574 100.0385770667986 0.5052289203645823
1.8045205407511982 12.887431154423837 103.52265862628587 104.10770077964067 0.5139501028272553
1.8219638774361695 12.863720536502552 95.56165954686719 108.36688285644556 0.5229688521375392
1.8389923532611991 12.838840123355872 88.29027501373896 112.82728412756556 0.5323021881017816
1.8555297236330681 12.812575074704894 81.64500123658047 117.49280400735232 0.5419388336946019
1.8715925830716997 12.785018473593551 75.56044580005957 122.37767158807877 0.5519042319447008
1.8871484501535765 12.756078052630057 69.99241825690528 127.50105780157624 0.5622392213268911
1.9021785836482195 12.725807215287894 64.88523278496011 132.86591671933158 0.5729242904746039
1.9166571618261883 12.694121029838662 60.21043661433466 138.49385941175967 0.5840046071158724
1.9305984409659502 12.661097225516952 55.91811474675886 144.401564762692 0.5955049383588223
1.9439499844162127 12.626644226728725 51.981463285624066 150.5973521699934 0.6074186897757108
1.9567069744811143 12.590762187716901 48.3663013476411 157.11179114018006 0.6198134375547731
1.968853310789459 12.553487285892205 45.04212023339665 163.9487753273898 0.6326622091211156
1.9803513006849804 12.514709876101183 41.98908213740009 171.14458469039596 0.6460452689348084
1.9912339686947187 12.474599816595514 39.17921398189655 178.70802460716132 0.6599463409693637
2.00142894523189 12.432954931228373 36.59564276369161 186.6725713973152 0.6744284583414495
2.010953529026519 12.389861083340026 34.21584864927372 195.0618554314841 0.6895174860272885
2.0197814523883317 12.34534552285216 32.02275002607767 203.89762966710077 0.7052288667436054
2.0279118996070644 12.299383865079983 30.002666411347814 213.21940393870267 0.7216318246774466
2.0353151893820933 12.251944019250967 28.137984341124948 223.05648682452698 0.738756657046532
2.0419722000638667 12.203025100734465 26.42222663240844 233.43683433320967 0.756623642441981
2.0478827553631893 12.152695449401914 24.835505585010363 244.4070191516268 0.7753075719058306
2.0530477506827283 12.100904759840747 23.37133187287491 256.00742497982316 0.7948560657485833
2.057423341868022 12.047646507577642 22.020305980341707 268.28213142304236 0.8153211729737209
2.0610122199825813 11.992971295993355 20.770733031042624 281.2792714037935 0.8367597093116275
2.0638235575083548 11.936900057525628 19.616564190157238 295.0514293083081 0.8592336403260714
2.065825137334304 11.879413964433345 18.550836098000335 309.65608492451986 0.8828105140190186
2.0670216207185432 11.820548409047278 17.565112592640357 325.1561089216881 0.9075639480765963
2.06739692298947 11.760340339225147 16.652508790480578 341.6203164175836 0.9335741777031755
