M[M_sun], R[km], Lambda[1], P_c[MeV/fm^3], rho_c[fm^-3]
0.23835315348680472 16.224115897624433 2803846.7813616297 3.45143464264431 0.16959267850507953
0.24827055882874582 15.88224820764418 2303988.2463595048 3.631950190820294 0.17194795056118972
0.258469515943572 15.579655884227433 1902151.1930865902 3.8191065669748974 0.17431080706931812
0.2689510285642428 15.310647714248175 1576956.6988726312 4.013125943540153 0.1766822269129107
0.27970813658893495 15.071175958496255 1312785.6374535426 4.21424089125799 0.1790631931071384
0.2907491719441956 14.857219407247857 1096949.6128100236 4.422694652530884 0.18145469121460422
0.30206696036528163 14.665600104968307 919739.7380541067 4.638741430949102 0.18385770812021382
0.3136656541341374 14.49390686758684 773742.4885130128 4.862646697446769 0.18627323110734367
0.32554663781768206 14.339591602762962 652958.3702548284 5.094687513322123 0.18870224718420553
0.33770420117515293 14.201032694445365 552654.7719459604 5.335152870182707 0.19114574261600786
0.35014989875590435 14.076223329508966 469089.24615573563 5.58434404673792 0.19360470262490584
0.3628676428041194 13.963947014716572 399186.4161693108 5.842574982262003 0.19608011122586033
0.3758664079970662 13.862736142226204 340577.3352072476 6.110172666483581 0.19857295117227344
0.3891461842311395 13.771502804846154 291245.7699796415 6.387477545626547 0.20108420399062227
0.40270456611289684 13.68932229912601 249654.22412550368 6.674843944328416 0.2036148500882531
0.41654423911063243 13.615308647461209 214471.8368306319 6.972640503196901 0.2061658689230224
0.43066355574108117 13.548682653825601 184616.60081136072 7.281250631832923 0.20873823922755547
0.4450583485192221 13.488716086446697 159252.5918643856 7.600905714017436 0.21133035144600662
0.45973863362994344 13.434881777282866 137628.19801433638 7.931178343380528 0.21393073970027024
0.4747041706304887 13.386554777370698 119141.09436680116 8.273394704568805 0.2165547346578223
0.48993936852489917 13.343288191769892 103326.11125094212 8.62799987207052 0.21920337296215137
0.505452511688945 13.304711825482567 89776.49878227695 8.995456394062868 0.22187769238840288
0.5212439946012326 13.270239135631128 78120.1236835949 9.376244870285845 0.2245787324584252
0.5373075021655185 13.239692839641183 68089.43004312897 9.770864550302434 0.22730753512365387
0.5536513973760175 13.212657817832897 59432.893419080625 10.179833953530883 0.23006514552762108
0.5702618230908431 13.18877031848471 51954.58009770435 10.60369151280912 0.23285261286105452
0.5871487456167228 13.167850789194311 45480.32346469149 11.042931535144092 0.23567019753510896
0.6043023698125984 13.149674638980983 39867.62840447017 11.496368952035029 0.23849794673066876
0.6217261278073642 13.13395919012098 34994.70694010809 11.966314777703403 0.24135852772797
0.6394105630046371 13.120411214503003 30757.402868366415 12.45339446604295 0.24425307584002723
0.6573607974579642 13.109014945038142 27066.2582475802 12.958257501877574 0.24718273637637417
0.6755679791377415 13.099460525701142 23848.74678529048 13.481578279510417 0.2501486662846435
0.6940310945180808 13.091604452223454 21035.47852472423 14.024057029544142 0.25315203597672536
0.7127482217035664 13.085346688181831 18578.070910816044 14.58642079965208 0.25619403135502705
0.7317068622850108 13.080412910238461 16424.228998273997 15.169424495649622 0.25927585605380765
0.7509121088938238 13.076796940084646 14536.547452125395 15.771622538160155 0.2623768313344001
0.7703626307620896 13.074344054193716 12879.510837956701 16.39574875865575 0.2655182583571336
0.7900437827887768 13.072939561346546 11423.666531499008 17.042859252801414 0.2687035466450196
0.8099551915251382 13.07240365549151 10142.051573469935 17.71383734814007 0.27193405488143374
0.83008957787544 13.072735026154447 9014.117481332709 18.409601291582085 0.27521117347207613
0.8504430998086653 13.073702903264252 8018.699321114319 19.13110584208217 0.27853632826228397
0.8710048551733651 13.075323092737682 7139.662845327635 19.879343985436282 0.28191098456100805
0.8917792503876568 13.077508517204079 6363.463249389723 20.65534878345294 0.2853366514830358
0.9127472048636628 13.080194049685694 5677.000756368451 21.458681882477403 0.2888025379796329
0.9339079467117614 13.083189569450084 5068.969436082572 22.2907502604746 0.29231343671319654
0.9552469119774686 13.08645522944945 4529.918206422901 23.153905927915947 0.29588090538265
0.9767550460414981 13.089939308476007 4052.1542794966613 24.049374569706373 0.2995067295860863
0.9984452079394149 13.093650119004389 3627.7413212857464 24.978434467474838 0.30319276426613906
1.0202790364177448 13.097422021634351 3250.373537992894 25.942419459647205 0.30694094018034085
1.0422710853905566 13.101223633056758 2914.745968979851 26.942722144485067 0.3107532707853133
1.0643901803497546 13.104998345859038 2616.0884525826705 27.980797346193146 0.31463185954949796
1.0866383996527398 13.108648379949432 2349.8934039287656 29.058165865402398 0.31857890771050257
1.109003949572611 13.112165583969702 2112.517663817639 30.176418536615355 0.32259672249481397
1.1314722083575781 13.115541987187347 1900.6757769293408 31.337025433911382 0.32668644665440905
1.1540397558660032 13.118605550206736 1711.3806132115412 32.53998076934273 0.3308394888278302
1.1766850290609714 13.121395107895314 1542.1671029134525 33.78915941267215 0.335072165550312
1.1994053885258398 13.123859440536895 1390.7205907507519 35.08649844606578 0.3393873432702049
1.2221826541365903 13.125884374693822 1255.2165548283974 36.43403156121599 0.3437880425449389
1.2449823144633811 13.127470173786184 1133.72537649908 37.83389552114482 0.34827744971141616
1.2678338840745695 13.128575517169766 1024.794174656754 39.28833713732012 0.3528589292429605
1.290699313356046 13.129183054095531 927.050575345916 40.79972080121986 0.3575360368386976
1.313551030161912 13.129178266647914 839.2479177195368 42.370536612574426 0.3623125332968788
1.3364030057363172 13.128611889318762 760.3411649672208 44.003409149979085 0.36719239922989905
1.3592204803662995 13.127354819133968 689.395860760091 45.701106933421094 0.37217985068558485
1.381986233683288 13.125397266607232 625.5089712225862 47.46655263256641 0.3772793557468024
1.4047011021648184 13.122766329655551 568.0305005065836 49.30283407944753 0.3824956521896084
1.4273433004447844 13.119370975848659 516.142554879691 51.21321614953586 0.387833766289058
1.449881512010271 13.11513972252519 469.4249874654956 53.20115358113256 0.39329903287148626
1.4723082550683535 13.11011298454393 427.19455368926504 55.27030480963497 0.39889711672264777
1.4946159263111651 13.104227361556896 389.08077752148387 57.42454690059991 0.4046340354726103
1.5167757891262934 13.097420191296662 354.6376412082283 59.66799167371477 0.4105161840908606
1.5387655188448286 13.089697288678764 323.4851063945327 62.00500311887743 0.4165503611387784
1.560571173040506 13.080961716680443 295.2986603924023 64.44021621569593 0.42274379694163744
1.5821838308222027 13.071325314724515 269.77642954106216 66.97729198266246 0.4290985230257984
1.6035814367363828 13.060648181599422 246.64262693804733 69.61962832881977 0.4356148811372764
1.6247243088741634 13.048853425865337 225.6671681208842 72.37526141029616 0.4423128729046979
1.6456315059481246 13.036056332709213 206.62829201675194 75.25008966542892 0.4492017018773653
1.6662596167603092 13.022158755743078 189.36683391364016 78.25040023411651 0.45629117384202533
1.6865796273282958 13.007108674589997 173.66457326696877 81.38289905664627 0.4635917403754588
1.7065920484399792 12.990896202685713 159.3867652533725 84.6547435290891 0.47111454597760094
1.7262554721377048 12.973468124465093 146.4138032073054 88.06963673889659 0.47885566575438776
1.745587623313071 12.954901019472487 134.58469571897479 91.63457404496518 0.4868237666972568
1.7645329434838137 12.93507925256857 123.83294091259212 95.36245832037355 0.4950494417635261
1.7830958922498628 12.914006544898214 114.01626295654822 99.26258098997852 0.503547031197999
1.801235327708439 12.891658434973632 105.07618015649365 103.34242040155802 0.5123224741880256
1.8189408937465021 12.868008441923145 96.90826358170385 107.60528116100875 0.5213648817938353
1.8361942866566046 12.843058921032473 89.45678432364853 112.0712694735742 0.530725222243415
1.852982176416199 12.816761103206147 82.64237761640084 116.75258116842203 0.5404220877605252
1.869271715265944 12.789119473015942 76.4177720457521 121.64810196754227 0.5504239603444013
1.8850540331243342 12.760130802017159 70.72712183944329 126.78401841376777 0.560797194529526
1.900292843333456 12.72970712466477 65.51319429862767 132.1719600643729 0.5715524601733578
1.9149851285747357 12.697917532488644 60.742404901835464 137.81838562956108 0.5826804071397457
1.9291267951007052 12.664722347685116 56.36025895141019 143.75309244975895 0.5942514850510581
1.9426681373292591 12.630074601080793 52.353701490694846 149.97641995884263 0.606230395263192
1.9555950901621433 12.593983136461949 48.672998960367394 156.5234657008544 0.6186997098835707
1.9679177461925454 12.556474168451018 45.29398672348099 163.3986025290867 0.6316330755088373
1.9795872520937172 12.517462517824933 42.190406354188866 170.63904305340475 0.6451129141574643
1.9906080030847504 12.47700810319518 39.34042118277714 178.24879058724594 0.6591057197520869
2.0009335134259447 12.43502184402861 36.71956414773467 186.26950491527484 0.6737008051061505
2.010592790459734 12.391627511659582 34.30762499166157 194.7185982707647 0.6889019855060327
2.019524079467256 12.346713099522042 32.08663290202789 203.62461995792313 0.7047457621927894
2.027744309394112 12.30031817314008 30.04081718207838 213.02458319411707 0.7212914807480142
2.0352355300906146 12.252463541063737 28.15854911347187 222.94799172643306 0.7385683090036231
2.041963544628632 12.203061083325165 26.422559956559507 233.42604663777877 0.756605144410417
2.047926312261595 12.152202521155983 24.821379579092305 244.50505033061916 0.7754736620826154
2.053136500125243 12.099934810291742 23.344728942925844 256.22668742672033 0.7952232244552006
2.0575254333718567 12.046098010549464 21.98381768799291 268.636484954635 0.8159077888336994
2.061126268395843 11.990860338792213 20.72610086619142 281.7841885950044 0.8375862677300444
2.063940869325763 11.9342007546212 19.564461193971884 295.72418217513143 0.8603229368668244
2.065921467147924 11.876094343405246 18.490914636163588 310.51595584439264 0.8841878956846727
2.0670739561065274 11.81658140064212 17.501430358113875 326.22462911337317 0.9092575859606855
2.067392738324338 11.755664903307949 16.58641004265915 342.9215358036739 0.9356153750161837
