M[M_sun], R[km], Lambda[1], P_c[MeV/fm^3], rho_c[fm^-3]
0.23835315348680472 16.224115897624433 2803846.7813616297 3.45143464264431 0.16959267850507953
0.2468417888659091 15.928340359504888 2368480.1288457448 3.605618229403299 0.17160637226927117
0.25553683765171936 15.662224368430333 2007872.2320084516 3.764775555009879 0.17362856854958408
0.26443836655548675 15.421753437454752 1707495.3982402137 3.9290785444693257 0.17566040887731732
0.27354567004736063 15.204320860387847 1456709.4924632523 4.098706150627439 0.17770300223824403
0.2828634548431534 15.006948819038358 1246012.9902072384 4.273844476468999 0.17975742590138075
0.29238356360280254 14.827815598542879 1068758.021440632 4.454171788514745 0.18181360950733647
0.30211035805135994 14.664916109966681 919096.1310279999 4.639572342384462 0.18386688598675774
0.3120424396479724 14.516637973897025 792411.9804600095 4.830967665332913 0.18593421704415414
0.32218429365700746 14.381341200323117 684639.820309713 5.028571029659725 0.18801662385955378
0.3325263806960965 14.257955013364073 592885.8555955468 5.232603550477502 0.19011509731168919
0.3430797809078587 14.145215848029583 514494.5592162486 5.443294354574815 0.19223059901509262
0.35383436989107514 14.042270118040088 447355.2848747555 5.659318591203241 0.19433510331287593
0.3647972812398072 13.948106273710094 389753.5296757659 5.882131799422637 0.19645371381782983
0.37596471690721806 13.862077354796865 340177.2742871227 6.112206259632575 0.19859157480817735
0.3873403658784229 13.78321409920826 297417.8569545735 6.349802019200569 0.20074959090978664
0.3989163840867026 13.711248079860857 260493.85262246677 6.595188004916988 0.20292863980810968
0.41070594819177414 13.645435214292716 228521.25973260496 6.846408346728901 0.2050928221955908
0.42269212065742406 13.585216962984386 200784.7197150525 7.105799126362246 0.20727872082251897
0.434895212601741 13.530302175610363 176680.90937912153 7.373695806854095 0.20948788558409584
0.44730093862965303 13.480127921000003 155693.49332166527 7.650401999633441 0.21172113944124557
0.45990634081828874 13.43428369779881 137397.39933235853 7.9350067818629455 0.21396086801717015
0.4727258277960295 13.392590884815478 121398.6142272517 8.227464105954954 0.21620388966435586
0.48574313571390265 13.354707305462787 107420.0806427992 8.529547319999114 0.21847327454065715
0.49896939675765534 13.320254775202486 95155.62788797847 8.841598170876807 0.2207697933178831
0.5123982888321085 13.28899090605098 84402.6077724264 9.163500212837606 0.22308773879847993
0.52602427152976 13.260734024825776 74959.48177117229 9.493312562254076 0.22539743875382437
0.5398603157275212 13.235197096035163 66639.7802137523 9.834022091069027 0.22773659443175992
0.5538985703622176 13.212244983844712 59312.56987567565 10.18601255282777 0.2301059282050721
0.5681317498838807 13.19167151083599 52847.226545994396 10.549679205597403 0.23250614113427276
0.5825716434113748 13.173241334444686 47138.06620557715 10.921782740681776 0.23489306665176501
0.597203273357837 13.156903534282973 42088.133125433065 11.306188287391743 0.2373120962188422
0.6120312803853382 13.142349672894682 37611.30716319201 11.703362176073313 0.23976436670146026
0.6270622366245003 13.12961538178736 33646.74653412961 12.11374702099078 0.24225053964853976
0.6422856470435634 13.118469073496518 30127.38188106829 12.533993581450817 0.24472828225761517
0.6576991624031677 13.108832557364192 27002.53832448548 12.967884449015832 0.247237950185862
0.6733000994106221 13.100564849468624 24223.152345652557 13.416227479778067 0.24978397062326352
0.6890959437060385 13.093533097959266 21747.235731296496 13.879517911281686 0.25236697606447683
0.7050731701314584 13.087717281803117 19542.080942479843 14.354168880018962 0.25494502865221247
0.7212386719626308 13.082979994884829 17575.95073512304 14.844161459617094 0.2575569152985302
0.7375817179864473 13.0791930581064 15817.779541208842 15.35051324892925 0.2602083594959848
0.7541036966212937 13.076331234383428 14248.35680515923 15.873778532363977 0.26289997994910563
0.770797849305771 13.074297742866035 12845.802919144784 16.41015088142768 0.26559050149512137
0.7876756370974755 13.073052202006453 11587.634991849889 16.963819464282647 0.2683172164594738
0.8047124481111867 13.072433862049792 10461.802462493755 17.536010538698697 0.27108685086830386
0.8219182746896185 13.072517175855793 9453.793804445388 18.127345555965842 0.27390003092417536
0.8392896359737835 13.073068961820692 8547.287315171818 18.734029178595957 0.27671821532354013
0.8568128374804139 13.074152268019915 7733.335273620119 19.360067702860402 0.27957368552996076
0.8744938919286216 13.075659629244731 7002.179366834673 20.007089775409753 0.2824756805119072
0.8923210811998675 13.077565467822653 6344.985696051886 20.675794568404555 0.2854248624257471
0.9103022787243154 13.07986374838678 5752.409035055927 21.36291950991404 0.2883893824475722
0.9284173243490934 13.082339951740659 5188.915687578964 22.071344462955423 0.29138923268696576
0.9466700602069101 13.085077649515345 4738.318945655681 22.803564970848086 0.2944395708111894
0.9650520531065104 13.08802484877737 4304.60374947252 23.560371875913773 0.29754113161612183
0.9835648502857598 13.091118152238607 3913.2256380955355 24.33993801883621 0.30067468005549153
1.002194314323982 13.094287639012883 3559.3246376090137 25.14234589424467 0.30383672560453956
1.0209375663692168 13.097534781814906 3239.8554838355494 25.97178110565751 0.30705372679936616
1.0397886236816019 13.10079634784246 2950.5349602882975 26.82914472394002 0.3103265370402495
1.0587407513208134 13.104043629872981 2688.980488154099 27.71536643133471 0.31365604578109163
1.0777918926732624 13.107227359677024 2451.913839394499 28.625326776463695 0.3170013676097649
1.096923256547264 13.11027870650706 2237.2315402944423 29.565991809289525 0.3204063540333861
1.1161440480125753 13.113298204790757 2042.5505293880567 30.538461273269533 0.3238724816948929
1.1354424177808613 13.11609627087262 1865.7217064377253 31.543806670997366 0.32740083253239555
1.1548008014930955 13.118703356351928 1705.4463782306414 32.58175435512222 0.3309836855138935
1.1742291576367234 13.121142105340256 1559.6107800974332 33.650113468789996 0.33460181409673345
1.1936945656695697 13.123256507258041 1427.2436862736952 34.75481174976753 0.3382874031074141
1.2132152882008307 13.125114950143152 1306.6221194877678 35.89709754873587 0.3420417985495314
1.2327714033378654 13.126674214996754 1197.0993244093847 37.078266724881 0.3458664264875018
1.2523452213414241 13.127856509376361 1097.3353675243682 38.299665547082235 0.34976279920446596
1.2719442690011424 13.128716069373763 1006.4283818082713 39.55720828853263 0.3537009277953345
1.2915533546941904 13.129196542960663 923.5651963477831 40.8576162458557 0.3577140492924024
1.3111609111962954 13.129200504846283 848.0188395106143 42.2027222492672 0.361805732123061
1.3307558024311132 13.128775410123827 779.0697449482734 43.594122848582344 0.3659778905416196
1.3503394351164486 13.127927668328288 716.1289818310685 45.03348333334987 0.37023255868728416
1.3698792810051768 13.12651446276327 658.6807868411702 46.52254217039999 0.374571898265798
1.3894020386574462 13.124622218384056 606.0973382320684 48.05975693002803 0.3789806879642871
1.4088741683237727 13.122225968994313 558.1002988280037 49.648936430111306 0.38347206283403845
1.4282679496493993 13.119190614442081 514.1405093567829 51.29370452138478 0.38805720578799713
1.4476025479635577 13.115603187382424 473.9114315133605 52.99615974303744 0.3927388625637864
1.4668581352503574 13.111392484581609 437.0667216312734 54.7585012625523 0.39751995036473375
1.486027159576261 13.106596982724973 403.3281955987819 56.58303550887279 0.40240356787704046
1.5050950815921995 13.101143287485893 372.3946719417233 58.472183258721216 0.4073930057688858
1.5240409966936965 13.094999081175354 344.02292598250466 60.42848720549934 0.41249175771494273
1.5428626212215961 13.088136351127076 318.0044324582902 62.45462004284278 0.4177035319941562
1.561547621785365 13.08057720636605 294.09945900659375 64.55280644241142 0.4230295975394134
1.5800898050201866 13.072317207638573 272.1559673676852 66.72479947215751 0.42846884660976536
1.5984739456900945 13.063292228219424 251.99492561581587 68.97585715798694 0.4340354998530681
1.6166826125836296 13.053504625793213 233.43392028043576 71.30928386822538 0.4397342555610217
1.6347097972536186 13.042939319902352 216.3722409317804 73.72856383474273 0.44557009762519006
1.652538854920358 13.031568011916074 200.68450995095125 76.23737323226301 0.4515483120718941
1.670150712742107 13.019324113206102 186.2421624091483 78.83959310286563 0.45767450465483905
1.6875553107618866 13.006323403760538 172.9311627919 81.53932319096556 0.4639546195997614
1.7047287812135412 12.992467375409285 160.66426571880817 84.34089676016994 0.4703949596032885
1.7216532215355043 12.977691037242716 149.35549414984487 87.24889647010139 0.47700220719676917
1.7383224189914919 12.96206889531671 138.91886632355752 90.26817139859702 0.48378344759513037
1.7547237046636 12.945575386767297 129.30617650766243 93.40385530271281 0.49074619316093643
1.7708395281221492 12.928120892405486 120.41081544659795 96.66138622075275 0.4978984096248865
1.7866571645966045 12.909752270416956 112.20714766514041 100.04502140948343 0.5052427647132107
1.8021723181325144 12.89043604420182 104.62058810351066 103.56008125515265 0.5127854039182212
1.8173637090270203 12.870176909505263 97.61434426273448 107.21469954928533 0.5205422978555984
1.8322337015603103 12.848976316551223 91.12521928986338 111.01572856237925 0.5285234765890474
1.8467482969742421 12.826770503031273 85.1205931275012 114.9704457353735 0.536739581026484
1.860909722607521 12.803582113470524 79.56701152912821 119.08658393913977 0.5452019030479732
1.8747145767103004 12.779420808922216 74.42229375849843 123.37236410964334 0.5539224287682194
1.8881241131699373 12.754226268731399 69.65889595724254 127.83653046993672 0.5629138852097748
1.9011290815443382 12.727961183880216 65.23460566372648 132.48083029347453 0.5721630423133326
1.9137486078645314 12.700713956879794 61.13383265879191 137.32095704115648 0.5817052472708517
1.925946041710329 12.672426876584632 57.32723078926655 142.36833878507622 0.5915589368417774
1.9377118526607726 12.643068395296758 53.79826523002038 147.63418067402415 0.6017402396849736
1.9490430851119465 12.612703386565155 50.5205960404097 153.123967253535 0.6122441597151753
1.9599094297065354 12.58120606269337 47.474935305159526 158.85087758025495 0.6230909010888805
1.9703275796351427 12.548693066260126 44.64593554948103 164.83350696109426 0.6343171565574471
1.9802671119989437 12.515085825957126 42.013010651764674 171.08264677663482 0.6459310847447797
1.989720341440225 12.480391752912677 39.56552352548622 177.60614667003142 0.6579293693761632
1.998674585441878 12.444610053307553 37.287399660750026 184.43070236813338 0.6703697243003282
2.007123449720757 12.407722945240437 35.16792025089605 191.56495992546888 0.6832471404874644
2.0150727657794167 12.369797446695728 33.19429631305817 199.0279881393716 0.6965891208017337
2.022478023088007 12.330756605129755 31.35457665595234 206.8441137660311 0.7104376720554832
2.0293575136031827 12.29060167731506 29.641179389860838 215.02219196316537 0.7247812221478457
2.0356822281763307 12.249338428813537 28.044113635342786 223.59818916829022 0.7396940747843982
2.041463162114403 12.207009544149729 26.55403606242617 232.57936320918807 0.7551533072792086
2.0466791983485604 12.163601005077663 25.16516903319494 242.0055729016139 0.7712389007309693
2.0513374620138998 12.119112486385474 23.86876736504371 251.88974332738545 0.7879373904021709
