M[M_sun], R[km], Lambda[1], P_c[MeV/fm^3], rho_c[fm^-3]
0.23835315348680472 16.224115897624433 2803846.7813616297 3.45143464264431 0.16959267850507953
0.24842384457570263 15.877441866027999 2297306.849647912 3.6348019854288363 0.17198494405042747
0.2587841071172904 15.570992951768563 1891159.2104777563 3.8250236851960655 0.17438510875872712
0.2694376332787798 15.299112022982257 1563648.3574484151 4.0223296157565995 0.17679412184801188
0.2803721082551212 15.057411773587704 1298313.5652627498 4.22696048812102 0.1792129409614607
0.2916039651297004 14.841768875139897 1082041.9289657874 4.439168150912763 0.18164253041057118
0.30312095889885876 14.649030749243487 905155.4864297654 4.659215907792609 0.1840838597989964
0.3149294842199699 14.47653193671453 759719.5139173655 4.887378852628417 0.18653790296945835
0.3270246462265999 14.321825048434382 639617.8417891177 5.123944222920494 0.18900563722239375
0.3394024263088347 14.182993301628606 540231.5719392992 5.369211771810634 0.19148804276128412
0.35207532053197915 14.058322492817467 457541.88172802085 5.623494158859915 0.19398610232572347
0.3650384466371935 13.94610647617633 388573.1359275879 5.887117359675638 0.19650080097920022
0.3782887468827508 13.845213389569684 330862.69662259123 6.160421094397213 0.1990331260241947
0.39182390072573087 13.754427529742502 282404.1520293607 6.443759275017854 0.20158406702248677
0.40565078850708247 13.672768015441116 241605.21657247486 6.737500471518876 0.20415461590350642
0.41976842781584045 13.599357766760328 204602.60987390688 7.042028396829392 0.2067457671481272
0.43417130002559984 13.533396078548673 178002.09800573334 7.357742410693852 0.20935851803945943
0.4488622568490255 13.47415434124948 153265.33934687125 7.685058042636193 0.21199386897598382
0.46384163216902025 13.421059601350127 132224.98496286498 8.024407534350972 0.2146528238457572
0.479107192687132 13.373467683149398 114285.0668660207 8.376240402030952 0.21733639046342654
0.49466542706758426 13.331068257611845 98954.88646223646 8.74042479515492 0.22003708683907552
0.5105015964365275 13.293212129523702 85829.25330162435 9.117368026511544 0.22275555111755319
0.5266276646661594 13.25959206520289 74578.77580315297 9.508141015941654 0.22550114070763372
0.543037133918269 13.229748622989714 64891.250255431376 9.913267026697948 0.22827494308877155
0.5597310451461308 13.20348461669637 56552.79566751795 10.333290042938854 0.23107805312957164
0.5766992984596475 13.180410953811435 49364.88778722889 10.768775508545565 0.2339115740500783
0.5939520730564822 13.160315426100533 43147.11945187722 11.220311098322824 0.23677661849926107
0.6114754471593643 13.142850905169091 37768.81159113576 11.688507524630502 0.23967430976250734
0.6292841129124004 13.127883843902339 33103.82154070857 12.173999383009484 0.24260578311444167
0.6473581277948836 13.115130373835342 29054.541710291945 12.677446040922879 0.24557218733268665
0.6656984254890641 13.104374614575574 25533.58282628739 13.197973877600148 0.24855759115745635
0.6843028873295948 13.095526642092603 22465.238048412477 13.737394643577096 0.2515762711260106
0.7031758672231723 13.088326971153737 19790.118103797857 14.296800101639066 0.2546334318425589
0.7223071457329693 13.082667855416608 17453.813649214397 14.876961323481089 0.25773035478539813
0.7416900397156875 13.07839549269425 15299.65670237709 15.478680025680768 0.2608683450463243
0.7613202755262484 13.075359540080749 13621.169827731652 16.102789866451808 0.26404873403704604
0.7811923420596062 13.07342482727416 12052.418748290012 16.75015783067569 0.2672728824588105
0.8013051237904605 13.072530386559842 10676.834542985656 17.421685712689793 0.2705421835501453
0.8216547852608264 13.07246135424682 9467.437311436843 18.118311707147726 0.27385806662704293
0.8422324839397781 13.073221380766856 8403.572280212784 18.83937787732962 0.2772075841612508
0.8630260904325507 13.074655012406087 7466.568742815543 19.586770293618756 0.2806008067252769
0.8840308529329621 13.076612495135299 6601.779826334075 20.36225251666465 0.2840456654166037
0.9052503207327387 13.079189115687756 5912.030713101588 21.166935382253932 0.2875438319001972
0.9266694014435876 13.082105714140354 5267.732249001901 22.00197690173896 0.2910970353973273
0.9482780757198281 13.08530545160399 4698.373783093638 22.86858477587717 0.2947070682045926
0.970067617697471 13.088838573039599 4194.073394101557 23.768019111564968 0.2983757916088904
0.9920333987268225 13.09254452646435 3747.6596329512186 24.701595359483306 0.30210514221307644
1.0141523525698506 13.096341681775165 3351.4768998610034 25.670687491815553 0.30589713868767
1.0364373678610095 13.100223776384238 2999.770682997901 26.676731440410567 0.3097538889649025
1.05886647318017 13.104057922344793 2687.2798651556013 27.721228817035 0.31367759789262734
1.081425885591082 13.107815980720963 2409.436150327256 28.80390031215718 0.31765786429138027
1.1041094457659302 13.111419189735795 2162.0695640682943 29.928095028961216 0.32170940718625995
1.1269054265708267 13.114854885667754 1941.7346331371148 31.09576248755677 0.32583628894569616
1.14980097354439 13.118067395245955 1745.228605307223 32.30872820702649 0.3300412367145049
1.1727732720794077 13.12093976636896 1569.991240236511 33.56890792499625 0.3343271196720302
1.1958320836256642 13.123498820638664 1413.5053592221793 34.878313550907166 0.3386969600560846
1.2189453879335388 13.125593042005008 1273.530977214034 36.2390596000867 0.3431539448560586
1.2421028906350322 13.12725877997998 1148.3243204847593 37.653370145891145 0.34770143821689065
1.2652917696586803 13.128484184664703 1036.3213100831215 39.123586330053584 0.3523429946006781
1.2885072667652204 13.129139610599495 935.9072422805073 40.65217447454952 0.35708237275837273
1.311712507317048 13.129189243201507 845.9693574074121 42.24173484183475 0.36192355057028597
1.3349109611700707 13.128639864418673 765.2847816356833 43.89501109425336 0.3668707408210488
1.3580816428450402 13.12740533081324 692.7608404714618 45.61490050781544 0.37192840798229204
1.381211292881989 13.12549015900479 627.5917682807283 47.40446500044663 0.37710128608465604
1.4042669691554077 13.122819691140071 569.0596255318812 49.2669430402771 0.38239439776987255
1.4272485140565896 13.119372866870313 516.3836259914997 51.20576250563361 0.38781307462365927
1.450140839215516 13.115101571817943 468.87712340044044 53.224554575178466 0.39336297890106936
1.4729040309014474 13.109958858393282 426.14022904135516 55.32716873419425 0.39905012676786605
1.4955558303719139 13.10393681682207 387.5605803677521 57.51768899142043 0.4048809131945296
1.5180448656750283 13.096984659851229 352.75988902979066 59.80045141019385 0.4108621386537478
1.540361872588497 13.089089212526135 321.3328207005991 62.18006306804232 0.41700103778785497
1.5624841712484423 13.080169367612802 292.94291954273575 64.66016160095947 0.42329958162522013
1.5844161904693173 13.070304737293535 267.2624402418132 67.24393755333782 0.4297572070756216
1.606095584174894 13.059261231357626 244.03842759993964 69.93957065317458 0.4363948994293388
1.6275352133080097 13.047175266863768 223.01224892624774 72.75293212323146 0.4432218776919182
1.6487282837995993 13.034060023864189 203.94935474161164 75.69028299574055 0.4502479688174555
1.669626694009598 13.019745448064837 186.67073117006225 78.75830457577175 0.45748365216795145
1.6901970155534887 13.00423030039516 170.98159409775062 81.96413151793594 0.46494010765657023
1.7104665065155122 12.987597929508848 156.75013767463818 85.30999920232121 0.4726073877440231
1.7303695803449854 12.969674916394082 143.82538761283348 88.80557126222814 0.48050518479382964
1.7499023997393877 12.950517804046877 132.06876876587825 92.46248107539742 0.4886592037886822
1.769053785709624 12.930098684482168 121.37521880225115 96.29000816137699 0.4970838577507855
1.7877950241135705 12.908404925479799 111.63879621540042 100.29328450838025 0.5057761070664596
1.806083988154018 12.885323142465456 102.78117505582203 104.4800361332009 0.514742000414347
1.823951291042273 12.860991276940224 94.69720385226475 108.86826555758498 0.5240247885781908
1.841333896613802 12.835255646431962 87.32768914237501 113.46790904316714 0.5336348217671223
1.8582113764546104 12.808115970890535 80.60498052882501 118.28134326427012 0.5435532713166724
1.8745847980238077 12.779594002088622 74.46796815082546 123.3343143821149 0.5538452271832383
1.8904358208075713 12.749707921823715 68.85469274005854 128.63392143958092 0.5645050955582825
1.9057139734842499 12.718323002720021 63.724519675825974 134.19390988525967 0.5755494994870839
1.9204232416193825 12.685496896545803 59.03473036742995 140.03808358177014 0.5870279327831847
1.9345290935388462 12.65120162708558 54.73897443014118 146.1699157807667 0.5989158605811158
1.9480490662888978 12.615464791440097 50.80373901466245 152.6242221837242 0.6112951581434536
1.9609193447636486 12.578214924222463 47.199324705229685 159.4032191709476 0.6241318380889921
1.9731410894362496 12.539456162488776 43.89439567724648 166.54441741124631 0.6375096791573491
1.984692364375557 12.49920054135161 40.860582848902624 174.05835625603848 0.6514168842500248
1.9955591225296885 12.45740643225958 38.076791403333964 181.9765088752756 0.6659086256972979
2.005715377012631 12.414094044678505 35.51939275210257 190.32799627344565 0.6810275725224263
2.0151610433532765 12.369255350593109 33.17115088201029 199.12902717293213 0.6967690922589721
2.0238712099461362 12.322899980125266 31.00964001214719 208.42301798867248 0.7132136038092649
2.031835095905041 12.27503519671259 29.018570702980472 218.24232419479344 0.7303992462004633
2.039024915384768 12.225610933286186 27.1904112625769 228.61837992442946 0.7483552405313715
2.0454149262148396 12.17459101957609 25.5063639491719 239.5904851335625 0.7671299305094806
2.0510285374260437 12.122134358324193 23.95435989066964 251.2056288761578 0.7867893917839563
2.0558420574857914 12.06814453011678 22.52228831415451 263.50984853237856 0.807388492237259
2.059825814327581 12.012646571752104 21.205161685164523 276.5534896171601 0.8289871941257392
2.062980127640057 11.955651292964545 19.989945594725434 290.39163943866146 0.8516509801767413
2.0652933421166506 11.897164466883964 18.86845089925163 305.08461158724185 0.8754513348825311
2.066768473158459 11.837246949924571 17.83400649575642 320.69848779312844 0.9004662870023311
2.0673728880061173 11.775869836041286 16.880469857598097 337.30572461464584 0.9267810202194238
