M[M_sun], R[km], Lambda[1], P_c[MeV/fm^3], rho_c[fm^-3]
0.23835315348680472 16.224115897624433 2803846.7813616297 3.45143464264431 0.16959267850507953
0.24833578621903607 15.880168285000062 2300930.3183653196 3.6331627588441355 0.17196367999766654
0.258603899659899 15.5759061247856 1897327.0774609179 3.8216217050500645 0.17434238984341469
0.26915558612456414 15.305819760268635 1571342.0669991176 4.017036864058762 0.1767297744773311
0.2799925863539385 15.065310718428584 1306555.2224325833 4.219644201225533 0.17912680629257116
0.29110986901493724 14.850638610046117 1090637.5448717715 4.429690549038445 0.18153446198002304
0.3025157507151857 14.658464255261363 913471.1774274214 4.647433908212797 0.18395372123649462
0.31420354247898835 14.486390701195948 767718.6799989372 4.873143765876053 0.18638556578369994
0.3261734931724212 14.332003123775088 647297.1271687557 5.107101431194454 0.18883097864680176
0.33842535462769446 14.19339344557812 547345.8630589959 5.349600388613129 0.1912909436477863
0.3509633481044922 14.068584655760178 464163.8996240321 5.600946668742076 0.19376644507523247
0.36378642847996795 13.956302613518226 394630.5175922395 5.861459236817736 0.19625846749807466
0.37689102434914923 13.855225900615352 336414.0847277093 6.131470398601529 0.19876799569666098
0.3902857613070962 13.764211398929218 287457.91685017 6.411326223544415 0.20129601468974104
0.40395783015924774 13.682237649813358 246196.0962038712 6.7013869850469625 0.20384350984095848
0.41791214624544276 13.608450215799104 211321.78319579505 7.002027617679405 0.2064114670329696
0.4321559580807814 13.542117302692406 181759.82014599192 7.313638191294557 0.20900087290142852
0.4466782939196571 13.482452285165133 156668.9482736104 7.636624402069743 0.2116127151247978
0.4614832361973733 13.428934509143069 135292.2255437213 7.9713171013142015 0.21424661606201623
0.47657001178065334 13.380949579271258 117054.68817800771 8.31714386476857 0.21688891653847864
0.4919368326701579 13.338017024530881 101453.0543565753 8.675549684350557 0.2195559899553891
0.5075991727108597 13.299783521728749 88073.96657208825 9.047006025859682 0.22224888989719163
0.523531851820979 13.26566580229054 76585.08736626079 9.432002939172815 0.22496867336568635
0.5397397131633876 13.235407003626781 66706.18624115687 9.83104969089649 0.22771640149919853
0.5562326408535124 13.20867962823058 58189.58966521321 10.24467542122639 0.23049314037490148
0.5729969226183886 13.185163998625423 50833.9628506828 10.67342982692575 0.2332999619072659
0.5900369262991141 13.16461744161026 44474.75648123199 11.117883872754328 0.23613794485652667
0.6073494525119206 13.146724107097407 38961.40484807885 11.578630534141057 0.2390081759617288
0.6249315578521013 13.131294562645808 34177.034961441 12.05488230542316 0.24189547202907177
0.642784403647572 13.11815712718834 30018.90613017789 12.54808906281124 0.2448113881722095
0.6609001234839046 13.107007800311724 26402.890568971896 13.059391309799661 0.2477627730923958
0.6792774361656186 13.097768659707791 23247.85471347299 13.589479666991291 0.25075081909734537
0.6979131038245716 13.090184353605586 20496.029888843266 14.13907160594327 0.25377673421994584
0.7168035571806579 13.084159146294907 18090.848178099015 14.708912497818691 0.2568417443261445
0.7359465803208526 13.079523328458656 15984.224456001597 15.29977672702457 0.25994709544472067
0.7553314951829807 13.07617429544499 14040.979688849064 15.912468877214762 0.26309405633396316
0.7749595368659398 13.0738983945013 12520.65421683755 16.547201987582532 0.2662779697336661
0.7948219676729383 13.072707966743913 11099.779282053674 17.203643895315896 0.2694894288182845
0.8149176871934424 13.072366454285739 9849.529351955729 17.884433480921395 0.27274681044270604
0.8352435400640671 13.072900924540063 8748.71141202565 18.590515730555563 0.276051562482949
0.8557827426360801 13.074062264895824 7778.82438750881 19.322873868668314 0.2794051714635534
0.8765424657135038 13.07589751992039 6881.054960770667 20.082531190927366 0.28280916674172146
0.8974985762711849 13.078190050256518 6167.248590503938 20.870553040055526 0.2862651250239304
0.9186539620857966 13.080953433229071 5499.458442931028 21.688048938379225 0.2897746752274319
0.9400027253710819 13.08407017132714 4907.622958362858 22.536174891822327 0.2933395036988798
0.961535599010717 13.087435345893855 4383.951790227834 23.41569157177305 0.29695791533878324
0.9832471085518024 13.091063789917209 3919.499507809635 24.326204870353404 0.30061947821484386
1.0051196963900317 13.094794576275648 3507.0349000705073 25.271112052968952 0.3043426111888876
1.0271386474672481 13.098605035800656 3141.305245366847 26.251794730906816 0.30812934054601404
1.0493135834270277 13.1023914228077 2815.6693985435086 27.269696473045748 0.3119817806343381
1.0716221390412783 13.106188748602198 2525.9825882970854 28.326326500903487 0.3159021415237434
1.0940586486934698 13.10983393849674 2267.958150692774 29.42326368602889 0.3198927371393215
1.1166057580635675 13.11332447541804 2038.1136889355507 30.562160873927194 0.32395599388976976
1.1392585466459326 13.1165809154006 1832.7616294265822 31.744749560241196 0.32809445981327834
1.162008323774473 13.119641382148787 1649.6319280556788 32.972844946590705 0.3323108142661347
1.184828541420589 13.122304672276368 1485.8676475811105 34.2483514053075 0.3366078781823881
1.207714757402052 13.124648105447594 1339.5318444837355 35.57326838432595 0.3409886249364897
1.2306524263371568 13.126529609216043 1208.4491289510927 36.94969678572549 0.34545619184486526
1.2536206359455684 13.127934201842764 1091.2024304546464 38.379845853905344 0.35001389234692293
1.2766197548125162 13.128854399447228 985.9700814515384 39.86604061213437 0.35466522891106006
1.299638820163444 13.129218538896245 891.5874742379782 41.41072988929743 0.35941390671683765
1.3226463346831465 13.129031610338444 806.8588653843402 43.01628972285952 0.3642627146034088
1.345629316479601 13.128180937548455 730.7750925690725 44.6855988395188 0.3692167164429922
1.368577196490637 13.12665294002812 662.3797291474044 46.42187579717391 0.3742821542004102
1.3914805423852294 13.124401289937547 600.8093174187852 48.22818492532946 0.3794637457842639
1.4143096281506162 13.12140958155003 545.382588270746 50.107120365015994 0.38476319246336715
1.437045979847472 13.117641970866531 495.43397629469797 52.062317623383976 0.39018702670193633
1.4596888635498384 13.113043764060295 450.44325832483156 54.097438779437454 0.39574115649467523
1.482216814667599 13.107624228922715 409.8127036623943 56.21629981846953 0.40143151677752464
1.5046051358563168 13.101276966513375 373.18887537383506 58.4229482908382 0.4072644152836147
1.5268246673558707 13.094003550484427 340.04212682517533 60.72168053286885 0.4132465584957087
1.548883300206961 13.085817533165114 310.0999804450584 63.117060278140336 0.41938507950286935
1.5707429904635581 13.076587425407427 283.01679718555334 65.61393878083614 0.4256875679388364
1.592396002836266 13.066387031142796 258.48889429233276 68.21747658524082 0.43216210219752693
1.6138087250443678 13.055077201718989 236.27084107839926 70.93316708924414 0.43881728414078663
1.6349827719821215 13.042766034285101 216.12450568307096 73.76686206501014 0.44566227653518437
1.6558755576271054 13.02930579587825 197.86892170515094 76.72479931697198 0.45270684347855483
1.6764915468415325 13.014731118507914 181.29722349972715 79.80815828981956 0.45993859113202157
1.6967940316028838 12.99899194710114 166.23982814298068 83.02739867184312 0.467383377453501
1.7167591662473733 12.98207696651584 152.5531137381311 86.3913674624329 0.47505848112792476
1.7363958621790914 12.963962265100198 140.10036377822144 89.90812001818524 0.48297643068216106
1.7556443730433797 12.9445942641007 128.77994112864346 93.58627247684224 0.49115060481007455
1.7745118670224118 12.92398544646791 118.46501125855173 97.42634228706748 0.4995615756738703
1.7929541973435492 12.902058696133745 109.07442014490726 101.444081698747 0.5082483588201426
1.8109853000023588 12.87886977126561 100.50543227378157 105.65179604039733 0.5172341458265061
1.8285533238928389 12.854339152202295 92.69445333071457 110.0578829161933 0.5265255128278348
1.8456630065248447 12.828502633684161 85.56353873450806 114.66614454261502 0.5361107897625154
1.862287764013283 12.801271026922487 79.0459052027848 119.49950210442763 0.5460473024558388
1.8783897970556094 12.772664791893574 73.09256475108006 124.56692108519917 0.5563384244612122
1.8939594097545205 12.742653225791294 67.64871974991689 129.87615483385562 0.5669817504605633
1.9089910206703513 12.71124734610186 62.660354325652825 135.45392786683027 0.5780403335109128
1.9234499592731955 12.678420630833116 58.09601309663858 141.30161926843894 0.5894847818511968
1.9373150952376372 12.644126229830748 53.91546734851644 147.4489560187492 0.6013829650905428
1.950585586995157 12.608386378872712 50.08301923196197 153.90480099530546 0.6137269406227971
1.963222638892755 12.571162356432163 46.570179406748 160.6961517573905 0.6265684848861135
1.9752253912244249 12.53249944772818 43.341234132592426 167.8359178234859 0.639907842504909
1.986544598123864 12.492281878485946 40.37846216468104 175.35795772583558 0.6538127340967167
1.9972205265754066 12.450642394406836 37.654914906199075 183.27047020855628 0.6682607177850134
2.0071807175957317 12.407482136719585 35.15474251031571 191.61500484913935 0.6833368769303716
2.016441218897701 12.362831676501349 32.852052389269666 200.4140434838514 0.6990579726045332
2.0249712983060135 12.316634239325737 30.734675679381724 209.69338165121334 0.7154470786325814
2.032753987287563 12.268971333867391 28.785304107715646 219.49422487029236 0.7325725521496631
2.039802247462522 12.219829333729752 26.98871660157093 229.8512797572218 0.7504753689626494
2.0460646429124094 12.169139067247851 25.33441416969669 240.79928502201264 0.7691902103271965
2.0515468012106277 12.116938076372346 23.809300278715376 252.3799165230165 0.7887672441459134
2.0562240874228945 12.063243181293219 22.40131576422142 264.6428693335582 0.8092748629558638
2.060116867506062 12.008126558048653 21.103359499808754 277.6375124929805 0.8307716695432701
2.0631831865672536 11.951492564289588 19.9065411385806 291.4178358924014 0.853321649016171
2.065403815118106 11.89340501518061 18.800489709868582 306.04291796694145 0.8769946299462219
2.0668219002508774 11.833938510164987 17.780917468624903 321.5774483698047 0.901866804223556
2.067382444881661 11.773052595748846 16.838791235604287 338.0923127156256 0.9280213121617032
