M[M_sun], R[km], Lambda[1], P_c[MeV/fm^3], rho_c[fm^-3]
0.23835315348680472 16.224115897624433 2803846.7813616297 3.45143464264431 0.16959267850507953
0.248203922978912 15.884450522306865 2307055.8524045967 3.6307395433546956 0.17193224603820087
0.2583341051960516 15.58337392438956 1906853.2608502544 3.8165965772602073 0.17427928894356334
0.268743508046085 15.315615888605036 1582776.441574056 4.009224804053099 0.1766347982627525
0.2794239149137344 15.077093813397344 1319004.02149959 4.208853501108306 0.17899976734577192
0.29038563437922127 14.863685302150865 1103252.7267793866 4.4157224260392125 0.1813751903467293
0.3016213712453859 14.672599728788446 925952.0485886005 4.63008209510247 0.18376206106882265
0.3131340790465041 14.501288720639216 779822.8909690877 4.852194077787441 0.1861613721007633
0.3249239219718098 14.347290399964516 658694.2924079695 5.082331307713811 0.18857411419376233
0.33698882133014857 14.20873716207213 558022.348645176 5.320778409788678 0.19100127583505008
0.3493301695456377 14.083982241734557 474054.55421908543 5.567832043439869 0.1934438429804136
0.3619444815311799 13.971658619063485 403802.4524337846 5.823801261645473 0.1959027989144384
0.37483989485840147 13.870263442929106 339972.588887845 6.089007885414158 0.19837912421292445
0.3880107894320027 13.778845923050355 295131.8027382635 6.363786893341633 0.2008737967873245
0.40145740433852356 13.696423397583473 253155.75002548122 6.648486825870423 0.20338779199598186
0.4151782292361896 13.62227464951089 217666.11324479416 6.943470203914893 0.20592208281144211
0.42917614676720395 13.555272208673873 187515.29331954676 7.2489571345627395 0.20847514098342915
0.4434519683157632 13.495035929242333 161856.5130084763 7.564498782842485 0.21103512432028732
0.4580076508887328 13.440883606877039 139978.35622149048 7.891385847613078 0.21361758828665187
0.4728353764710821 13.39229450719654 121277.83914990188 8.230038768110777 0.21622355645195493
0.4879369429500429 13.34869234656818 105258.57087449127 8.580894442759515 0.2188540513969894
0.5033145350320221 13.309765659344556 91510.50874999673 8.944406758930825 0.221510095245124
0.5189650070116512 13.27498708874568 79683.59293684628 9.321047139977043 0.22419271024737975
0.5348841698688142 13.244035090987847 69498.86885215045 9.711305110462867 0.22690291943186833
0.5510793743186073 13.216629697878187 60702.73273114332 10.115688880847326 0.22964174732948173
0.567540442128896 13.192420442975695 53099.5833082797 10.534300633265216 0.23240485062454003
0.5842728219649421 13.171256283856453 46515.25895018474 10.96663911208139 0.23518080597004795
0.601271938753456 13.152718854612534 40797.090232425166 11.414621421980744 0.23798821904338122
0.618526088303169 13.136631823888742 35834.231399642274 11.878836690420908 0.24082818820459254
0.6360539519030846 13.122835345632447 31255.618278370108 12.359896433957283 0.24370181836463053
0.6538343088150006 13.111058204262202 27749.08921024042 12.85843534040375 0.2466102223979421
0.6718715389826835 13.101262345294407 24464.134185941562 13.375112090594243 0.2495545227188354
0.6901618527655546 13.093106241561019 21592.83888746369 13.910610224540969 0.25253585303710796
0.7087017872615634 13.086534312604078 19078.460595892047 14.46465018039669 0.255545104541856
0.7274856138373592 13.081369822836248 16877.13800776784 15.037447975642841 0.2585789778990641
0.7465161276318443 13.077521654735095 14945.00449564373 15.631164413103143 0.26165355237463406
0.7657858144421164 13.07483048196101 13248.681924857114 16.246595881913567 0.26477008588100653
0.7852813948222133 13.073166032999216 11757.236106616021 16.884569466348257 0.26792985881365694
0.8050035050834958 13.072449508101176 10444.245767184533 17.545944236266937 0.2711341770755921
0.8249520161282577 13.072545128341737 9287.47192184529 18.231612631276704 0.274384375373321
0.8451217454111882 13.073353012565564 8265.636065033825 18.942501948708177 0.27768182079611187
0.8655009450674247 13.074850977729698 7363.93295948111 19.6779425281857 0.28101388067487215
0.886075724031716 13.076893134766527 6566.374621541824 20.439344010887893 0.2843864457636169
0.9068521705768637 13.079376514919383 5860.918228267867 21.2289085645074 0.28781120793111675
0.9278237117825445 13.082243607915501 5235.5625465325165 22.047729103883455 0.2912897576038915
0.9489700429830804 13.085421357120772 4681.233717953323 22.89694354943814 0.2948237387791088
0.9703008033108013 13.088916868376035 4189.296518901897 23.777737196031616 0.2984148544757049
0.9917880363963207 13.092484836769177 3752.312555242545 24.691345275863938 0.3020648725522217
1.0134306127327966 13.096204895084123 3363.591126474382 25.63905573229376 0.3057756319026269
1.0352311707897757 13.100016252389258 3017.833199708357 26.622212222424515 0.3095490490419892
1.0571709297955658 13.10377885985577 2709.627223615574 27.640475236075474 0.3133748727593265
1.0792364210597158 13.10745458474088 2434.8905407141774 28.69613061840779 0.31726166646704745
1.1014196171336066 13.111007547068057 2189.8674497798743 29.79167004116387 0.3212184725554072
1.1237100865113094 13.114404638793554 1971.1026458226813 30.928710838313055 0.32524763557184155
1.1460894185571717 13.117524044011075 1775.4823154950493 32.10894595374778 0.3293516157897147
1.168567039137391 13.120403632199109 1600.5631226232326 33.334148746129905 0.33353299854963137
1.1911073407549688 13.12296816141226 1444.1431972343598 34.60617818128072 0.33779450413575757
1.2137157191442352 13.125154457280226 1303.781499630109 35.92698444134025 0.34213899821567045
1.2363675963392604 13.126911781934854 1178.0408445012927 37.298614981944304 0.34656950287600835
1.259047402907748 13.128192470748667 1065.3317524377715 38.72322107091288 0.351089208290406
1.2817666359975317 13.129025175729174 964.0190122317698 40.20306484444454 0.3557014850608983
1.304482178090668 13.129271045632326 872.9870234746951 41.74052691959734 0.3604098972791689
1.3271843757827992 13.12891923645571 791.2214965813101 43.338114604946576 0.36521821635974316
1.3498738626470217 13.127959667374455 717.5676134335798 44.99847075478468 0.3701304357035062
1.3725194352458627 13.126361078455435 651.3421176992294 46.724383316098745 0.37515078625676634
1.3951095311392032 13.124010326500546 591.618175042424 48.51879562188995 0.38028375303858114
1.417631914441898 13.1209248308776 537.7620087942898 50.38481748921367 0.38553409271718303
1.4400692907999304 13.117107469681228 489.21148154276466 52.32573718568884 0.39090685232519246
1.4623981627383928 13.112448774693586 445.3526508117966 54.345034334200285 0.39640738921293606
1.4846131998945857 13.106969140926221 405.74529221506265 56.44639383215866 0.40204139234963654
1.5066891444736839 13.100615297506378 369.932145594802 58.63372086907026 0.4078149050936439
1.5286134419791957 13.093373328243636 337.51508791785454 60.91115713435953 0.41373434956525706
1.5503735484290448 13.085198702689002 308.15898168106025 63.28309831649909 0.41980655276925144
1.5719399517745927 13.076042320712867 281.59778721013424 65.75421300459018 0.42603877462897877
1.5932979780274275 13.065902823235932 257.49923430135516 68.32946311475011 0.4324387381101205
1.6144325815985368 13.054757646440017 235.64602070340902 71.01412597608669 0.4390146616298999
1.63531334732094 13.04251318818454 215.81877100543755 73.81381822483645 0.44577529396706267
1.6559335264784227 13.029244343538094 197.83456792574012 76.73452167054674 0.45272995190938436
1.676290513850126 13.014851672636569 181.43396231366765 79.77760850857993 0.4598677204766263
1.6963394130982274 12.999345292333441 166.56758721560522 82.95295236521318 0.4672126873168675
1.7160545449082678 12.98269743470761 153.01867789873256 86.2689222712835 0.4747809396011503
1.7354445335660649 12.964861662252765 140.684658276087 89.73321580774098 0.482584401478394
1.7544610024189415 12.945778164544414 129.44528466173028 93.35405864840585 0.4906357959508823
1.7731057595566186 12.925511340656252 119.2018392891515 97.13550797155496 0.4989303357225894
1.791364146953404 12.904028447673632 109.85959926391234 101.08577433857789 0.5074786089398415
1.809188547655924 12.881243003651743 101.32799529699992 105.21982429742393 0.5163154112027816
1.8265966265252704 12.85720325618656 93.54785092851895 109.54838951549637 0.5254571628298088
1.8435372692406549 12.831834839524493 86.42469056225835 114.07612313308859 0.5348916019423772
1.8596834741346084 12.805255057782357 80.01629935435479 118.84868268815889 0.6023465707719997
1.8744040361117076 12.776994871359387 74.3599458433761 123.93305267276898 0.6804868587451323
1.8876877384442183 12.746624427200466 69.34216237606586 129.3501666769831 0.7599316034369268
1.8995375922187734 12.713850649774473 64.87110393064421 135.12054318876946 0.8409037606225678
1.9099933708655594 12.678466295610663 60.85582491860289 141.26645101935563 0.9236453951749596
1.919091165907281 12.64040254962764 57.23488922737544 147.81147962462126 1.0083295860428234
1.9268807773858843 12.599611442408548 53.95009889571743 154.78199574283687 1.0952740391396711
1.9334250748774573 12.556166908839069 50.96314673718819 162.20582721964558 1.1847063095827173
1.938748960441767 12.509979251877592 48.236741227282664 170.1140682839227 1.276951327738019
1.9428935321822713 12.461166950421225 45.736334244702924 178.53953492697954 1.3722719060733979
1.9459144567245763 12.409723854936365 43.43951523664549 187.51830213146562 1.4709857917223315
1.947846297598683 12.355784114001814 41.3216615913261 197.09012360932738 1.5734537403123041
1.948712235412597 12.299357174682353 39.36769376743895 207.29722934199913 1.6800047828323634
