M[M_sun], R[km], Lambda[1], P_c[MeV/fm^3], rho_c[fm^-3]
0.23835315348680472 16.224115897624433 2803846.7813616297 3.45143464264431 0.16959267850507953
0.24769855105811422 15.900679706671548 2329610.8685329612 3.62139666760745 0.17181105022263615
0.2572945631565334 15.612236299451894 1943536.6025083822 3.797265454475371 0.1740365466106575
0.267141429068269 15.3542770565244 1627773.783962823 3.9792389334775757 0.17627024083794487
0.2772356267625692 15.123290582138061 1368270.0929764593 4.167523956403039 0.1785131944845108
0.2875824005107224 14.915603866057953 1153865.9405279262 4.362336489039072 0.1807664567766286
0.29817634631875967 14.728561724738652 976270.2493454275 4.56390181730375 0.18303106407969932
0.30901339741920486 14.560069993883626 828539.626251413 4.772454766578897 0.18530803959389924
0.3201103537491792 14.407802397585199 705078.8798816438 4.988239933580588 0.18759839320588167
0.33144905731813445 14.27016097391486 601677.907970374 5.211511929970122 0.18990312145754515
0.3430407141398189 14.145562175644697 514752.6581198482 5.442535636808961 0.19222320760001826
0.3548790495750066 14.032826463249641 441436.67845204205 5.680722477119848 0.19454361959143704
0.3669647747947499 13.93068377442454 379466.5568623827 5.926913969865932 0.19687666834634243
0.37930002100669197 13.838004506618642 326893.2683519275 6.1815992620713915 0.1992270755780032
0.39188729207219963 13.75401213046182 282204.2720575035 6.445083946357026 0.20159583201689943
0.404722947860724 13.677958760937141 244113.26257506068 6.717685337617263 0.2039839149025996
0.417807938738808 13.608951043304758 211569.235908406 6.999732788707395 0.2063922883668058
0.43113870229288165 13.54663721074473 183717.51496851924 7.291568012530043 0.2088219038087179
0.44471743760534815 13.490044451948268 159803.139433113 7.593133508678106 0.2112673259239761
0.4585535490437839 13.438981147659913 139226.30348816607 7.903839205755594 0.21371559135560778
0.4726324603657734 13.392911407659753 121509.39947000453 8.225301036197374 0.21618736686217455
0.48695351921157337 13.35133817364665 106218.01849567112 8.557911081655316 0.21868361279169418
0.5015321634910153 13.313988176526852 92982.69382854343 8.902075646433984 0.22120527825700237
0.5163521927637212 13.280441380039564 81529.59559681467 9.258215634827156 0.22375330166290383
0.5314170714335489 13.250445316617862 71579.40729279301 9.626766934144525 0.22632861126534642
0.5467287976475905 13.223619471468774 62925.983374998556 10.006188067709779 0.22890620005478246
0.562280492305601 13.199802127059744 55400.35199766574 10.398460529131848 0.23150821970779195
0.5780768421689684 13.178717483876047 48830.50693212245 10.80440113940882 0.23414010111141081
0.5941125910109334 13.160172406106055 43096.30655058713 11.224508892090016 0.2368027933782726
0.6103895945984171 13.143891447711784 38080.339371086004 11.659300151811506 0.2394972388563967
0.6268998873469606 13.129701734390968 33686.1327485547 12.109309125343621 0.24222437414434728
0.6436472720585842 13.117533597869702 29834.703687884165 12.572388608471883 0.2449546564944978
0.6606265075884736 13.107166591351858 26453.07831178303 13.051473178548573 0.2477173599220399
0.6778322523627455 13.098406913898026 23478.150842112795 13.547346827008825 0.25051569322274014
0.695265569518144 13.09110468668914 20861.304549467706 14.06062162759365 0.2533506355010702
0.712932520253762 13.085259701742164 18555.095890348264 14.591930671111474 0.25622316651493465
0.7308061379211297 13.080576080188138 16518.876785457855 15.141341947474697 0.25912834960493164
0.7489026093913853 13.077127397865745 14722.341666877037 15.7072879960557 0.262045545261263
0.7672161434770788 13.074657351829464 13131.614426616065 16.293168252491977 0.2650036996508233
0.7857374552052973 13.073159178370917 11646.983054684146 16.89971054580924 0.26800386528744874
0.8044649897424714 13.07245506137149 10477.851201251166 17.52766802830582 0.27104710540862526
0.8233884040966345 13.072531238738254 9372.268411235615 18.177820103018433 0.2741344967573751
0.8425167378091871 13.07321966394162 8390.007141770051 18.849611977995874 0.277255123903158
0.8618296523090073 13.074571127115634 7517.597096088367 19.542776116117615 0.28040148235041745
0.8813252031127343 13.076362036400194 6741.390331672948 20.260537695205453 0.28359603848301657
0.9010014786504361 13.078663108058835 6050.273087079163 21.003799088143424 0.2868399994805582
0.9208537621365239 13.081248705025828 5434.367754043184 21.77349546303924 0.2901346020069935
0.94086628454185 13.08418457183521 4885.7850386288865 22.57059627714843 0.2934811164097752
0.9610484817892715 13.087377056621612 4395.27185739675 23.395142868179803 0.29687337610267583
0.9813814161013729 13.090711150388595 3956.9539950461635 24.24609453827084 0.3002974662748003
1.0018563750627827 13.09422005010673 3565.4464937079965 25.127526949840483 0.30377850619018715
1.0224721932128191 13.09782361136447 3215.1731762720483 26.040575152544292 0.30731798473486155
1.0432143838449424 13.101350718441736 2901.3539777365395 26.986418747560457 0.31091744791653747
1.0640807719472571 13.104928825359925 2620.111168850477 27.966284318513548 0.314578504753812
1.085055058999824 13.10835989524668 2367.708648018462 28.981448067027245 0.3183028334763521
1.1061441048221103 13.11174233899974 2141.3389693151007 30.031819453152302 0.32208266660686047
1.1273245967856618 13.114921636381144 1937.9627372320067 31.117779899693765 0.3259138734771669
1.1485815511416564 13.117884637885153 1755.1057818220645 32.24322435636174 0.3298151264102542
1.1699231263111833 13.120602576403106 1590.6668176130838 33.409673501250275 0.3337884765402885
1.1913328180597542 13.123037353549593 1442.54641927634 34.618715009208344 0.33783607879252103
1.2127921583017243 13.125088436932979 1309.193433812973 35.87200775120837 0.3419602002390127
1.2342907205737361 13.126791734197054 1188.9896047884276 37.17128632617394 0.34616322885938794
1.2558320601706099 13.128087262852503 1080.6050834367118 38.5183659481153 0.3504476827267146
1.2773725251290735 13.128887544367593 982.7852451742767 39.91514771285909 0.35481621964183896
1.29894038130642 13.129237644069173 894.2687097967214 41.36293560256492 0.35926776632762236
1.3204984885091573 13.129073337319795 814.4092482152765 42.86251944154313 0.36379832670756007
1.3420449433734283 13.128362530600835 742.1395978568726 44.418266941538555 0.3684234406562306
1.363561330214076 13.127037998083123 676.7360161539633 46.032504160518705 0.3731464539759978
1.385030014198327 13.125136058438075 617.4554045015839 47.707676577734354 0.37797090828287916
1.4064305950606377 13.122524598024253 563.9106820107564 49.44635726348981 0.38290055427811664
1.427783324955303 13.119282901732998 515.1818078479687 51.25125566262018 0.38793936576322063
1.4490399340068407 13.11533413314828 471.10739367729286 53.12522703650502 0.3930915544601261
1.4702010551483515 13.110621677731652 430.9989385922712 55.07128261242189 0.39836158570485336
1.491257277282452 13.10516252156641 394.5841325212764 57.092600493478486 0.4037541950903778
1.5121724173587132 13.098873600837422 361.534558127326 59.19253738726896 0.40927440614223703
1.5329521406618056 13.091826929336236 331.44888945282617 61.37464121685456 0.4149275491188708
1.5535799464531495 13.083911694016946 304.05713819241987 63.642664683703615 0.4207192810378147
1.57402415262695 13.075077544039612 279.1396437350695 66.00057985890231 0.42665560703872685
1.5942878996968166 13.065401184282958 256.44238131492955 68.45259388632935 0.43274290320491754
1.61435067716153 13.05480608335692 235.7409120284503 71.00316588964814 0.4389879409766637
1.6341883158633999 13.043240508287061 216.86246671720122 73.65702518397627 0.4453979133022052
1.6537863495599932 13.030723569544197 199.6313219234303 76.41919090304872 0.4519804626861086
1.673136385657176 13.01719261236501 183.89314449650985 79.29499316367952 0.4587437113097304
1.6922187291934034 13.002675132929793 169.53122702112066 82.28822930496722 0.4656886134559463
1.7110180645302 12.987130614927871 156.3823268292899 85.40374314809024 0.4728198733270858
1.7295038476498388 12.970473635044309 144.36329217426413 88.65029108876304 0.4801571407838558
1.7476888035401672 12.952793482889252 133.35541114286565 92.03465530070571 0.48771073099321993
1.7655274756880894 12.933984472145886 123.28407208668558 95.56406088477496 0.49549162121519524
1.7830215704024652 12.914105056381194 114.05566901495787 99.24620939166331 0.5035114975406152
1.80014485862802 12.893081836165265 105.59070604251411 103.0893151393975 0.5117828054567128
1.816880078835348 12.870884419611151 97.83513746437424 107.09393168467588 0.5202879548381568
1.8332134942840468 12.84749728535472 90.70701712790841 111.27589515911077 0.5290661563352229
1.8491334501392167 12.822982835037381 84.17128963606235 115.64596526840126 0.538135437471073
1.8646211970491924 12.797257199183987 78.15943971169892 120.21478010491836 0.5475117466215551
1.8796654852790793 12.77031214151898 72.63332291144322 124.98401270966895 0.5571772309614802
1.8942314044097068 12.742120921963107 67.55263490672532 129.9719082103671 0.5671726550606491
1.9083274147022944 12.712715810735641 62.87745955664334 135.19398415624096 0.5775264704961889
1.9219121700931305 12.68203267216934 58.57252825255539 140.6551083051574 0.5882276904414674
1.9349786195123369 12.65007954530081 54.609887319481324 146.37218594999996 0.5993060137849158
1.9475332831104752 12.616878162786081 50.950952046530944 152.36696019161337 0.6108052357844982
1.9595327547446535 12.582374885156861 47.580239045546286 158.6396171024155 0.6226927618725877
1.9709711581356903 12.54658311461049 44.470146353372776 165.2231262043861 0.6350459644165393
1.9818451651329043 12.50949389431599 41.60159754962846 172.12508785943209 0.6478528525839581
1.9921262625048244 12.471119102824032 38.95185970311675 179.3713946290651 0.661160630179515
2.0018001401652215 12.431396194640229 36.50264593013638 186.97797730146888 0.6749798055859833
2.0108593208663543 12.390319783154029 34.23969424730039 194.9728343280054 0.6893578607030008
2.019285164899234 12.347945151723774 32.144749632734815 203.371881553844 0.7042985287462413
2.0270768413710303 12.304302292546716 30.210035463207664 212.21271354889316 0.7198731774465353
2.034221656908316 12.259297736393508 28.415438056933706 221.50899690682573 0.7360702066672904
2.040685427934274 12.212951631699852 26.754628357159138 231.30144547427415 0.7529620178839903
2.046486497810824 12.165369621593182 25.21798082567705 241.62319856295684 0.770591059685311
2.0515961989617586 12.116399821697797 23.79354028142064 252.49960332517455 0.788968832594005
2.0560019936563183 12.066147982172371 22.47335761221092 263.97523554854587 0.8081633168823166
2.059697392225474 12.01456106108115 21.248771392122 276.0922456211353 0.8282279125729702
2.0626894192624863 11.961745435039688 20.113318601012047 288.894130583547 0.8492130050971239
2.0649546782930295 11.907616647783817 19.05990845314927 302.42827496677995 0.8711734637541505
2.0664851498849135 11.852234698071838 18.083309016404492 316.7457286896532 0.8941670387164219
2.067278189405459 11.795598497275646 17.17523668573107 331.90225149126127 0.9182567947969539
2.0673248030722884 11.73773844049041 16.33393425463794 347.96195664977984 0.9435221842733182
