M[M_sun], R[km], Lambda[1], P_c[MeV/fm^3], rho_c[fm^-3]
0.23835315348680472 16.224115897624433 2803846.7813616297 3.45143464264431 0.16959267850507953
0.24637326333875434 15.943785013654423 2390321.650062732 3.5970162382376207 0.17149478721098627
0.2545778088845389 15.68995336310415 2044141.3964819144 3.747145703733028 0.17340718920833428
0.26296480101790276 15.459630796944793 1753201.682490844 3.901984597469559 0.17533101041875893
0.27154173576632773 15.249863493242472 1507630.7273426116 4.0617005872565555 0.17726733562298477
0.28029778863607807 15.058902041400058 1299961.6098788257 4.225509085436924 0.17919585359304477
0.2892443009839677 14.884647171161426 1123521.7281746706 4.393926121408304 0.18112665781028736
0.2983716148336068 14.725398707772108 973387.1992924316 4.5676409288324855 0.18307236459037132
0.30767933305128853 14.579643185783787 845171.2396171176 4.746844200905265 0.18503396739692063
0.317176748362196 14.446238104466804 735313.6829421078 4.931733259352049 0.18701242293487622
0.3268546561897117 14.32385840946512 641111.6355363318 5.120599854348141 0.18897095635353287
0.3367215333752902 14.211603429596764 560046.7473283618 5.315423480308061 0.19094745750704925
0.3467662302023563 14.10869338522074 490163.4438140098 5.516434157933647 0.19294312568760874
0.35699766923931386 14.014027955146801 429719.1927985459 5.723854401798248 0.19495882999635025
0.3674137207890896 13.927080527788982 377372.00862673746 5.9361764788129925 0.19696415003974335
0.37801021394421536 13.847198224374502 331953.96955466387 6.154667528795178 0.19898043489914127
0.3887921574770385 13.773806036238453 292441.62900436396 6.380139054141497 0.20101902758892493
0.39975817413390685 13.706299382639145 258017.86534251078 6.61284078405923 0.20308071281873533
0.41091539763991575 13.64433241623668 227988.28418561237 6.850939785557978 0.20513185908262432
0.42224917637634196 13.58740292499628 201748.13541398998 7.096016176694754 0.20719696138507998
0.43377101928896794 13.535053064542351 178744.62326056755 7.348970062415122 0.20928738226710628
0.44546584478212803 13.487138415475433 158604.1099552194 7.610080607568779 0.21140382582015732
0.4573617003135663 13.4431721825555 140865.45964920227 7.876598392358692 0.21350121678425124
0.4694308250355422 13.402900647337393 125283.52591425349 8.151576107644473 0.21562421238875001
0.48168773772749135 13.366082798822312 111547.92312552899 8.435441767229364 0.21777541233103964
0.494123744931443 13.332417704699672 99448.63676043018 8.727509776645157 0.2199413124337487
0.5067476432858673 13.301751235508792 88752.38729455363 9.026460388708243 0.22210094530357838
0.5195466512899793 13.273785188368333 79287.84806381472 9.335097745986692 0.22429097236736237
0.5325293463034586 13.248389523934938 70906.13743638001 9.653757819181706 0.2265119732252749
0.5456930607819557 13.225317368373798 63477.05114100605 9.980008980775649 0.22872835302669256
0.5590298574387673 13.204508523957246 56881.71377282876 10.315635537806795 0.23096152218885807
0.5725576888640125 13.1857148691228 51011.14843612575 10.662183592882121 0.2332278209021869
0.586252732642513 13.168891689000201 45802.31488464093 11.01925791206122 0.2355183387923126
0.6001346638693579 13.153836322687425 41150.129781699405 11.384312926644172 0.23779923377100887
0.6141866390551161 13.140422272978755 37014.86643744874 11.761269838636654 0.2401154343015619
0.6284182887755617 13.128607173425506 33314.1962207463 12.150530063387636 0.24246740974341538
0.6428231094432159 13.118104580441486 30011.994006345183 12.549136023257944 0.2448175609734954
0.6573963392323403 13.108990513500551 27058.815161389048 12.959275710284771 0.24718857614719733
0.672142558725505 13.101122334233454 24419.08276907734 13.382819480374623 0.24959753445893623
0.687050907149344 13.09436089395356 22048.405660246866 13.818948257052792 0.2520313879589531
0.702134878470161 13.088709626278854 19926.67252510121 14.265325980727885 0.25446248109304787
0.7173760876651024 13.084015053992264 18021.775318899967 14.726308840094847 0.2569337328993369
0.7327811001319979 13.080154419511443 16311.729518285798 15.202374495912059 0.25944552969785234
0.7483502554171065 13.077234047494384 14773.774819630076 15.689517983554213 0.26195403986667026
0.7640752808349205 13.075015047759775 13389.648551721648 16.191419923286354 0.264493315264908
0.7799535717703613 13.073512820632295 12144.370306179197 16.70975378737082 0.2670753958278453
0.7959908405221133 13.072651709278917 11021.88140417136 17.243045556476062 0.2696820160120522
0.8121727081439963 13.072397426052833 10010.572484912846 17.78971080335217 0.27229553184853256
0.8284993790977343 13.072632246333216 9096.967727719331 18.35428366564907 0.2749542104280789
0.8449696373333423 13.073344676530663 8272.595486598735 18.937333463050443 0.27765840394344604
0.8615873259780862 13.074515934845218 7527.304337206992 19.534026899870288 0.2803618422853438
0.8783383699401789 13.076053815127203 6853.881847335056 20.149235596889824 0.2831040313158256
0.8952192755261448 13.077920483554529 6244.903747785199 20.784585510753967 0.28589422819506344
0.9122384927022477 13.080083921646384 5692.659610522396 21.438677694587074 0.28871623225568266
0.9293682807523991 13.08246397027659 5192.716673553655 22.10940292142379 0.29154954650249076
0.946635402940086 13.08509209151982 4739.331422543295 22.802099344334398 0.29443354109036907
0.9640102438808341 13.087864875726735 4328.01100824152 23.517452468053225 0.2973686125236226
0.9815003867309862 13.090771824275002 3954.5322392887547 24.251318919983902 0.30031846622882896
0.9990943077971826 13.093733226714292 3615.517999900716 25.00698358337916 0.30330492561602296
1.0167997113654488 13.096818157413885 3307.430364868573 25.787385821218987 0.30634541090015754
1.0345946668430106 13.099904412138654 3027.462044362021 26.593293101216965 0.30944039395158807
1.0524879335378503 13.10298076239549 2772.258433743164 27.41842975454693 0.31254060218466073
1.0704627585594626 13.105990433192689 2540.3277699765754 28.27038994347002 0.3156964998300095
1.0885272546546603 13.108998979609629 2328.7403869548775 29.15023670052172 0.31891023089536336
1.1066571683653352 13.111844128723956 2136.156121039167 30.058032396701375 0.322176995673497
1.124868429742371 13.114610081242985 1960.416507413122 30.988858454128295 0.32545958257828683
1.1431324169431702 13.117161783081569 1800.1270515027477 31.950226205350898 0.32880373699730153
1.1614547716113537 13.119575513387286 1653.8326542582568 32.94309367297039 0.3322101744746929
1.1798377303964278 13.121786548643996 1520.161213296169 33.96809665647214 0.3356774575161964
1.1982642119321159 13.123739587193738 1398.0288410503113 35.01954068298302 0.3391652977867794
1.216707673267024 13.125384707064766 1286.3165315749195 36.10556617732764 0.3427197907840477
1.2351986317910917 13.126821628192472 1184.209662155898 37.22727480756938 0.34634187415398704
1.2537123397182306 13.127936064063851 1090.6991387402886 38.38580636683846 0.3500325583259186
1.2722458455467283 13.128735394657527 1005.0855177673158 39.57727957309983 0.3537637831536489
1.2907842705770673 13.12917414784819 926.6808483311538 40.80584125223293 0.35755485553003796
1.3093199910658786 13.129191202170698 851.2755439551917 42.07497709990325 0.3614199404043351
1.3278556165137303 13.12889714304815 788.883741547937 43.38601762202273 0.3653603628968622
1.3463721110131501 13.12811113981391 728.4344610890229 44.74034506080498 0.36937754725200617
1.3648662095171593 13.126955660238446 672.9173014313288 46.13324022359673 0.3734402760181653
1.3833151490609161 13.125276275878909 622.0263626691985 47.57182201846385 0.3775812723015349
1.4017379268471335 13.123186971828956 575.1670945674413 49.05832529136654 0.38180585339777384
1.420093663637625 13.120478966868706 532.1783368993472 50.594388154128374 0.3861158707216974
1.438420808452832 13.117388890441608 492.6040391202305 52.18171934177629 0.3905133062523523
1.4566671939393472 13.113736923692954 456.20641602520607 53.82009470449223 0.39499036390242015
1.4748366470887697 13.10949731537635 422.6888416806169 55.50954184660644 0.39954085825347957
1.492914330719021 13.104700231104056 391.86128061622435 57.25606730605218 0.4041874719681256
1.5108961779142511 13.099295011244674 363.46306887312636 59.0617250112064 0.40893275410831414
1.5287775818540759 13.093326767678263 337.27968373765106 60.928665407991055 0.4137794230965189
1.5465498397138948 13.086687018144826 313.14588472495683 62.859141678639894 0.4187303753419031
1.5642013281816392 13.07948102787229 290.86449507330536 64.8555163587611 0.4237886942793837
1.5817087437221624 13.071569217543093 270.3143899333747 66.92026837753605 0.42895765986026724
1.599081609729456 13.062982746047393 251.3443437346954 69.05224932643388 0.43422420841762427
1.616295931914402 13.053748705410875 233.81830836300477 71.25796791021001 0.4396091474309629
1.6333433213617585 13.04377417960066 217.63236469740684 73.54061126522889 0.44511771998613364
1.6502165638279178 13.033113857623587 202.66960295899105 75.90321915051422 0.45075408293538616
1.666905910349969 13.021649202198756 188.82591669305134 78.34899049376773 0.4565226480353712
1.6834102468274676 13.00954367233489 176.0240025035241 80.88129367553148 0.4624280953126488
1.6996990159088132 12.996649886673136 164.17792101741793 83.50367749230297 0.4684753872605696
1.7157796342805183 12.98296660756443 153.2071255871913 86.21988284879563 0.4746697839398976
1.7316258165257166 12.968485097955034 143.03701420057948 89.03385523409555 0.48101685906111374
1.7472372111343453 12.953237061643616 133.61831367025906 91.94975804143765 0.48752251713237177
1.762606897994768 12.937172341312664 124.88408332037798 94.97198679672401 0.49419301176357827
1.7777220628050254 12.920295828069328 116.78374846476189 98.10518436680033 0.5010349652241467
1.7925611170752982 12.902576174892456 109.26877510403637 101.35425722491297 0.5080553893596514
1.8071162817321575 12.883973501996431 102.3009978347859 104.72439285776736 0.5152617079809897
1.8213961988335483 12.864576573766206 95.82313634514195 108.22107840623642 0.5226617808488108
1.835370881098811 12.844286044007408 89.79579011050504 111.8501206401078 0.5302639293859909
1.8490351555803863 12.823126982067329 84.20507452022201 115.61766737636206 0.5380769642618762
1.8623881110388956 12.801109529998003 79.00804552537441 119.53023046045345 0.5461102150040692
1.87539882810412 12.778156591939387 74.17046968077308 123.594710440977 0.5543735618067113
1.8880701316721904 12.75432645654191 69.67258975904865 127.81842308007518 0.5628774697187228
1.9003888006663927 12.729554030807254 65.48163443617318 132.20459323129234 0.5716169702070693
1.9123421383093593 12.70385845777176 61.58139436256782 136.76416023074037 0.5806137018363855
1.9239406905874061 12.677279310697335 57.94747489788159 141.50694989736613 0.5898840316465422
1.935134838490718 12.649695566619508 54.56072182761929 146.4422145042972 0.599441089881011
1.9459435244965853 12.621195225283234 51.40481762110938 151.57978566871589 0.6092987989317215
1.9563555289756946 12.591752070588184 48.46248293097738 156.92954380596169 0.6194699761957947
1.9663661652597104 12.561363091766738 45.71282451467443 162.49385991839975 0.629940696252738
1.9759471359370655 12.530028433773584 43.14953875312368 168.2929950033408 0.6407565807084324
1.985091581361316 12.497679329720885 40.755309016302135 174.33950272380523 0.651935185234866
1.9937993734340815 12.464361935720456 38.519837718727096 180.64432207451196 0.6634870494470317
2.002086523635419 12.430178059302616 36.43183946587767 187.21353974322926 0.6754050648930687
2.009309770956183 12.396652642650372 34.59654473172394 194.29805637283664 1.3499862875689186
