M[M_sun], R[km], Lambda[1], P_c[MeV/fm^3], rho_c[fm^-3]
0.23835315348680472 16.224115897624433 2803846.7813616297 3.45143464264431 0.16959267850507953
0.24690154637234288 15.926448723956042 2365997.0138926813 3.6067360826930974 0.17162087306589996
0.2556604535714063 15.65862001511354 2003243.9698295286 3.7670708888023166 0.17365739122510973
0.2646324304390683 15.416816044095633 1701695.3877813946 3.932612501230344 0.1757033734520137
0.27380588891716606 15.19829112161254 1450213.5016267572 4.103541512751447 0.17775992897190854
0.2831980017223755 15.00026523555803 1239138.8256701296 4.280045794092649 0.1798281364747732
0.29279312551072717 14.820662141399707 1061945.0453693063 4.462073011490689 0.18190370326499206
0.302598863964554 14.65728211429538 912374.0063493868 4.649022189771918 0.18397126466599076
0.3126138647553713 14.508573628301622 785750.4940128658 4.842037593401197 0.1860526821942306
0.3228384082801815 14.373099049238292 678322.4886305957 5.041334782486982 0.18814898308623532
0.33326240733849205 14.249629083433174 586894.9351739939 5.2471373116621685 0.1902611651038708
0.3439116492097258 14.136853081505638 500929.37651948497 5.4596769040430555 0.19239019752266132
0.354759695290352 14.033880593529249 442124.9397868385 5.678248817927418 0.1945195212472745
0.36581445526374995 13.939865134886364 384861.3080097069 5.903133423296508 0.1966520680252218
0.3770797534581182 13.85387082656428 335644.1013942861 6.135367530798225 0.19880368561385828
0.38856041370982686 13.77528198551352 293257.1135056151 6.375214460134957 0.2009752900826785
0.4002416741536023 13.703514132167538 256650.12131945402 6.6229466032909965 0.20316777119878016
0.41213518575594843 13.637908984074938 224970.73555623917 6.877600691263621 0.20536153420425776
0.42423525555603564 13.577965623167284 197522.66253567496 7.139603581882061 0.2075612361538014
0.43655373229822886 13.523237380748641 173672.3146355971 7.41021964013744 0.2097840606796752
0.4490748980826523 13.473372571869904 152943.26463200062 7.689756801841729 0.21203084637735278
0.4618038523635668 13.427844910809567 134865.43037176566 7.978533070644387 0.21430240764381028
0.4747397509375053 13.38645786339875 119100.30435908774 8.274270335172067 0.21656142324065275
0.48788219552479567 13.34881891639115 105307.81620033404 8.579620987495254 0.2188446077852321
0.5012370258480751 13.314756649083705 93237.23660889 8.895071367774223 0.22115484199395372
0.5147918245550522 13.283815244034301 82646.84024788704 9.22097953722437 0.22349289311626766
0.5285588255934468 13.255781431626042 73340.30468713302 9.555889338864718 0.2258350659086403
0.5425286388267132 13.230613578002652 65170.40871195113 9.900511619767359 0.22818828952364184
0.5567028851937342 13.207965784981821 57967.42682178333 10.256572261249813 0.23057166707100982
0.5710790652108436 13.187691922317109 51617.14734915519 10.624473573538571 0.23298592315344385
0.5856588754743571 13.16958277466674 46013.588584339166 11.003392071298489 0.2354165644832767
0.6004396626722868 13.153529023602264 41059.0463243954 11.392474606189372 0.2378501250216215
0.615421915670732 13.139288318218862 36674.624626476325 11.794514274407254 0.24031698006884183
0.6306013740598363 13.12686895608428 32787.549654660135 12.209962450578667 0.2428178186984371
0.645977098789753 13.116023210872196 29343.87195870458 12.638493664244296 0.2453444070094891
0.6615491930872666 13.106663561198065 26283.298375996277 13.077971750624181 0.2478693382272357
0.6773126595058823 13.098626315477498 23563.083468506746 13.532129687855809 0.2504307726915385
0.6932649691672438 13.09190852201204 21144.443391993405 14.001473603541427 0.25302937477158527
0.7094030729067525 13.086330034164543 18990.48473156008 14.486142235138473 0.2556618379965253
0.725732240324399 13.081819462814625 17070.81146623813 14.982812171315784 0.2582900740820729
0.7422451415848207 13.078273327187707 15355.794259301949 15.496117335212292 0.2609581372110279
0.7589308181779006 13.075660659931343 13825.08979927103 16.02662556185921 0.2636666828315702
0.77579941544523 13.073861578549407 12457.282409041303 16.57492066676341 0.2664163593415621
0.7928411068876413 13.072800040525037 11233.508706351713 17.136722911522217 0.26916233285091895
0.8100546891967756 13.072418147192582 10136.035325927893 17.71724015083723 0.27195026654327475
0.8274281845773659 13.07262314224726 9153.754724970422 18.317254400143803 0.27478220100756
0.8449732916852899 13.073344850295982 8272.16981704149 18.937422101412743 0.2776588055371832
0.8626773438900074 13.074629344206816 7481.397904717947 19.574051524175758 0.28054318180961296
0.88054092431525 13.076322949424716 6770.674900871573 20.231063494641568 0.2834657487746992
0.8985426022675884 13.078300977845414 6132.363760806172 20.910190484945005 0.28643613613397795
0.9166940142112842 13.080682843514671 5557.729157668189 21.61217374159297 0.2894550657952573
0.9349932924591722 13.083258049117651 5040.067715817175 22.334640436252915 0.2924983154977362
0.9534184758388287 13.086151778492686 4573.513632477323 23.078876973122135 0.2955722294364804
0.9719857444960781 13.089148159992495 4153.14900459555 23.84823128692451 0.2986982129187411
0.9906690960480818 13.092293696869708 3773.7943908625066 24.643545551465404 0.3018770810412486
1.0094755757389597 13.095568266476803 3431.2060999962855 25.464925301704334 0.3051040482742388
1.0283990044735436 13.098815026156307 3121.6673493526528 26.30885553020754 0.30834852766616916
1.047423895433789 13.102112333277237 2842.2087388218683 27.181369754889033 0.31164991897515154
1.0665483453779565 13.105355429798708 2588.9256679218706 28.08343250620789 0.31500918109216147
1.0857647959002161 13.108507772153501 2359.7747940260433 29.016040328343426 0.31842731608993935
1.105083273381296 13.111589706845601 2152.0425567451102 29.977531944204685 0.32188730930028914
1.124465754945448 13.114516368052573 1964.1451004185544 30.968354978570297 0.32538733282728105
1.1439289328924613 13.117261407885378 1793.4849115897684 31.992909517552814 0.32895107393414513
1.1634589055659452 13.119825089330067 1638.626388502413 33.05235091317481 0.33257975952197544
1.1830428791736354 13.122110640204934 1498.0038144076918 34.147876854621344 0.3362746842530823
1.2026709099504518 13.124146151722305 1370.304888620515 35.278683870629244 0.34002466900421713
1.2223520008660549 13.125911982797115 1254.2087757974307 36.444345676810876 0.34382158663416934
1.2420466461425534 13.127273154836335 1148.6182989378012 37.650013480007324 0.3476907279323689
1.2617814298128127 13.128359732906876 1052.4748248540564 38.897095550098676 0.35163371467983834
1.2815260510712025 13.128998356093112 964.9865780293012 40.187057371659314 0.35565226651657184
1.3012558549216486 13.129226288706596 885.3442442287934 41.52142524823936 0.35974820788595296
1.3210112593374874 13.129040818720922 812.5990453260016 42.89917627461051 0.36390903073587366
1.3407450501042366 13.12840752998802 746.2729480978402 44.32201523581618 0.36813782510432325
1.3604423335882525 13.127244860725671 685.7636257319188 45.79437916635001 0.37245190259151917
1.3801201232914861 13.125603426997973 630.5649902539908 47.31809518759015 0.3768535742156429
1.3997450476936761 13.123422063794933 580.0823424391764 48.89507379047035 0.38134529454028987
1.4193173129969716 13.120657859274418 533.977328748789 50.52731429170396 0.3859296705306915
1.4388243045944922 13.117303285276735 491.76650637783587 52.21691067128137 0.39060947079105457
1.4582528552446083 13.11337742411478 453.16566482353505 53.966057814604454 0.3953876352151342
1.4775946236336024 13.108788875530049 417.84768224161405 55.774011414151595 0.40025249574249533
1.4968408354064677 13.103576517380596 385.4850753732306 57.64576589281967 0.40522038736103577
1.5159722059222622 13.097660245734163 355.85542126960587 59.584600793708574 0.41029838616819997
1.5349817554529892 13.091072513104905 328.64234959555296 61.59320416779392 0.41549022047123624
1.5538606895126346 13.08377385227146 303.71134114417 63.674403470010354 0.42079984721450486
1.5725842471552423 13.075721699663132 280.8232399946987 65.83117487256654 0.4262314652188518
1.5911751331231765 13.066974856427388 259.8075080230365 68.06665322087771 0.43178952918161284
1.609575411147779 13.057390064532777 240.5073549127858 70.38414267864368 0.43747876450628476
1.627796887337453 13.047084459787545 222.7841229332999 72.787128112936 0.44330418303697283
1.6458228307507319 13.035888988171408 206.45671578195322 75.27928727490503 0.4492710997791983
1.6636683589544332 13.023983242471761 191.43931352020297 77.86450383693027 0.45538515069562363
1.6812742877930638 13.011159059925081 177.6361631760316 80.54688135274027 0.4616523116727405
1.6986508015862898 12.997488403108642 164.92223994569986 83.33075821327253 0.46807891876266294
1.715784030948834 12.982961641842214 153.2015972505031 86.22072367788758 0.4746716898129478
1.7326572458083578 12.967518456235748 142.39190331076506 89.22163506804195 0.4814377476068985
1.7492607767550499 12.951173644855299 132.43713692580744 92.33863621873171 0.4883846446471952
1.7655867985110771 12.933918552415838 123.24890224426507 95.5771772920245 0.49552038972705764
1.7816264795268553 12.915738291147836 114.7722771053995 98.94303606685862 0.5028534764455387
1.7973486349150865 12.896593746905072 106.93176162634316 102.44234083013478 0.5103929138371888
1.81275299738469 12.87651690819868 99.70181973361898 106.08159500602294 0.5181482593012513
1.82782694151503 12.855421288015096 93.01464285495672 109.86719437186427 0.5261277568817021
1.842550744762604 12.833389950399397 86.82675209956966 113.80165433721776 0.534324454704106
1.8569164142170154 12.810288772271214 81.10788526587142 117.89736086222221 0.5427671143426973
1.8709098914043945 12.786208636575166 75.80776988532546 122.16256926774695 0.5514677967547164
1.884522328862705 12.761115199408291 70.90783873421391 126.60606296654801 0.5604393110882658
1.897745050474724 12.734987581781946 66.3617831585022 131.23719204607005 0.5696952658912008
1.9105534730188902 12.707819422495364 62.15813391326978 136.06253113750358 0.5792382269430597
1.9229501244873703 12.679617068163473 58.25442145472506 141.08923655295908 0.5890718198097651
1.9349034640409783 12.650308804500105 54.63412236274087 146.33451713503734 0.5992333554740203
1.9464151992575265 12.619938877709886 51.27043849822894 151.81039435293874 0.6097401209135419
1.9574746675755836 12.58851050018528 48.1546423690486 157.5234656720111 0.6205892749340461
1.9680599792800415 12.555974883371142 45.25205260199498 163.48635497527405 0.6317972221046152
1.9781761542067895 12.522359312919571 42.559612702593526 169.719905632166 0.6434061847951692
1.9878034018955877 12.487660872253056 40.05749176377941 176.2330113565339 0.6554158650871501
1.9969278098998278 12.45185506455584 37.73164018665594 183.03955962861465 0.6678409811714985
2.0055261270358438 12.414915547623966 35.56522142731409 190.1656481822666 0.6807344865947821
2.013637693352046 12.376946736728566 33.54862236588589 197.61481803551456 0.694071971993452
2.021197736893459 12.33780523483803 31.672995641777796 205.41933776727882 0.7079216065381864
2.02820951296634 12.297583011799132 29.92747115871559 213.5910219911208 0.7222810263242065
2.0346809607732768 12.256212200825141 28.298922738817694 222.15689114573195 0.7371949543660693
2.0405839403525032 12.21374766673606 26.783873108667784 231.1358709698614 0.7526781015991423
2.0459293305010955 12.170209473227903 25.367559396613608 240.55860341508392 0.7687799923399278
2.050688869363736 12.125518021282838 24.049367326060715 250.44320253085505 0.7855052372993977
2.0548880540341616 12.079787976152057 22.818098070097342 260.8300819728253 0.8029269385169966
2.0577306225115706 12.03736597175239 21.806248968465063 272.5359165495991 2.1294588611063183
