M[M_sun], R[km], Lambda[1], P_c[MeV/fm^3], rho_c[fm^-3]
0.23835315348680472 16.224115897624433 2803846.7813616297 3.45143464264431 0.16959267850507953
0.24823606984619231 15.88344248406047 2305558.3148689023 3.6313360907261267 0.17193998445270617
0.25839969920751565 15.581586839452479 1904559.5682702018 3.8178332309990366 0.17429481769566438
0.2688432644098338 15.313223930464265 1579888.299499679 4.011146645530064 0.17665816331990386
0.2795649320934667 15.074123790443835 1315881.9866250036 4.211507222666031 0.179031009618111
0.29056232288634193 14.860507486466341 1100146.4250530426 4.4191564248577375 0.18141434654549599
0.3018417009799087 14.66915041077944 922896.130035743 4.6343465724924755 0.1838091645297927
0.31339752752434646 14.497654941516368 776832.9658470339 4.857341144128152 0.18621645357760258
0.3252273344421839 14.34360112323811 655914.247245261 5.088415093307174 0.18863720262608563
0.3373422642765543 14.204990370983312 555374.8840695227 5.327855181954815 0.191072399095777
0.3497331437116161 14.080121936525245 464381.5531275394 5.575960330230874 0.1935230286067686
0.3623992697145275 13.967764711732528 401521.93834540545 5.833041982604585 0.19599007482665276
0.3753452609831947 13.866524703118984 342721.9629289859 6.099424489857072 0.19847451942439812
0.3885711820686363 13.775197954251754 293207.21121676825 6.3754455066853435 0.20097734210969379
0.40207282362730734 13.692920020284147 251422.69098994412 6.661456404582807 0.20349952074222888
0.4158537681529217 13.618803650725743 216085.15140899937 6.957822699706741 0.20604203149989198
0.429905441359895 13.552024320997077 186089.57631794285 7.264924495509938 0.20860584909894025
0.4442461418244974 13.491960069912361 160566.00069171793 7.582407836713654 0.21118035047168499
0.458857056191192 13.4378977014849 138808.90154495195 7.910958475411143 0.21377161722967192
0.47375453597716394 13.389404356990314 120208.51359618951 8.25136216438777 0.21638643712525904
0.4889221754757741 13.346078683701863 104311.05585029001 8.604059802793689 0.21902583965883182
0.504361451128805 13.307282375908349 90654.34534068439 8.96950951575608 0.22169085465062258
0.5200871128494955 13.272601566905045 78904.82857323803 9.348187216460857 0.22438251284023297
0.5360801609150233 13.241902154430697 68803.48485348343 9.740587187498534 0.2271018465522143
0.5523439858086587 13.214661306261734 60078.57635481803 10.147222682791524 0.22984989043954604
0.5688816558540783 13.190641907939254 52529.396491146515 10.56862655178833 0.2326276823179695
0.5856882875778889 13.169512488929447 45999.68402171435 11.004136076062611 0.23542133703658288
0.6027657905267846 13.151240956517347 40340.31947373451 11.454796012788883 0.23823872326346907
0.6201024595533927 13.135287362406745 35417.74019489956 11.921823823622084 0.24108879947812958
0.6377042044992226 13.12165337990146 31138.3172715918 12.405837840743484 0.24397268549794013
0.6555698041628318 13.110072095667546 27409.47744030752 12.907479987438768 0.24689151009578642
0.6736919128001063 13.100329423831148 24155.84664663975 13.427416627532846 0.24984641260801993
0.6920716699896214 13.09236892936907 21314.040572670037 13.966339461104605 0.25283854472426
0.7106938742070159 13.085926324646765 18829.012898043777 14.524966472024486 0.2558690724742909
0.7295651757584055 13.080916963837595 16651.838135138427 15.102365976597456 0.2589222520303454
0.7486785640537056 13.07717623812833 14743.147247038834 15.700140803524755 0.2620087413100717
0.7680386431247375 13.074561001176441 13065.1174951504 16.319835905561046 0.2651374684688641
0.7876290770158026 13.073040223237493 11591.198546636275 16.962289510537996 0.2683097383610993
0.8074449379746724 13.072387629286709 10293.657732475529 17.628372540046566 0.2715268827085446
0.8274801394397829 13.072612564330544 9151.855235558294 18.31899004119562 0.2747902634578268
0.8477373203317761 13.073540121754208 8143.344077768911 19.03508272552792 0.27810127642664656
0.868210141378319 13.075127364210921 7252.606241613483 19.777628626232115 0.28146135525033744
0.8888828139171893 13.077158875370136 6465.313127370417 20.545926985878033 0.2848575922055013
0.9097601066134632 13.079782940321927 5769.681564558278 21.341661691535702 0.28829766808182017
0.9308200038641107 13.082694440675365 5153.098220406502 22.166972926628702 0.2917920488939595
0.9520605764199667 13.085903141618248 4606.2159212036395 23.0230171138967 0.2953424168934869
0.9734793289129399 13.089412007331418 4121.251830669352 23.91099926162902 0.2989505154218236
0.9950677477851557 13.093053298569332 3690.2685508983595 24.832175610713097 0.3026181548504973
1.016811913145362 13.096825117185729 3307.306162898877 25.787856498934563 0.30634721891010946
1.0386959190381624 13.100598637948874 2966.520794803345 26.779409460923556 0.3101396714207725
1.0607250525998893 13.104371059093696 2663.062453775375 27.808262583217438 0.31399756343771984
1.082880430396809 13.10804454223569 2392.6431049165894 28.875766539230753 0.31792206883552393
1.1051569167491884 13.111580450733152 2151.397367583843 29.981303304267364 0.3219008807969048
1.1275358903903316 13.11494928755614 1926.7046898605984 31.128885683503388 0.32595300782357073
1.1500172583455461 13.11810320202629 1743.5761318341592 32.32023997614532 0.33008097376189227
1.172573326342292 13.120949736896486 1571.4942517688696 33.557175169380685 0.3342874312172347
1.1951978510039858 13.123399835230794 1417.4608026541844 34.84158829826846 0.338575171691291
1.2178848848877244 13.1255131292683 1279.6010944304617 36.17547023611286 0.34294713630523094
1.2406132506275638 13.127185678407427 1155.9689629960608 37.56091194782285 0.3474064271428208
1.2633829596585853 13.12839013274637 1045.0887740111255 39.000111241130945 0.35195631925206494
1.2861639858611742 13.12908508635217 945.58322917397 40.49538005318025 0.35660027334881245
1.3089526054657525 13.129219096413761 856.1689462307125 42.04915231292418 0.3613419492711767
1.3317304231026181 13.128764304508044 775.7861618721272 43.66399242306373 0.366185220239595
1.3544790458751865 13.127671433854388 703.5854726783502 45.34260440889983 0.3711341879838823
1.3771854651194653 13.125891817543906 638.4603192946709 47.08784178556256 0.376193198805803
1.3998389339011699 13.123409182330553 579.8610883873467 48.90271819962298 0.381366860653472
1.422414712873544 13.120169359706455 526.9859453245697 50.790418906170125 0.38666006129241837
1.4449025377632083 13.116141532812602 479.34334004123804 52.75431314808063 0.3920779876673894
1.4672863374618115 13.111299495666785 436.2882172201486 54.79796751049225 0.3976261465590466
1.489540019863998 13.105602249968188 397.4243557078665 56.925160330488225 0.4033103866506843
1.511662841279353 13.099041083454114 362.30473723503223 59.13989724976222 0.40913692213203484
1.5336198814826472 13.091585288199877 330.54395989317453 61.44642800666642 0.415112357980262
1.5554035506608066 13.083152279337611 301.77143542677146 63.84926457362604 0.4212437170724758
1.5769929917576597 13.073753644444851 275.6916423516693 66.35320075653954 0.42753846929966044
1.5983720242836963 13.063355224898647 252.0834979075443 68.9633333845854 0.4340045628689573
1.61952202598634 13.051893412234666 230.66164079782212 71.68508523196111 0.44065045799996744
1.6404108343375952 13.039378523812509 211.24114817289055 74.5196540032299 0.44746557678732657
1.6610335073119225 13.025787832431854 193.59686409416895 77.47641664180847 0.4544739839053497
1.68137239038444 13.011082656037509 177.56658015920047 80.56253167345216 0.4616886179388083
1.7014055236675534 12.99523302279139 162.98041793006215 83.78494890455767 0.4691202850125494
1.721104603307809 12.97822006387998 149.72010965499655 87.15108805269463 0.4767805088414181
1.7404613779188034 12.95999976802191 137.63678376356802 90.66887571819738 0.4846815837518298
1.7594453018198732 12.940580438290512 126.64312932631819 94.33814819825652 0.4928027992692616
1.7780394607968901 12.919898099909503 116.62219323409734 98.1749142969065 0.5011863102179638
1.7962508636037757 12.898005153028235 107.46576776290976 102.18954129706299 0.5098498258854639
1.8140211549094654 12.874799989375775 99.12635394322285 106.39235864121396 0.5188092037173819
1.8313401500990896 12.850281945456985 91.50606484017824 110.7824835763069 0.5280369524486364
1.848206107957974 12.824450348803591 84.5407605818803 115.38183909729496 0.5375896616643085
1.864582275711288 12.797309788478591 78.17737944246824 120.20382393359247 0.5474893152016516
1.8804682981580363 12.768801181172341 72.34577994887823 125.24929217636678 0.5577107303846266
1.895820203609604 12.738911984035818 67.01692838308239 130.54160981504066 0.5683084756548747
1.9106275497417335 12.707595058080495 62.12708878462298 136.09534545165647 0.5793025561815336
1.9248777468871294 12.674909028991056 57.65435924755904 141.91620917986063 0.5906798052027469
1.9385744892394499 12.640869231319165 53.54729067102176 148.0356255113938 0.6025145752681317
1.9516436949877733 12.605317308467814 49.7786543868607 154.45351661576987 0.6147689358673849
1.9641142324853087 12.5683920189279 46.32449615353933 161.2075684307705 0.6275322952287813
1.9759573333096871 12.529974157463762 43.145458910098064 168.3000776249471 0.6407697322981493
1.9871473221069889 12.490128990121741 40.22619478841433 175.770601761178 0.6545694310250566
1.9976755320152113 12.4487973432844 37.54130220814166 183.62689688427503 0.6689086106874105
2.0075075803121463 12.405972036388937 35.07388082531129 191.90602694251683 0.6838587138231415
2.016653970698547 12.361704298984778 32.798296041657665 200.6340360089624 0.6994498248811293
2.0250824222606494 12.315964651639915 30.707077941565224 209.83180238254292 0.7156904414015001
2.0327865069909192 12.268732679405595 28.77739087220997 219.54192594391742 0.7326553614564408
2.03975317970178 12.219996431320157 26.997340866892316 229.79803405259793 0.7503840667256624
2.045969864699132 12.169877086814001 25.357625774533478 240.6325892508231 0.7689060938771852
2.051420314928945 12.118232299610822 23.844385295782303 252.0873757950699 0.7882745178779622
2.056081880329527 12.065123190650164 22.44753737604665 264.2102382129208 0.808554573728095
2.0599612943454595 12.010573041333178 21.15919589284023 277.0488911168792 0.8298027044048812
2.0630341307740605 11.954578975123926 19.96798423505757 290.6554784260897 0.8520805154507297
2.065297773680412 11.897175652240172 18.86937112893933 305.087016149422 0.8754552072859938
2.0667487796034423 11.838345070333405 17.852491155648735 320.4058867299906 0.9000000626473972
2.067373308301573 11.778150765951086 16.91300244483454 336.6803915213135 0.925794995137256
