M[M_sun], R[km], Lambda[1], P_c[MeV/fm^3], rho_c[fm^-3]
0.23835315348680472 16.224115897624433 2803846.7813616297 3.45143464264431 0.16959267850507953
0.245803726048687 15.962681539530838 2417080.7994898683 3.5866206165169583 0.1713599351711195
0.25341702647007014 15.723966705608033 2089060.2063474874 3.7259175414991526 0.17314062561131463
0.2611889803458125 15.50611341986148 1810156.0640793578 3.8694767762818185 0.17493579202586748
0.2691212293718277 15.306609324693294 1572338.2652689193 4.016387182666788 0.17672187588473873
0.27721200777839433 15.123800994913866 1368722.1241654444 4.167084907553696 0.17850802556101114
0.2854632309217087 14.955941048626514 1194176.8041787571 4.322411439110062 0.18031121107812803
0.29387344755947065 14.801714780343278 1044050.4864980574 4.4825369533618655 0.1821323451177929
0.3024410952280597 14.65969275465132 914500.352909778 4.645989122418274 0.18393776279538718
0.31117123647061695 14.528984662968131 802572.6541722305 4.814009955426257 0.18575274362927252
0.32005836198445586 14.408514145936296 705661.1966578106 4.987247014574099 0.18758809670503002
0.32910284819183483 14.297333481966449 621436.5103097211 5.165460628847699 0.18943615945652748
0.33830763733829006 14.194631244673213 548233.0945081747 5.347197798704691 0.19126679704189506
0.3476747060967181 14.09987134129151 484388.74954249477 5.534607493441993 0.19312017000115103
0.35719870953095284 14.012272934007488 428615.1969817681 5.727895097740986 0.1949969931901036
0.366880820917235 13.931345220324655 379855.4271824962 5.925179429668555 0.19686028612046758
0.37672461001332047 13.856502479454536 337079.55563849123 6.127926870381905 0.19873554408292002
0.3867248573366897 13.787235808695254 299555.27292976156 6.337065849038779 0.2006364753268032
0.39688786719291047 13.723371737890961 266549.5241873708 6.551461956159931 0.20254062236145495
0.4072068556633938 13.664244070310158 234449.1635659133 6.770823985256628 0.20444168724892406
0.4176861851399219 13.609528823924425 211838.63963829397 6.997135839901574 0.20637058478244336
0.428322263679362 13.559148449256398 189193.68557681594 7.229881424917761 0.2083157187904984
0.439121277595996 13.512587927216437 169155.680338798 7.467255151139737 0.21024656684082962
0.450082203705674 13.469551046193896 151404.35749990933 7.712184444409504 0.2122073431725091
0.4611938303126409 13.429949724339664 135676.68422770963 7.964632093563926 0.21419400765968624
0.4724681556090995 13.393439499003277 120375.87126270858 8.221544318817028 0.21615867083981602
0.48390126768482955 13.35977849189012 109269.96428926782 8.486668326518165 0.21815529512014406
0.49548948093545137 13.328897200244016 98215.90738108955 8.760285739662464 0.2201842804665152
0.5072428846925835 13.300605098227123 88357.11160086043 9.03841668458271 0.2221870399484526
0.5191471581049724 13.274606226917857 79563.62901231689 9.325456033187175 0.22422354359316618
0.5312087131549915 13.250838075198004 71705.39805465659 9.621718427013677 0.22629431434766664
0.5434268304583988 13.229089502866689 64679.83494629973 9.923036201594606 0.22834130975490596
0.5558005903442792 13.20936695826928 58394.938621722875 10.233866613466107 0.23042179538239807
0.5683322371728861 13.191388742614455 52763.0818388704 10.554707851549804 0.23253839829447281
0.5810139488231847 13.175123455493628 47715.805049002425 10.881047551707626 0.2346317634045378
0.5938551121243841 13.160419749655254 43184.06218195501 11.217712863320042 0.23676041749210994
0.6068441687195149 13.147201384405534 39110.0162697539 11.565238765589338 0.23892698781082689
0.61998359417233 13.13541324382608 35451.146466647086 11.918623263405305 0.24106939594939872
0.6332789437760526 13.124851606986617 32153.39828790661 12.283349938232359 0.24325050589267255
0.6467195300906152 13.115546439014407 29187.47634536927 12.659677288236365 0.2454693040882952
0.6603114771515348 13.10737054773068 26514.021043442543 13.042516825380078 0.24766599219658664
0.6740490748493552 13.100174688076937 24098.708521858935 13.437730253854836 0.24990396867142128
0.68793490078425 13.094022241326693 21918.499725359223 13.845192157459431 0.2521778442633164
0.7019586976659916 13.088770596645157 19950.043049472184 14.260122847630889 0.2544342204307327
0.7161251884952443 13.084329177859276 18169.70767129027 14.688465812128838 0.2567336261129439
0.7304380118484411 13.080701479278959 16558.66940482359 15.129723513646706 0.2590669135206329
0.7448893757723837 13.077791871211016 15100.014638639554 15.579545565714051 0.26138774485208066
0.7594743648913052 13.07559570901766 13778.511281272646 16.043899349205667 0.26375333065582524
0.7741922226584533 13.073967460338055 12580.102015240587 16.521907785161734 0.2661510903434044
0.7890481626717564 13.072977137232305 11492.866736057176 17.0096772720293 0.26854135996627587
0.804033050131371 13.072440099978746 10504.288869042975 17.513186005026345 0.270978110028912
0.8191482459792233 13.072441967258953 9607.325303622225 18.03123268613277 0.2734461924772263
0.8343910124232673 13.072841340842448 8791.822097291833 18.560288594050952 0.27591115050979326
0.8497425578544718 13.073648785054065 8050.1711115798025 19.10638756587918 0.27842433719365595
0.8652348475881325 13.074826309822962 7374.603862984689 19.668137140337667 0.280969455414211
0.8808363482023421 13.076321646516723 6759.99477278756 20.24213292726777 0.2835146808278343
0.896549355593491 13.078107386177733 6199.451478822111 20.834581734976158 0.2861099310443833
0.9123776766582277 13.080071315455672 5687.8639821756105 21.444127135245747 0.2887397432286724
0.9283090190109498 13.082332615401537 5222.129978441343 22.06706777584924 0.291371217978662
0.9443500098688951 13.084718334719142 4796.775298573869 22.709989348337476 0.2940545921866537
0.9604929506598151 13.087300437036571 4407.847564820995 23.37191059109754 0.29677779640108265
0.976727519283062 13.089916901187516 4052.7962004926026 24.04819626484794 0.2995019932652702
0.993067375637871 13.092714253585722 3728.1709328734464 24.74612298335208 0.3022800785724713
1.0094921002621589 13.095567429025428 3431.061069554726 25.465554895988586 0.3051065217709677
1.026004901580406 13.098423933616845 3159.1822156100948 26.200032676021753 0.3079305074437336
1.0425986504967462 13.101257466355994 2910.241719859227 26.957961018985984 0.3108105263732209
1.0592663840332812 13.104105460386384 2682.0038632107303 27.739998428033932 0.3137466013274765
1.0760076034005033 13.106913709752781 2473.2859142711677 28.538696542365006 0.3166828855850209
1.0928318839195847 13.109662961256292 2281.4016468857876 29.36215191932525 0.31967282227539656
1.1097027539103568 13.11230088764166 2105.533901870095 30.211750287431 0.3227212238356626
1.126649285888945 13.114826075562245 1944.0756011412527 31.08214063832019 0.3257882885365559
1.143637563740209 13.117208226659905 1795.8846375743863 31.97725435306757 0.32889703445449725
1.1606860422736809 13.119488508773824 1659.6248650592852 32.90074885364613 0.3320669344292474
1.1777656619869 13.12151807326018 1534.6449518711406 33.85041915619903 0.3352793892104149
1.1948942195071035 13.12336064098306 1419.447898061013 34.824019767074425 0.33851691088892166
1.2120519512428003 13.12502848921848 1313.6085363317625 35.82847481442014 0.3418186202166972
1.2292399358616712 13.126413050426974 1216.1666739714387 36.86465728922116 0.345184851999116
1.2464553046169116 13.127574032494557 1126.4023189120173 37.925725249671466 0.34857045549576193
1.2636773123115763 13.128420835726192 1043.7415720293168 39.01904923033725 0.3520156255756503
1.2809179800523058 13.129001882089298 967.5727921713649 40.146939624632466 0.3555289155581281
1.2981492631150628 13.129227983735275 897.3841283560931 41.30856600985743 0.35910059489184415
1.3153969470677924 13.129193527912305 832.6080050606643 42.49964736497873 0.36270244915140676
1.3326185283407819 13.128688248742982 772.8263906960494 43.728470583315094 0.3663765515535488
1.3498422395277656 13.127991995257084 717.6650813371816 44.99614402755301 0.37012364921884633
1.367028625319849 13.126758756362356 666.7519215559628 46.30098726971408 0.37392955243171333
1.3841844651470205 13.125180354431397 619.7198601149204 47.64116750628141 0.37778015776656954
1.4013152947890748 13.123198939668752 576.2511018972481 49.02390272718908 0.3817087417832269
1.4184043518488514 13.12077958346324 536.0316558642127 50.450482949691136 0.38571638311826395
1.4354332304950883 13.117926685384314 498.82488000925525 51.92127065825031 0.3897993588462747
1.452424697456215 13.114640293452718 464.4207691014405 53.43138198391966 0.3939281596609982
1.469331569993732 13.110836642481459 432.59460654881855 54.989701000006576 0.3981420650456411
1.486168270763769 13.1065251940619 403.1078785921656 56.59774694350967 0.4024425612627088
1.502945767522265 13.101784831286563 375.7588899633296 58.257102430213855 0.40683126379362955
1.5196239349069494 13.0964568647844 350.427014294473 59.96630438937629 0.41129530873578
1.5362061121114745 13.090632380865442 326.967135292049 61.725922537998194 0.41583189239928087
1.5526835305346913 13.084280625845556 305.2028131774224 63.542259153147185 0.42046441024227443
1.5690606589163008 13.077331272394753 285.0072967296265 65.41720353334244 0.42519499893180523
1.5853182181896184 13.069860378472356 266.26597345733285 67.35273074256942 0.43002595460551585
1.601438425618963 13.061735265830706 248.864852515443 69.3509069368524 0.4349597393031171
1.617436381461628 13.053083061110655 232.7004299943763 71.40882488949187 0.43997693623027984
1.63328761191519 13.043801503434654 217.68650912489665 73.53296819266833 0.4450993240943987
1.6489920364303488 13.033894320811036 203.72402204595585 75.72687386592801 0.4503349392805454
1.6645179291241294 13.023333294561244 190.74829263037967 77.99304296982663 0.45568694006311106
1.679891076564734 13.0121688620715 178.67561997325726 80.33409934839653 0.4611586911133695
1.6951007043498636 13.000369250281103 167.43705996412567 82.75279716622553 0.46675377243163446
1.710119603247289 12.987890846408698 156.9984352855127 85.2520288998351 0.47247598882089237
1.7249463842552026 12.97472799272144 147.2397008357973 87.83483381428914 0.47832937994718944
1.7395634403119784 12.960843537416459 138.16755300338488 90.50134864226978 0.4843060896112456
1.7539841562502339 12.946334583523639 129.7327124119948 93.257849140466 0.4904225032828295
1.7681792549023354 12.931073756978947 121.84379796649155 96.1084251557187 0.49668558764885096
1.7821520556108068 12.915124597917222 114.50831799063637 99.05681095272341 0.5031004186032538
1.7958893670483882 12.898461717072452 107.64124720685639 102.10693880852003 0.5096723713792586
1.8093777627421055 12.881024558538979 101.25500050904753 105.26295126861073 0.5164071353543962
1.8226089041670261 12.862853100997222 95.28087954664379 108.5292141982524 0.5233107298666355
1.8355855037427276 12.84393314499022 89.70896174269404 111.91033068912814 0.5303895211204029
1.8482971060604307 12.824268939752267 84.49755238409138 115.41115588674997 0.5376502402671389
1.8607461343152205 12.80388117968636 79.63280483097262 119.03681280953226 0.5451000027514105
1.8728964305797766 12.782673188062573 75.08139208943349 122.79270923655658 0.5527463290205701
1.8847532671133584 12.76066505228795 70.82598027817913 126.68455574763992 0.5605971667035343
1.8963168122095342 12.737915476923758 66.84829676300298 130.7183850065155 0.5686609143725792
1.907557337184342 12.714344684911454 63.12126747340161 134.90057238575815 0.5769464470111276
1.9184858393904038 12.689977036816025 59.63913259565912 139.23785804062362 0.5854631433204506
1.9290940335591698 12.664818023603674 56.37325925213153 143.73737054829462 0.5942209150090976
1.9392764521631494 12.639010461294736 53.34053870217016 148.48107188876142 0.8979325065898653
