M[M_sun], R[km], Lambda[1], P_c[MeV/fm^3], rho_c[fm^-3]
0.23835315348680472 16.224115897624433 2803846.7813616297 3.45143464264431 0.16959267850507953
0.24763260070514276 15.902756209174655 2332517.1290648053 3.6201523929607133 0.17179490948774068
0.25715680215716025 15.616137378280445 1948716.8649104426 3.794696175530837 0.17400428398567583
0.26692737853715215 15.35954396800591 1633948.703444582 3.9752614639011763 0.17622188419402585
0.2769457372147203 15.129477198107445 1374924.5929102893 4.162052491946619 0.17844877891606373
0.2872086151994329 14.922603804170604 1160872.3853318489 4.355282438657815 0.18068602291120367
0.2977181278825118 14.73615242723202 983215.0113825884 4.555173626366799 0.18293465648656698
0.3084718764514782 14.568014214917422 835318.4850196751 4.7619577318170165 0.18519570527783563
0.3194697200272768 14.416081655496605 711551.3522863776 4.9758760093205785 0.18747018017355868
0.3307169769541028 14.278505298052629 607766.3410953858 5.197179525118443 0.1897590773448934
0.34220298073146405 14.154155276070096 520500.30592277535 5.425763943121302 0.19205640567171509
0.3539395411697164 14.041320985885609 446771.4996150545 5.6615061497690435 0.194356414469787
0.365919370435363 13.938937802490452 384378.7809911716 5.905332596736058 0.19667283857644866
0.3781463885393513 13.846245681431958 331415.0804868928 6.157533005147952 0.19900667691727142
0.3906225196599853 13.76201913121306 286326.2996510505 6.418408247200073 0.20135891328675537
0.40334105328395425 13.685712794460155 247885.91032669344 6.6882706407040216 0.20373051675604187
0.41630277992263165 13.616507826625284 215020.00519081706 6.967444249893712 0.20612244206698216
0.4295054134479256 13.553810091876556 186862.87090637765 7.25626519150881 0.2085356300129454
0.44296803027147724 13.496939042546797 162653.55661904346 7.5534239415390045 0.2109453174219769
0.4566656168177425 13.445624193825669 141831.9652569732 7.860728532207901 0.21337632717769855
0.47060694336481473 13.399183934346485 123881.24681837678 8.1786280434136 0.21583085102431335
0.4848002235185642 13.357296346551365 108358.17098448575 8.507507531489678 0.21830983322337028
0.4992304806791095 13.319578841689117 94933.0111966653 8.847765866708304 0.2208142055328266
0.5139074681989174 13.28572480915199 83296.70745663936 9.199816086502123 0.22334488771830205
0.5288230253567426 13.255329719467943 73181.60666943429 9.562459043957519 0.22588101077035203
0.5439790443734326 13.228206738185948 64381.32721220517 9.93695528907094 0.2284358687571973
0.5593812988127255 13.204005661627141 56713.30151213967 10.324425395062509 0.23101954082642873
0.5750174863417302 13.182585960097649 50025.79738159076 10.725341536730653 0.23363295897154232
0.5908923637524296 13.163663209582227 44181.19673200843 11.140192220206433 0.2362770460911012
0.6070036052818665 13.147071675939472 39061.947076464334 11.56948270468599 0.23895271686718467
0.6233493873295877 13.132626808831647 34579.80158749577 12.011056979509151 0.24162977917753467
0.6399310903512602 13.120075253298026 30641.73920142023 12.467788891597683 0.24433794430746
0.6567332350136305 13.109352146115187 27185.8560188381 12.940434490234875 0.24708051535498426
0.6737647321532709 13.100304276686824 24146.794800202824 13.42957140878476 0.24985843754691914
0.6910248720166542 13.092767709898034 21465.606073066945 13.935796845822216 0.25267265341980427
0.7085004877808516 13.086545239669068 19102.786260038938 14.458567588864184 0.2555120671272644
0.7261987047301254 13.081712379023768 17018.033852367706 14.997404135306864 0.2583672336324144
0.7441184725574858 13.077938424643499 15174.703299304825 15.55510556560772 0.2612618928385612
0.7622415255030238 13.075220567624756 13543.109495885685 16.132356379590004 0.26419704395790183
0.7805694655744786 13.073438535854521 12098.679611243946 16.729864398178936 0.26717369234597294
0.7991076300959155 13.07257325380306 10818.528932685167 17.348361556137863 0.2701928519736226
0.8178454594715839 13.072438626752835 9682.122574033297 17.985710767339217 0.2732293165606622
0.836767072372476 13.07298084811106 8672.055663706591 18.644577678913667 0.2763026926169743
0.8558879080196726 13.074069031238592 7773.727224748717 19.32666924010013 0.2794223671490049
0.8751923997809524 13.075732913505288 6975.230807482644 20.032829379495464 0.28258946156260145
0.8946724083355344 13.077866271350407 6226.10879780749 20.76393178969415 0.2858051201363856
0.9143274481008782 13.080354394136354 5628.577521102848 21.520881199947954 0.2890705138120957
0.9341463800841896 13.083179408309888 5062.437462960932 22.300612722738542 0.2923549804072828
0.954127148703562 13.086242168723386 4556.786433352207 23.10792187694142 0.2956917228133035
0.9742664028461863 13.089556945455191 4104.820257741428 23.943922376895003 0.2990828533605573
0.9945495590203038 13.09299541482629 3700.0278103833807 24.809668009462925 0.30252972889197277
1.01495913201311 13.096475687343144 3320.1725645067186 25.70625244757129 0.3060337540229978
1.0355145240759995 13.100069513416981 3013.485854243857 26.634811332723586 0.30959638649248417
1.0561858071472217 13.103593296906205 2722.6341706986827 27.59365682853326 0.3131989663662025
1.0769816753977397 13.107102152176513 2461.601987288457 28.58560230658195 0.31685532703015146
1.0978671968715723 13.110474108596373 2227.2039489380804 29.613197953540194 0.32057622856572693
1.1188606551198579 13.113696706842099 2016.6062393063426 30.6777852531992 0.3243634288433691
1.1399438422037635 13.11671315546217 1827.0338733074618 31.780761597900383 0.3282187684258129
1.1611046157325444 13.119531736255533 1656.4873348645779 32.923583640906685 0.33214417778551003
1.1823244160137447 13.122041881573718 1503.0624180332609 34.10777092052623 0.33614168486489526
1.2036111894970216 13.124256529042285 1364.5855395027238 35.334093380867905 0.3402084181457783
1.22494127266088 13.126111855028006 1239.7572502837968 36.60223623152482 0.3443350862946346
1.2463178876249323 13.127553911647489 1127.0767346584091 37.91681666076471 0.34854203040813597
1.2676956056672395 13.128568288895123 1025.4145192837107 39.279665410985665 0.3528317728113862
1.2891082253875927 13.129154554654638 933.4937925830163 40.692699494914145 0.3572069759695048
1.310517308250872 13.129223279992722 850.4086519512022 42.157927872921505 0.3616704526269259
1.331915856683196 13.128754556202596 775.2234391121104 43.67745756301444 0.36622517644971786
1.3532848692283983 13.12774354296772 707.124289643775 45.25350021310068 0.3708742932056327
1.3746260798087302 13.12611782214819 645.4669606677522 46.8883791673978 0.37562113252118623
1.3959161838409568 13.123870031884639 589.5714635237238 48.584537061404546 0.38046922026005214
1.4171477800439174 13.120992319552837 538.9017944009651 50.344543982704785 0.3854222915723946
1.4383013204800286 13.117420084427962 492.87950600805806 52.1711062380591 0.39048430467049916
1.4593555327623329 13.113104069364594 451.08116131783504 54.067075770793465 0.39565945539223485
1.480314306679473 13.108074174536345 413.1133350518412 56.03546027644291 0.4009521926204741
1.5011642948512716 13.102287884588536 378.5831550267904 58.0794340690049 0.40636723463371466
1.5218652924838572 13.095688608883956 347.146607512948 60.20234975501547 0.41190958647074344
1.5424321651004014 13.08829155638313 318.57571784581705 62.407750778057384 0.41758455840041053
1.5628317116690673 13.08005122077961 292.53736445071036 64.69938490226856 0.42339778559641716
1.5830509439270075 13.070901666120491 268.7926880227774 67.08121871000328 0.4293552491265783
1.6030804202269782 13.060891958996066 247.16383030833316 69.55745319607243 0.4354632983763769
1.6229059133242885 13.049940338001658 227.4043108126467 72.13254054901559 0.44172867503786445
1.6425088292824626 13.038101250025852 209.3806692760964 74.81120221871218 0.44815853880718604
1.6618644247831822 13.0252315168466 192.9204301280917 77.59844837941284 0.45476049494735826
1.680965771727316 13.01139110756406 177.86694905086844 80.49959890805367 0.4615426238875041
1.6997949624565798 12.996523716994602 164.10870429689297 83.52030600961679 0.46851351304572664
1.71834221173638 12.98066781288205 151.51349026183672 86.66657863444902 0.47568229108035937
1.736585346257561 12.963752610768253 139.9919744264332 89.94480884696813 0.4830586647936119
1.7545072128695305 12.945770586692948 129.4214300837236 93.36180032123829 0.4906529589328888
1.7720838501335585 12.92669824728962 119.75721673508878 96.92295167001132 0.4984689939129257
1.7893119011517222 12.906453611078884 110.8709769744943 100.63219101698654 0.5065041781959776
1.806179673878716 12.885208217369968 102.73901803143994 104.50255294654107 0.5147898900653903
1.8226660524363325 12.862756476788745 95.25449055032382 108.54277555757119 0.5233392907512789
1.8387520225037057 12.83920635473384 88.38749832192903 112.76218753828843 0.5321664035660664
1.8544111659460532 12.814440395387056 82.08600008539455 117.16658807185547 0.5412709464910611
1.8696448856001973 12.788493861282646 76.28219280060453 121.76355661828437 0.5506582138492147
1.884420097588626 12.761316700062448 70.94528292931003 126.57066322527149 0.5603681192173471
1.8987385273023265 12.732960572811459 66.03219723841127 131.6000375299007 0.5704186750753697
1.9125733652208385 12.703386916659886 61.508758933301145 136.8528174216617 0.5807875055474924
1.925911561185789 12.672546376979017 57.342934949589015 142.35153019623084 0.5915262538188323
1.9387405724300626 12.640437473438183 53.503100568839784 148.11306364416652 0.6026639434904063
1.9510329396461519 12.607077602742471 49.95384275485007 154.13694985340786 0.6141677846541269
1.9627956905307442 12.572472487550261 46.683346344830404 160.45499456686042 0.6261140026477745
1.974001903042781 12.536578568529883 43.66412917651187 167.07574050578523 0.6384962832334762
1.9846376994103176 12.499410069538316 40.874884373194185 174.01900656080667 0.6513443420411403
1.9946897561525891 12.460930888190287 38.298078604794505 181.30620642689922 0.6646901865950992
2.0041390077173737 12.421150111835589 35.913968724968306 188.9540962526386 0.6785472799660792
2.012979862764345 12.380090118732433 33.713152537974764 196.9888063207972 0.6929569154002151
2.0212098216631698 12.337738712320155 31.6701418841569 205.43331805847316 0.7079463453737321
2.028787941196167 12.294038945874846 29.78328527462753 214.31009963798078 0.7235372257726782
2.0357238353818365 12.249077909282574 28.034401867570832 223.65576154822367 0.7397934024691961
2.042001220231027 12.202807300730836 26.41389346875388 233.4874941714541 0.7567105106051464
2.0476042763270152 12.15522896773456 24.911917463881053 243.84671810014396 0.7743582769809908
2.052545346737161 12.10638326951635 23.519244335770463 254.77013854202656 0.7927842085078881
2.055854416859823 12.059347710655555 22.355847866474022 266.8339824440374 1.2920289525972182
