M[M_sun], R[km], Lambda[1], P_c[MeV/fm^3], rho_c[fm^-3]
0.23835315348680472 16.224115897624433 2803846.7813616297 3.45143464264431 0.16959267850507953
0.2484515092878628 15.876545521105452 2295959.6962918793 3.635312540200635 0.17199156696864157
0.25884209223157234 15.569280080228591 1889185.5173623667 3.8260837045521545 0.17439841949987167
0.26952377118744786 15.29703625826809 1561277.7525742985 4.023979444442501 0.17681417987152637
0.2804933354620133 15.054916751673243 1295748.2874181892 4.229241986483545 0.17923980104893888
0.291756131498472 14.83910434769624 1079451.0231875463 4.442124780660088 0.18167624340471702
0.3033122042598461 14.646034412595677 902499.8870979755 4.662892823006003 0.184124473317701
0.31515333998105766 14.473478843325452 757166.9910061703 4.891822996237075 0.18658546209868787
0.3272865176849605 14.31871661042611 637287.4441938112 5.12920442890153 0.1890601851915732
0.3397112844483453 14.179833960857726 538006.0025673237 5.375338873425893 0.19154962160478112
0.35242220769189786 14.055092154644008 455522.17917166365 5.630541103290292 0.19405475353390006
0.3654268073091817 13.942997643865978 386727.567229476 5.895139329461718 0.19657656614232266
0.37872160791822307 13.842114068455885 329140.0132212568 6.169475636142938 0.19911604747228887
0.39230680930955597 13.75146017074065 280851.1346115809 6.45390643586148 0.20167418846400906
0.40617991023805794 13.669852238295107 240193.52885096538 6.748802943923494 0.2042519830654832
0.42034231316071136 13.596531944133456 205886.54894747637 7.05455167229282 0.20685042842019585
0.434799242238855 13.530715998098632 176860.47515910765 7.3715549430271246 0.20947052512404618
0.4495429948633308 13.471624102207798 152230.86066130263 7.7002314215090095 0.21211327754666404
0.46457881270403617 13.4186043403496 131288.45459582144 8.041016669853686 0.21477969421568038
0.47990089623908894 13.371195192488523 113442.15439176776 8.394363721055509 0.21747078826555227
0.49550950465591687 13.328812668213521 98200.34177584497 8.760743674653805 0.22018757795520807
0.5114114792647612 13.291119196645989 85139.51232794313 9.139442694379477 0.22291450592351983
0.5275939100047851 13.257704335082533 73958.99680163582 9.532035353092205 0.22566824440567926
0.5440612014375943 13.2280239208602 64338.49174357194 9.939077285345364 0.22845028449033475
0.5608206094973386 13.201913543383203 56055.73357686836 10.361117215948438 0.23126173013574938
0.5778506701019525 13.178961132906581 48916.51662204363 10.798725618901845 0.23410369445722495
0.5951696214833039 13.158981741747052 42744.015628735484 11.252495507889158 0.2369773008274497
0.61277062150358 13.14171898515874 37405.6398753705 11.723043263561532 0.23988368410862243
0.6306421090108825 13.12681794478253 32779.762716887286 12.211009501268494 0.2428239920317898
0.648785360590434 13.114202135556905 28759.28309300367 12.717059983453442 0.2457993867391581
0.6671963868659194 13.103628367194325 25267.416804569868 13.241580076172655 0.24880768750740956
0.6858761433011731 13.094858332601472 22225.957111058287 13.78395136648935 0.25183608485321374
0.7048201820007814 13.0878014910047 19575.968126891923 14.34646053596482 0.2549031610112619
0.724020031542991 13.082229002464704 17259.347049508768 14.929886886144343 0.25801021516739764
0.7434799774694901 13.078037227473423 15234.986448583895 15.535040888707456 0.2611585712355527
0.7631884038642698 13.07513292733338 13463.8530978868 16.162765518150934 0.26434958061016733
0.7831397286938595 13.073306293304343 11911.20521202886 16.813937675300128 0.2675846251857282
0.8033296877910141 13.072460688209572 10548.626349955739 17.489469711320563 0.2708651206587083
0.823754934205624 13.072525573442586 9351.98165693998 18.19031106275924 0.27419252012665946
0.8444103507525494 13.073383964601879 8300.156276520267 18.917450009025462 0.27756831799869863
0.86528908219972 13.074817176389772 7372.162417168773 19.67007464791038 0.28097823367778246
0.8863807076982297 13.076906040383344 6516.268248609036 20.450578765073242 0.28443610861512164
0.9076735032416084 13.079483964832328 5834.80513605694 21.260550676483184 0.28794772411444575
0.9291691948987136 13.082478034703053 5198.195725158358 22.101163982749657 0.291514841584113
0.9508559818700696 13.085726927676163 4635.31619412905 22.97364301159866 0.29513928734456807
0.9727248132201443 13.089286119150099 4137.147243180171 23.87926560826332 0.29882295865081404
0.9947693692680709 13.092969333551306 3695.6293730379784 24.819366152420695 0.30256783013507804
1.0169785384119692 13.096852196800409 3304.421942805204 25.795338821325224 0.30637596068584655
1.0393378878346438 13.100696328485325 2957.0906847327965 26.808641120046588 0.3102495007804475
1.0618434611477714 13.10455441475904 2635.077282077114 27.860797701045296 0.3141907002896521
1.0844812727784205 13.108316897608876 2374.37237470737 28.953404496736606 0.31820191677442883
1.1072453811448113 13.111920540710617 2130.174658810102 30.088033796285966 0.3222849577577745
1.1301144564994121 13.11530626300951 1912.7602657063537 31.264869995791873 0.3264321867157416
1.1530795832449463 13.118470335296172 1719.0242929341111 32.48752016231362 0.33065840201085456
1.1761355033182066 13.121340170852237 1546.0492732123664 33.75793253442528 0.33496653422325523
1.19926453737228 13.123832838534863 1391.6936645427581 35.07815380425038 0.33935967075038637
1.2224499799335429 13.125920384390536 1253.6794272874522 36.45033572555456 0.34384106777413764
1.245677812154376 13.127523026896979 1130.2675792268765 37.87674225464246 0.34841416296274075
1.268939295054154 13.128654896381054 1019.8141713777986 39.359757265579674 0.35308258895629796
1.292194140273185 13.129171694076792 920.9931630816714 40.901892884582445 0.3578501876907017
1.3154675764523487 13.129140733931541 832.2912881111829 42.505798492112774 0.3627210256212059
1.3387291445433191 13.128484119617099 752.7516205162685 44.17427044533749 0.36769940991409567
1.3619516185812885 13.127116019412474 681.3979127557213 45.91026257819915 0.37278990568279025
1.3851458334394267 13.12512203072455 617.1968786110848 47.716897541464014 0.3779973543533757
1.4082572672978926 13.122298232282645 559.5435467686234 49.597479050819366 0.38332689325406083
1.4312861109890032 13.118717092996667 507.68348492683293 51.555505117444454 0.3887839765334078
1.4542153185056497 13.114267081597145 460.89059965700034 53.594682342564354 0.394374397523558
1.4770200860149367 13.108944832319574 418.85548647601826 55.71894136537018 0.400104312677054
1.4996965115783187 13.102748463814395 380.89740939539996 57.93245356246988 0.40598026721945557
1.5222165809015904 13.095577779950984 346.660161060825 60.237941328270715 0.41200121388778865
1.5445536798879842 13.087471046786852 315.76069677245835 62.639837340730715 0.41817369015973643
1.5667080327818061 13.078368785364212 287.83395706412165 65.14454169943149 0.4245123313849584
1.588651474907864 13.068228256490684 262.5771441579179 67.75734483363156 0.4310254568565427
1.6103493158522668 13.056988404390268 239.72548434382202 70.4838823174846 0.4377219294045097
1.6318082473468165 13.044715078994193 219.0348866091408 73.33016158964466 0.44461119470889354
1.6529929879041554 13.031274033580793 200.30468219357527 76.30259093626731 0.4517033237972194
1.6738753373592945 13.016650458878503 183.32220758962447 79.40801095076034 0.4590090590346559
1.6944318687994164 13.000867927213541 167.92393531050107 82.64644730725908 0.4665099339824261
1.7146815426850353 12.983893981032445 153.92368827765213 86.0314310500923 0.47424262792466704
1.7345733047379512 12.965696252089108 141.21417497608965 89.57193869150981 0.4822229159583979
1.7540758087347803 12.946224680475657 129.67018072158572 93.27685361021065 0.49046463543944857
1.7731839485293848 12.925451605183376 119.16323677917731 97.15074518480084 0.49896340725931654
1.7918813000755014 12.903405624998443 109.6129626728553 101.20167633738909 0.5077276006146693
1.8101383327109852 12.880023581328416 100.89724049588746 105.44651928087097 0.5167975550784061
1.8279339814605813 12.855262772876216 92.96332912670586 109.89607373044637 0.5261879961406306
1.8452567719603132 12.829157464663139 85.73276967387051 114.54994663311419 0.5358706847871677
1.8620643787459745 12.801641245865182 79.12710684178793 119.43407786652894 0.5459133543357771
1.8783605304868045 12.772718704144308 73.10391942635412 124.55804297294284 0.556320569827281
1.8941124480304856 12.74236406261175 67.5934160986298 129.9292498695233 0.5670876066394257
1.909304962673502 12.710566478704527 62.558036091068516 135.57578276700724 0.5782812192250617
1.9239108625961736 12.677314494278239 57.95450190458943 141.49762997939754 0.5898659097747054
1.9379184026638792 12.642578502951727 53.7386651039035 147.72854136992228 0.6019222493602362
1.9513028349279298 12.606352759304807 49.880015337318845 154.27328868084237 0.6144266881818217
1.964041540212282 12.56860018774278 46.344348993847255 161.16606017043787 0.6274540692093785
1.9761353622204165 12.529366992901387 43.09865585353793 168.4127020010396 0.6409788624294502
1.9875481822044387 12.48863727944927 40.12657321998423 176.05256754707474 0.6550855653093036
1.9982618350285963 12.446331643798278 37.393732632567804 184.09898178056812 0.6697667407727089
2.0082720864479175 12.40251755430518 34.88276252035571 192.58459853132584 0.6850754726104774
2.01753583733201 12.357110992252931 32.50987614958537 201.54260262241792 0.7010615267394417
2.0260773613728698 12.310246667613775 30.458628653222153 210.99686964620517 0.717738790608573
2.033839887108814 12.261815485047915 28.512157317008125 220.98490195536988 0.7351603751620948
2.0408378851166793 12.211845990291437 26.718600923634213 231.54757617843606 0.7533840666490494
2.0470542923060737 12.160334502145453 25.065336884775657 242.72473878302088 0.7724573537742588
2.0524600535959014 12.107288618025036 23.543430614515152 254.559934984147 0.7924322190654205
2.057045630368347 12.052700856738355 22.141646270988026 267.10077284095337 0.8133654885546597
2.060809136727662 11.996643954633317 20.85072446678688 280.39860943524764 0.8353168777015081
2.0637315352025953 11.939054534134122 19.659763637665023 294.5118759619291 0.8583588096039593
2.0658067646755147 11.880009725217432 18.560171776191112 309.50302604148493 0.8825653371042218
2.0670328934751443 11.819489612912205 17.5480319440223 325.43902064684636 0.9080123719990544
2.067396438160437 11.75755220877337 16.612391031775253 342.3956457408686 0.9347904215958682
