M[M_sun], R[km], Lambda[1], P_c[MeV/fm^3], rho_c[fm^-3]
0.23835315348680472 16.224115897624433 2803846.7813616297 3.45143464264431 0.16959267850507953
0.24670189156485822 15.932920898433133 2375105.6363376277 3.603030657680506 0.17157280628019456
0.2552478976579091 15.670514665021544 2018832.0735596044 3.7594661708317525 0.17356189822132448
0.2639931226454969 15.433047571309967 1683427.21351828 3.920909758542352 0.17556109571734613
0.27294485186030953 15.217792259957019 1471730.883753926 4.087536741313751 0.1775715047468704
0.28209246594199827 15.022382612127862 1261938.512131575 4.259529299734218 0.17959419698511458
0.29143687025349063 14.844740571787407 1084944.602044994 4.435946196491334 0.18160579204972432
0.3009867810728319 14.68272080249729 935026.5783794256 4.617788728599618 0.18362627418187266
0.3107283924382018 14.535332383547331 807843.7405065307 4.805465692963637 0.1856613069615107
0.32067074148088043 14.400522993144964 699450.733251261 4.999185268271885 0.18771189556330878
0.3308179829133856 14.277389497965455 606887.2145854225 5.19916313551492 0.18977901310601403
0.34115996189880354 14.164825464238127 519439.7252661384 5.404559144097976 0.19184329234629044
0.35170109698433444 14.061723942830081 452810.7668765215 5.615821891222743 0.19391135922991082
0.3624423802175489 13.967385791534701 401298.6734064825 5.833903861222502 0.195998215018628
0.37338269576468885 13.881124305094898 350928.43735839624 6.059049525955144 0.19810476570659363
0.38452031993890945 13.801970761680998 307363.4992197248 6.291511640232464 0.20023188816904555
0.3958617955733367 13.729556058260346 269671.1987278284 6.529487946069598 0.20234546141980003
0.40739785603932194 13.66324461316572 236981.886337342 6.77495604746036 0.20447728363487272
0.41913704567536364 13.602407532150286 205985.37681964014 7.028405497687262 0.2066319159470064
0.4310747910665817 13.546863449945064 183829.3239453395 7.290121154379477 0.20881017110400127
0.44320361281059445 13.496037003211347 162262.77035446194 7.558910800932845 0.2109898108652799
0.4555412828606423 13.449629637455677 143420.30713106846 7.8352233647186535 0.21317561146234087
0.46807864084720263 13.407235704684917 126922.4148696012 8.120559158929593 0.2153872866464859
0.480810511180191 13.36858639688212 112477.07045357615 8.415238142572065 0.21762558752548194
0.49373565415673265 13.333435001343636 99797.42452605949 8.718310899940494 0.21987309596581273
0.5068701682970107 13.301441463406643 88649.68067783747 9.02941465713096 0.22212221833775114
0.5201899340669568 13.272419589112872 78842.36160494422 9.350721438053098 0.22440023577588347
0.533712266345149 13.246182578953801 70196.8580850664 9.682589611839601 0.2267078413490033
0.5474313425449564 13.22249729454638 62558.400503499266 10.023927860854323 0.22902671493361018
0.5613376469055826 13.20116155387169 55822.259463508424 10.374320543336113 0.2313488804778024
0.5754424746289922 13.18205493874037 49862.67787648047 10.736249586700005 0.23370293063362832
0.5897365671804671 13.16492542051928 44575.71826206562 11.110115441122923 0.2360895056598109
0.6042266086490826 13.149749102067013 39891.579927678926 11.494310020630012 0.2384851084914869
0.6189046566369492 13.136347841201065 35734.70802092212 11.889113504088117 0.24089049181263217
0.6337763134913122 13.124478686734463 32037.896572587008 12.296958255440096 0.24333073952348802
0.6488288141041202 13.114181628282623 28750.84772176788 12.718290971878888 0.2458064468756093
0.6640658718314496 13.105265248687422 25826.229379518045 13.150657682052131 0.24828621671557385
0.679492965466012 13.097653599635914 23213.914440885386 13.595704279521213 0.25078555607367514
0.6950927482097398 13.091177588696816 20885.877829836005 14.05548979806952 0.25332276212198557
0.710876943815749 13.085860254185759 18805.876653326224 14.530512087369203 0.25589839664111497
0.7268355407997434 13.081565215982419 16948.149221753436 15.01723359711174 0.2584720880822549
0.7429750212424953 13.078146761346444 15284.60757888912 15.519169349144134 0.2610768418900941
0.7592816517635458 13.075618046158581 13794.928359049858 16.03775992391298 0.2637225344075493
0.7757573099162436 13.073865646103028 12459.852454984548 16.57356035394378 0.26640971041304323
0.7923997123089666 13.072821678127033 11262.501823105637 17.121859346491693 0.26908968281043016
0.8092103417072124 13.072414906872991 10186.805514014237 17.6882697955936 0.27181224572795837
0.8261690496985831 13.072574922316264 9220.962657398299 18.27350074935444 0.2745789552770502
0.8432926968649116 13.073295436618952 8353.278190440473 18.877556297014326 0.2773849316661684
0.8605597168466842 13.07443263959324 7571.667988426457 19.496522980540064 0.28019192331651926
0.8779867158042782 13.076017560690596 6867.619055012868 20.1360889832347 0.2830459171540938
0.8955442257415398 13.077955641027694 6233.313532667498 20.79693084972423 0.2859474907130462
0.9132560892138928 13.08023377276289 5661.428064124876 21.47874858149093 0.2888891134004972
0.9310985100648633 13.08271338388624 5145.334495018926 22.178131749307635 0.2918390532528437
0.9490681744353545 13.08547610172111 4678.919933386264 22.900825389209235 0.2948397090210975
0.9671629207190687 13.088361131352215 4258.086024453958 23.64759126067725 0.29789171914418433
0.9853855630309942 13.091401110569228 3876.850694594253 24.418533084379806 0.30099060122165844
1.0037117644867661 13.094518028459857 3532.445966118772 25.209454200258353 0.3041003750364919
1.02216490692313 13.097758353346103 3220.297792293007 26.026787863591466 0.3072650237494329
1.040714208258069 13.100957750763685 2937.306692440868 26.87139781344988 0.31048529059390945
1.0593572397140327 13.104157813535597 2680.9024718033734 27.74417405678634 0.31376195235028603
1.0780969306195913 13.10726234988153 2448.4173258508613 28.640308750735606 0.3170564464116454
1.0969154512245012 13.110274389258004 2237.2983143601923 29.565654015855984 0.32040513846065793
1.1158221261932983 13.113223739490659 2045.6005689603692 30.521974233311308 0.32381438498204856
1.1347990631849012 13.11597341672945 1871.2536532318081 31.51028999404177 0.3272851375626038
1.1538399070725953 13.118571849055268 1712.912306744107 32.52907173600604 0.3308018323416571
1.1729360047346769 13.120956049017476 1568.8947027768 33.57806912293084 0.3343581093049871
1.1920923729000923 13.12310525124524 1437.6845520886986 34.66234800423515 0.3379807746280443
1.2112835128934325 13.124929554147728 1318.088087887256 35.78309133514278 0.34167102176635367
1.2305068551999343 13.12647238181468 1209.2265634343826 36.94152545537848 0.34543011916561545
1.2497683447923214 13.127758011747941 1109.9355318015248 38.135684260008915 0.3492403823864477
1.2690501179276485 13.128668612715911 1019.3351324157578 39.36711361234042 0.3531056261371014
1.2883212183461707 13.129113405751717 936.6849908273963 40.640273152986005 0.35704577949154187
1.3076153450816717 13.129247068947508 861.1825194862118 41.95660530322695 0.3610624563110776
1.326903037579797 13.1289245812121 792.1565818299836 43.31761136823467 0.3651573754299601
1.346161177763477 13.128154986833414 729.0855447015969 44.72485529068676 0.3693323674449959
1.3653907196487156 13.126857561104197 671.4157737422026 46.17463150620695 0.37356100409521004
1.3845852608931213 13.125124569717295 618.6970006479409 47.673778302037995 0.3778736867542992
1.4037595828200753 13.122891589574763 570.2954852836828 49.224430456618144 0.382274462903417
1.4228596368698188 13.120079182394988 525.9952933602219 50.82846090434186 0.38676566766530024
1.4418960665947853 13.116695180854336 485.4346052508338 52.48782842470342 0.39134978612299826
1.4608678320847364 13.11280193025141 448.215763330833 54.20458324493411 0.39602946194734306
1.4797515490686608 13.108267096377126 414.08232790538614 55.98087302123031 0.40080750639865964
1.4985340239748643 13.103083694839537 382.75457216696935 57.815420651741796 0.40567006569686126
1.517213652030123 13.097262939035247 354.0008608272467 59.713623677451494 0.41063536445710647
1.5357702708586873 13.090780964758393 327.56672009779334 61.6787265230098 0.41571039035391755
1.55420588358549 13.083646803346706 303.2713542265603 63.713351587664505 0.4208987136581788
1.5725001029135783 13.07579213119656 280.93890942153996 65.8202553359671 0.4262041258103394
1.590645922782871 13.067207759873066 260.3785253622734 68.00233713583096 0.431630651690192
1.6086139008108444 13.05788183301296 241.47567107074937 70.2626486916177 0.43718256258161925
1.6264520537652845 13.047900101751996 224.0408925617535 72.6044041145337 0.4428643898954904
1.6440827019350475 13.037095591611799 207.9909503715242 75.03099067653262 0.44868093971923106
1.6615075453812091 13.025469651575262 193.2009550490761 77.54598029821248 0.45463730826730264
1.6787353133292278 13.013052089164155 179.5560421370058 80.1531418258739 0.4607388983129138
1.695740962503965 12.999846558729311 166.9816793526287 82.8564541580299 0.46699143668786214
1.712516360388244 12.985808566804456 155.36849528016194 85.66012028724292 0.47340099294446375
1.729055353099053 12.970915162145586 144.64153351821074 88.56858232927827 0.4799739992811999
1.7453330329050052 12.955152711513795 134.73322535768742 91.58653761822455 0.4867172718419912
1.7613391615822838 12.938482452593096 125.5851198450392 94.71895595354216 0.4936380335080896
1.7770860710946244 12.921003617979402 117.11836537265508 97.97109809296414 0.5007439383114022
1.7925241129883602 12.902556326644786 109.28364240685957 101.34853559391546 0.5080430976088669
1.8076805064848598 12.88328046447096 102.04038318405865 104.85717211568193 0.5155441081692957
1.8225144890199447 12.8630138656447 95.32351642108378 108.5032663050404 0.523256082337037
1.8370244125929611 12.841821012264358 89.11167055914842 112.29345639957153 0.5311886804510348
1.851199284538062 12.819682681621728 83.35016740827074 116.23478669550863 0.5393521457134771
1.8650139941488313 12.79657129760286 78.01028885501563 120.33473604085786 0.5477573417194179
1.878476868214505 12.772493723575316 73.06296981093469 124.59598696729732 0.5563968784061241
1.8915611439824582 12.747438440069503 68.46054378558098 129.03033139244357 0.5652954226076076
1.9042588748385623 12.721364338036894 64.19865159746956 133.64786431547412 0.5744700633967453
1.9165680739490556 12.694319867734954 60.23868352253405 138.45809770605123 0.5839344998058725
1.9284809499060438 12.666267489304998 56.55864782660031 143.47115543036 0.593703279954315
1.939970403652361 12.637229540535735 53.136848898414954 148.69236693616412 0.6037730687898172
1.951026221327727 12.607112268210749 49.958339778110755 154.13320926306193 0.6141606813802141
1.961648693962223 12.575994565043136 46.998866865342634 159.8104235024599 0.6248992509769936
1.9718149237659381 12.543813314961378 44.24628956908601 165.73701911643408 0.6360072341676635
1.9815275802405379 12.510593410763951 41.68525400581368 171.91575627904479 0.6474669442524933
1.990770028607302 12.47637147389734 39.298931628023325 178.3694033503902 0.6593264996668504
1.9995176967642878 12.441042764283718 37.076474688851754 185.11584183475122 0.6716151333221941
2.0077908343641604 12.404692502116422 35.002717404744715 192.15810415582 0.6843107179586405
2.015558924272921 12.36728869807205 33.07126182455998 199.52489740590838 0.6974742191806714
2.0228157406007172 12.328801918277161 31.27068401765482 207.23108393304952 0.7111180190701967
2.0295650242903425 12.289296352535715 29.58938601178423 215.29125739016436 0.7252512685224964
2.035776244286172 12.248682389592588 28.01940465600348 223.73553072242842 0.739931025534304
2.0414594168270783 12.207044866278878 26.55668338281013 232.57287537463824 0.7551421823666586
2.046590084389755 12.164338229062581 25.18868618214028 241.84453525436115 0.8126902030827952
