M[M_sun], R[km], Lambda[1], P_c[MeV/fm^3], rho_c[fm^-3]
0.23835315348680472 16.224115897624433 2803846.7813616297 3.45143464264431 0.16959267850507953
0.24800310228607708 15.89082303543267 2315743.6901390254 3.6270136648119866 0.1718839139292341
0.2579187829146566 15.594895778743531 1921474.08189022 3.8088791524743706 0.17418238067199576
0.2681037927341068 15.331011940069391 1600470.3258991211 3.997241144500046 0.17648910524192027
0.2785507782718258 15.095347615208539 1338490.0443311203 4.192319360981953 0.17880511086147857
0.2892665150365311 14.884233326334973 1123177.1814057175 4.394343435084172 0.18113141623278656
0.30024433378839716 14.694870975470286 945734.0382980892 4.603553159811008 0.18346903461943714
0.31149050117909516 14.52446269104893 798864.5300499642 4.820198749689394 0.18581897318710275
0.3229992510287411 14.37117085026993 676815.7151358152 5.04454111715691 0.18818223255315444
0.334776095440206 14.232861345973838 565753.6808980418 5.276852163289213 0.19055980650281892
0.34681247582332125 14.108293628543926 489844.4027457147 5.5174150823773935 0.1929526818362145
0.3591214781806987 13.995587772826038 418368.6303635133 5.76652467977881 0.19536183831698584
0.37168831833682664 13.893879124247356 358176.66637000197 6.024487702408312 0.19778824869913367
0.38452786163854025 13.801929451200348 307341.57840913464 6.291623181213203 0.2002328788140277
0.3976272796433221 13.718925675914019 264313.70759423694 6.56741106818981 0.20268227350794643
0.4109974950679722 13.643906609838071 227791.7052520501 6.852716985072538 0.20514716908443673
0.4246263635765853 13.57610167454529 196707.13233025503 7.148113449890477 0.2076323560148552
0.43852301299094715 13.515081063819796 170204.4830586622 7.453969444588871 0.2101388318345663
0.4526889581582929 13.459954869771352 147527.98029177173 7.7706682265300175 0.2126675877158978
0.4671110426919744 13.410334012990829 128111.44738431765 8.098607754026375 0.21521960887301297
0.4818058351201867 13.36571519041338 111422.96799160623 8.438201122964491 0.21779587499273984
0.4967612728649824 13.325756293865828 96081.31245697907 8.789877014586386 0.2203973606991139
0.5119795992848597 13.289882578427193 84718.50883630301 9.153299536137489 0.22301428597937994
0.5274561491309682 13.257923509543094 74039.19891428204 9.528623538371374 0.22564438407202342
0.5431982512816064 13.22946645572393 64803.4164442863 9.91728270515778 0.22830222350850668
0.5591946561921373 13.204276536548598 56801.69398412287 10.319771426062449 0.23098882167675153
0.5754544105708876 13.182034473435278 49854.657536174316 10.736602411997744 0.23370519389540087
0.5919699396208566 13.162488215553598 43813.89370537949 11.168307258319176 0.23645235430341896
0.6087364076410096 13.145455454136489 38556.03718383495 11.615437028191357 0.2392313168547023
0.6257586496563355 13.130637911567591 33972.37086052161 12.077829079529078 0.24203458779646486
0.6430351852014674 13.117962139120866 29968.018107091157 12.555078374954576 0.24485259663917877
0.6605530337901238 13.107211934795695 26467.03982997867 13.04939654327918 0.24770544971390293
0.6783156244286732 13.09818881595316 23401.055738041567 13.561419975492052 0.2505942296173185
0.6963224356405695 13.090750662280033 20558.516153715023 14.091808357783174 0.25352002529644346
0.7145676664174692 13.08481146386974 18356.669789772503 14.641245476648129 0.2564839338950291
0.7330431749848495 13.080105921298516 16283.936266157203 15.21044007163186 0.259487062796875
0.7517547036662966 13.076654467133533 14460.757687037874 15.798645142212289 0.2625159822802145
0.7706919266665538 13.074311187781639 12853.48128925893 16.406593978402878 0.26557265955333964
0.7898501547588767 13.07290441440127 11436.503247022236 17.036471798336155 0.2686723260849071
0.8092312662733703 13.07245102121119 10186.297564184646 17.689101588825295 0.2718162085644182
0.8288171422689844 13.072637242891755 9080.978253544668 18.365337153681352 0.2750055564119973
0.8486090215218732 13.073591422854822 8102.342838103455 19.066064418243844 0.27824164515004246
0.8686127095888895 13.075164942245102 7236.347768414815 19.79220283519984 0.2815257800489421
0.8888062800092353 13.077200950743403 6468.568850811119 20.542910274763976 0.28484425693588894
0.9091848099974733 13.07970755867239 5787.509688828183 21.31946996178523 0.28820192446491744
0.9297459395242406 13.082511905982807 5182.296311191199 22.124346921794896 0.2916124951823667
0.950484165608518 13.085676704053474 4644.379339288853 22.958620350172307 0.2950774827486956
0.9713944537633432 13.089108543000059 4165.835757179492 23.823412622159363 0.29859845167468485
0.9924549106375903 13.092598216882962 3739.547720328009 24.71989155014043 0.3021770227381587
1.0136672535426137 13.096226547604186 3359.6635682803603 25.649272828656308 0.30581487874030705
1.035024964323477 13.09994951443718 3020.815836009875 26.612822683042094 0.3095137706100099
1.0565134353827461 13.103627326859405 2718.466036925188 27.60937060260829 0.313258006249552
1.078134590545289 13.107265477474451 2447.913667435017 28.642079563303195 0.3170629565172434
1.099858479916918 13.110765106909437 2206.180705608538 29.71310964287499 0.3209357675996927
1.1216929071498225 13.114108040824766 1980.1923166839563 30.823975024181486 0.3248785695336966
1.1436171464858864 13.117212790983253 1796.0191349978672 31.976258012633885 0.32889359522403505
1.1656277141680422 13.120065613333027 1622.2981262270068 33.171613276876435 0.33298318895370216
1.1877009848823887 13.12259278493904 1466.6665472210768 34.41177243109898 0.33714981535297295
1.2098544277331496 13.124826841382793 1326.6184237452705 35.69854898400544 0.3413960688492358
1.2320426165153078 13.1266233296689 1201.0058770501225 37.03384368106779 0.34572468362269815
1.2542521443696832 13.127945097833381 1088.0888199298886 38.419650268478186 0.35013854409664497
1.276496063913135 13.128844590580261 986.4342067741316 39.8580617092027 0.35464069599490966
1.2987546349907257 13.129231516014578 895.0216101574156 41.35032454257665 0.35922899081175147
1.3210074064023054 13.12904945868628 812.5907318963749 42.89899008544384 0.36390846844259694
1.3432382599356465 13.128278224572144 738.3017360560589 44.50742458807768 0.3686880054266096
1.3654377088950664 13.126877497093627 671.2991236353253 46.17821279847955 0.37357144983407437
1.3875959995864755 13.12482086701816 610.7802644541908 47.9140785055911 0.37856287676846884
1.4096935987410926 13.122108330830846 556.1321661818649 49.717894275054014 0.383666604054836
1.4317079007950837 13.118616542074804 506.7336417269692 51.59269193613267 0.38888720888789535
1.4536358445243918 13.114370692334127 462.06153879033 53.541673877903676 0.39422954552100226
1.4754507366620968 13.109323950419357 421.6144429968808 55.56822521816671 0.39969876408579047
1.4971420118266108 13.103489360196496 384.9842551392089 57.67592691447803 0.4053003306418037
1.5186864490725611 13.096757382642977 351.80883115356147 59.8685698933125 0.41104004856568227
1.5400885591715023 13.089188382671171 321.7163774485475 62.15017028068338 0.41692408140061304
1.5613094291739373 13.080677545108314 294.38482821288545 64.5249858256861 0.4229589772988957
1.5823405365689795 13.071242630161626 269.5911743592414 66.99595125865456 0.4291446163002755
1.6031562589962225 13.060802165031923 247.06658845717854 69.56783752712155 0.4354886153399436
1.6237728382534091 13.049475731960094 226.57093453473567 72.24676409134206 0.44200359639986536
1.6441340837240528 13.037061805843425 207.94120375917703 75.03811082004917 0.44869786312596416
1.6642103581613743 13.023538893664442 191.00664935435435 77.94760136517169 0.45558025042846506
1.684042555202587 13.009046896623307 175.55290794005165 80.98132908102194 0.46266016161434287
1.7035641017703933 12.993421174297099 161.4701904335344 84.14578507533597 0.4699476084632427
1.7227661469541242 12.976655882543074 148.64318619770046 87.44788858857042 0.4774532545254356
1.7416570177454356 12.958827989443805 136.92355046906945 90.89258606067813 0.48517880872771113
1.7601844241522453 12.93979177831721 126.22975038260421 94.48437722969925 0.49312352670213655
1.7783338224947463 12.919561711977478 116.46429416268187 98.23659293535232 0.5013201803242441
1.7961133125221478 12.898178946298653 107.54082971953656 102.15817056219085 0.5097824322952195
1.8134709491036505 12.875514648262888 99.3765054677734 106.25866748570455 0.5185248640691291
1.8304188652398818 12.851660469127692 91.89865630219393 110.53940495399043 0.5275299163928295
1.8469173609823002 12.826516363072367 85.05295701622622 115.0167558662341 0.5368352737362445
1.8629608121960188 12.800136516215625 78.7909481778853 119.70479189450738 0.5464676081763519
1.878523490965407 12.772415058186466 73.04655646211181 124.61059283245238 0.5564262520351191
1.8935916315218322 12.743417511066466 67.77296893055589 129.74338901362074 0.5667170537288094
1.9081491105268351 12.713073489242024 62.934075757092586 135.1258950537145 0.5773918703113459
1.9221719867085105 12.681435590848183 58.49305217497726 140.76332049974144 0.5884381008257695
1.9356433094015872 12.648404165901711 54.410388463558284 146.6744629141691 0.5998890672645888
1.948547296937192 12.614015319944968 50.65960001216003 152.87947174961968 0.6117798697571326
1.960888301505151 12.578315276448794 47.20696353116448 159.38551718854424 0.6240984771240213
1.9726205078706784 12.541189421446003 44.031998833826464 166.22515630184944 0.6369168490787824
1.9837383067669576 12.502672197255757 41.10979718801809 173.40287044115425 0.6502084787306434
1.9942311563462993 12.462793650448205 38.41675448314721 180.95541634248167 0.6640525395798551
2.0040666635387363 12.42146865822208 35.93190143279084 188.8939747071656 0.6784387429404919
2.013262727777545 12.378788069633579 33.64460787910925 197.25098675270965 0.6934239130814864
2.0217595707293445 12.334645979804707 31.53259899571374 206.05427784272817 0.7090451652602151
2.029587261394571 12.289129015919347 29.582349947522435 215.32307808311356 0.7253068579808912
2.036703591978443 12.242175355977343 27.782531680789205 225.09995949022044 0.7422850284560722
2.043120101222082 12.193855215881712 26.118652490967534 235.4175748805603 0.760017617828493
2.0488074066461923 12.144127754222342 24.58181615701771 246.30387690486185 0.7785213396357382
2.0537429606304856 12.092976826257951 23.16173563863459 257.8053533684436 0.7978667274970854
2.0579517918371577 12.040468729720212 21.846627645505507 269.96586267181857 0.818108512075533
2.06138731005187 11.986576697234117 20.63230084034899 282.8315059655457 0.8393007448848014
2.0640610162298185 11.931269407328339 19.508154945729483 296.45259534167974 0.8615023565046873
2.0659565334067422 11.874678168721777 18.4665632102167 310.8840655859027 0.8847775511750335
2.0670724543643493 11.816722006122555 17.50342481297106 326.18593305651683 0.9091962515017143
2.067395309920206 11.757440925263088 16.611700003797996 342.42380756435267 0.9348345984956591
