M[M_sun], R[km], Lambda[1], P_c[MeV/fm^3], rho_c[fm^-3]
0.23835315348680472 16.224115897624433 2803846.7813616297 3.45143464264431 0.16959267850507953
0.24857572997847058 15.872554959905905 2290583.3631241396 3.6376177178632303 0.17202146974102106
0.25909695060500315 15.562557606571737 1880505.273718005 3.8308723187326197 0.17445855048090625
0.26991540593722246 15.287719453321888 1550707.5595603182 4.031436452072934 0.17690483948708347
0.28103525529615125 15.043823486137647 1284121.1799931105 4.239559415241737 0.179361268170523
0.29245299541102354 14.826591774948568 1067584.5111773266 4.455502125585519 0.18182877868633818
0.3041638824922343 14.63280996962562 890948.781467086 4.679537467828596 0.18430832242887196
0.3161773634442598 14.459584007854538 746033.6893027445 4.911950660422065 0.1868008588694397
0.3284847058861165 14.304557147094142 626847.9868611346 5.1530396416476 0.18930735468549528
0.3410880409637373 14.165579280596395 519952.901928699 5.403115476085035 0.19182878313586554
0.35399209541603244 14.040745748960724 446458.3461168313 5.662502781905811 0.19436612364246073
0.3671859742352184 13.928909654996689 378425.5193369297 5.931540179347381 0.19692036154456524
0.3806803888069333 13.828317295750825 321588.5698519686 6.210580760651668 0.19949248799728442
0.394474993196852 13.73796798429477 273953.8255864801 6.499992581717156 0.20208349999092046
0.4085690427605495 13.65679404932131 230960.12359114143 6.80015917571613 0.20469440047297258
0.4229561846044227 13.584021496105095 200231.7049299711 7.111480088966541 0.20732619855903256
0.4376421162795156 13.518717040303951 171751.42963390725 7.434371439422832 0.20997990982306255
0.45262716595052715 13.460171557029689 147620.37771458985 7.769266498262325 0.21265655666142205
0.4679050515274448 13.407780304035938 127136.3064013701 8.116616295193475 0.2153571687285078
0.4834792180399173 13.360983368230237 109703.1319631463 8.474442224232208 0.21804703390912228
0.4993590115358829 13.319255185883321 94824.25171966461 8.843022186863651 0.22072436166303397
0.5155329290926862 13.282239576723512 82113.30659622513 9.236408934949552 0.22358188340988108
0.5314129452955797 13.249847890788546 71550.17841733129 9.64624133452932 0.2581119511497892
0.546051124258216 13.220682844032137 63136.05860869919 10.082196735452309 0.30041689021550677
0.5596727004088158 13.192415633287972 56209.129978745295 10.550589562295118 0.3393990549083105
0.572482308319155 13.163686442756276 50379.73935116024 11.050202618158819 0.37781576844594855
0.5846967074286021 13.13390405876219 45360.72569689808 11.583594874444952 0.41554865084169174
0.5964595962636635 13.102718137500604 40966.86897181668 12.146742068398806 0.4499098416209868
0.6078975715198616 13.069930525029111 37080.76195371563 12.743869054453185 0.48376300359619245
0.6191473323704944 13.035434018116073 33599.875638563164 13.37629407989786 0.5167423506562202
0.6302886736380734 12.999473553824513 30458.095477080973 14.038321434083697 0.5471754191955537
0.6414265644508952 12.96211716838608 27608.598915976458 14.73462408970134 0.5766200221375986
0.6526057835121252 12.923347530347352 25014.868982574935 15.466879297875654 0.6052000028139002
0.6639133381493882 12.883451401795933 22646.899285185897 16.235420730234143 0.6328152855317468
0.6754050203449393 12.842637168864222 20481.10140673956 17.0355664944693 0.658813498340903
0.6871143631250386 12.801114524425302 18498.869411882115 17.871191290927683 0.6838483658234501
0.6991025733545398 12.759077942798555 16688.3555045261 18.744384520475293 0.7081018349596243
0.7113790081954927 12.71666532516737 15034.594022555331 19.655594171553194 0.7314831703260206
0.7239961897437814 12.67408565290461 13523.924498693583 20.605278104366484 0.7540338232797864
0.7369842494851615 12.63165705427671 12148.626848202284 21.594062828689697 0.776023490494873
0.7503433721255546 12.58944407938765 10899.540221032326 22.6227427136998 0.7975274976960822
0.7641014534885371 12.547607131489533 9764.931530264397 23.692244190843777 0.8185915269195487
0.7782546976948179 12.50634113418176 8738.356788294157 24.803630593708295 0.8392638656658189
0.792827935811493 12.465724390362515 7812.053011338004 25.958106969322028 0.8595937783583947
0.8078156739832261 12.425894805508024 6975.537526276223 27.1570237969512 0.8796304677129705
0.823220248772723 12.387073666741713 6224.896949442218 28.401880402057824 0.8994224489692711
0.8390498576235857 12.349144347873464 5550.290086281751 29.69432855446665 0.9190172389979703
0.8552940060556284 12.312357885609433 4945.148337053012 31.03617657818749 0.9384611435062284
0.8719365821964656 12.276516270331655 4404.234558950583 32.42939414114334 0.9577993088645513
0.8889913807783016 12.241925996752462 3920.7767194108974 33.87611790876535 0.977075753504867
0.9064473108178344 12.208690899236982 3489.594994385786 35.37865811334833 0.9963335008167062
0.9242906134201573 12.176438854015945 3104.982548322344 36.93733341921804 1.015554235189657
0.9424659480743383 12.1450754030019 2762.9792488958 38.55170538091669 1.0347050585835824
0.9610265512641651 12.115012154771195 2458.3638540876186 40.22916365161297 1.0539594668724865
0.9799319474085798 12.08614343144925 2187.820255953999 41.97278212107791 1.073358220211768
0.9991547822029885 12.058322607121264 1947.2209769274064 43.77710329408064 1.092743807060785
1.0186858014408056 12.031627672463056 1733.7375091477395 45.65273191884068 1.1123336746639896
1.0384885434635285 12.005741618273914 1544.2542257173402 47.600026776688395 1.1321017132524893
1.0585875383905519 11.981035101740485 1376.202035093414 49.61978470819231 1.152034401879417
1.0789227380837805 11.957175649018351 1226.9429696439074 51.71908129831906 1.172242444701749
1.0994808799149163 11.934151509435846 1094.6152438281654 53.89708800651765 1.1926771453499374
1.1202368173951442 11.911647260686165 977.0327253532753 56.1599187320068 1.2134207685122536
1.1411765825299909 11.89004847674629 872.8096817226157 58.51246681861167 1.2345232889285491
1.162278663734573 11.869087022412847 780.2773838430816 60.95292101449423 1.2559241473862526
1.1834917730129098 11.848578218023093 698.1417019191334 63.49124614517334 1.2777534728567466
1.2048328180427132 11.828577645089869 625.111241046077 66.13088525912877 1.3000289388681894
1.2262391159963748 11.809042817760446 560.2369372072715 68.87493672251028 1.3227633759783406
1.2477106265990727 11.789722121948971 502.4924442822386 71.72706868004181 1.3459783116465707
1.2692000821229552 11.770777647533507 451.21206701331045 74.69476193899851 1.3697457096868688
1.2906840170108713 11.751875963877781 405.53058532463325 77.78329904660742 1.394102787250438
1.3121476533117689 11.733187871001133 364.82229252117605 80.99847118725557 1.4190914408813737
1.333551444321339 11.714382242857878 328.52962306950604 84.34659430863573 1.444758001893191
1.3548738104408133 11.695621642171693 296.1487701444969 87.83453037179794 1.4711531754516696
1.3760889075241518 11.676696150164233 267.2733473012144 91.46688405172766 1.4982996575039287
1.3971604766263457 11.657646593280571 241.45978110800593 95.25335106340857 1.5262782887834452
1.418050433874508 11.638222686808257 218.36971783028633 99.20297691634106 1.5551585837788562
1.4387709271977502 11.618530048015623 197.69415206111665 103.32287394146495 1.584987410450043
1.4592390769685437 11.598464084393852 179.20675195756732 107.621134315773 1.6158223533947318
1.479480255155842 11.577905532800655 162.6085572457807 112.11017755939926 1.6477647557559156
1.4994255911808334 11.556846404719675 147.7374775497863 116.79741610541342 1.6808649683294068
1.519067132102635 11.535121028988117 134.36954212251607 121.69546239244616 1.7152262459972767
1.5383569618504689 11.512782017799502 122.3660828939464 126.8168904463002 1.7509513892801332
1.5573087344166634 11.489755702725978 111.5417144375064 132.17333198892658 1.788137897230861
1.575846704532355 11.46597431598933 101.81833916030568 137.77709114083723 1.8268959610047024
1.59398071170504 11.441392249188295 93.0510862761823 143.64427008984032 1.8673746216143168
1.6116668375431995 11.41589361240116 85.13583513302758 149.79029664755413 1.9097270722859052
1.628864441433295 11.38948259985601 77.99389494365496 156.23047580260646 1.9541229111713603
1.645605343739892 11.36216921151853 71.53343640368617 162.98326014204736 2.0007763540408514
1.6617935437609543 11.333822282681945 65.69386473724443 170.06878758306226 2.0499410299745593
1.6774592135781519 11.304403845509727 60.40003260688566 177.50627881389357 2.101911978450736
1.692543788985022 11.273923667262723 55.60901446646108 185.31775992653453 2.1570629936152916
1.7070604821875612 11.24232727299744 51.25717122941498 193.52637149960896 2.2158697137848713
1.7209662199822813 11.209603897861593 47.305781637020694 202.15819837554318 2.2789488927801775
1.7342353703886715 11.175725425265481 43.71415171872939 211.23926497592376 2.3471347839449064
1.7468834566536733 11.140574625494375 40.4437746272776 220.7984963208796 2.4120720471173573
1.7588284588469534 11.10418566840444 37.474116301305074 230.8738747669928 2.466178524568468
1.7700694653155782 11.066545106228489 34.76980546228356 241.50340692854235 2.5229001330175596
1.7805208130571542 11.02763743361708 32.30526200122249 252.7269036760922 2.582405157042719
1.7902440105563928 10.987385057119322 30.06327442018486 264.5847275692572 2.644851551295394
1.799158200128995 10.945758439689858 28.01608865908977 277.1251949194181 2.7104451308085555
1.8072722104830146 10.90276208786046 26.148968405199557 290.39711371217487 2.779377264489683
1.8145558925424052 10.85838182916733 24.44406204621242 304.45506758775844 2.85186564736618
1.821014310468514 10.812561274359634 22.88320335076438 319.3586907347672 2.928146262320395
1.8266047251791873 10.765324238306446 21.45865990875417 335.1727718613622 3.0084714239714305
1.8313396064846208 10.716670208286237 20.152454679623247 351.96952917388165 3.093126570548126
1.8351820026043668 10.66655712571989 18.9584685087291 369.8245716659426 3.1823904259317963
1.8381412874936383 10.615051842876506 17.864477592082938 388.8243792560641 3.2765975294552754
1.8402018506882964 10.562148009366883 16.86137105747362 409.0617679492602 3.376092658860628
1.8413580164560894 10.507815981292381 15.942931570277688 430.6392998211219 3.481256074262915
1.8415984787663244 10.452064979364794 15.099329877865244 453.6684505507447 3.5924883516036688
