M[M_sun], R[km], Lambda[1], P_c[MeV/fm^3], rho_c[fm^-3]
0.23835315348680472 16.224115897624433 2803846.7813616297 3.45143464264431 0.16959267850507953
0.2485217703156832 15.874241235010636 2292935.1523773787 3.6366168417581095 0.1720084863728247
0.2589884380689017 15.565406291835219 1884193.9544152303 3.8287926501712586 0.17443243592957497
0.2697440268108171 15.291744728094992 1555264.1940670677 4.028197121940328 0.17686545687692143
0.28080047875532127 15.048571198419225 1289154.042981852 4.235076438116934 0.17930849006657487
0.29215047788290976 14.832029195911245 1072714.1584233015 4.449688225607929 0.18176248564572792
0.30379343201426007 14.63854890031716 895929.2786256474 4.67230189363107 0.18422840159552253
0.315733121992223 14.465602082660286 750867.5671612506 4.903198988685003 0.18670720260542825
0.32796328234102334 14.310668265278053 631328.2336149433 5.142673568725628 0.18919985923221866
0.3404870897430004 14.171646605581172 532453.3185792504 5.391032597056158 0.19170734729826505
0.3533072937531381 14.047006306789935 450397.3027084679 5.648596356292451 0.19423064748975266
0.3664245561831145 13.934982707216431 382008.7686933196 5.915698882658252 0.1967707451212018
0.37983109748113675 13.834266790167199 324838.68171759805 6.192688420794072 0.19932863003821263
0.3935330773937061 13.743814469572358 276920.6230901506 6.479927899229314 0.20190529663558218
0.40753259008578513 13.66244117700715 236636.36876017443 6.777795426668286 0.20450174397287266
0.4218233009859456 13.589434787197973 202664.52739846663 7.086684809277736 0.2071189759740861
0.4364074110239225 13.523839252762182 173937.7205049889 7.407006089236962 0.2097580017023024
0.4512850722524375 13.465059685826342 149601.23442125216 7.739186104919953 0.21241983570397296
0.46645285051837265 13.412416701204661 127500.87649524005 8.083669073227446 0.2151054984210382
0.4819226419456966 13.36537022678804 111302.08775838872 8.440917194770837 0.21781601667212502
0.4976842158564527 13.32339614762334 96276.42895324396 8.811411282834847 0.22055242420682086
0.5137345709400648 13.286080345942905 83426.46023798749 9.19565141731026 0.2233157623394011
0.530074004782914 13.25295464265291 72409.19665029152 9.593470287217206 0.22609788614952797
0.5466992227680512 13.223695476118307 62942.5387585011 10.00545589521942 0.22890122605772187
0.5636155701122915 13.197929151606195 54804.09907313144 10.432701773095037 0.2317342336538293
0.5808100773559959 13.17537116795674 47789.406857139664 10.87579152372846 0.23459804766114592
0.5983030867133332 13.155719264937687 41731.56866221729 11.33533209818937 0.2374938192295161
0.6160664415729896 13.138764199774844 36498.50726205355 11.811954677418877 0.2404227132336609
0.6341078323291154 13.124200985476751 31959.311535930097 12.306315598212265 0.24338590972373653
0.6524367643051004 13.111937199757577 28023.300447236175 12.819097327977282 0.2463846055442759
0.6710296549563751 13.101664972155717 24604.934323027228 13.3510094933707 0.24942001613786904
0.6898949563374717 13.093222498224721 21629.160689275217 13.902789968579835 0.2524933775499706
0.7090232829094034 13.086446072460829 19037.2679328279 14.474495145258626 0.2555985771750332
0.7284134185757607 13.081156372896777 16775.641292818647 15.06637434528786 0.25873193507989223
0.7480628272091872 13.077290345672072 14800.754970127744 15.680424353396258 0.26190721287564733
0.7679679944350207 13.074584681471721 13071.199817376628 16.317512525026096 0.2651258140549112
0.7881184891096753 13.072995417462588 11480.190897332996 16.978541718810938 0.2683891758033708
0.808506295318441 13.072410555058815 10229.678096309523 17.664451929720027 0.2716987724467604
0.8291321586753699 13.072668758780836 9063.678171826017 18.376222041120897 0.27505611920754136
0.8499843835662436 13.073623070043666 8038.806799552234 19.11487170779573 0.27846277628673116
0.8710618626931933 13.075341156945099 7137.744274948181 19.88146338290913 0.28192035328596965
0.8923532208857052 13.077553746145956 6343.604913214841 20.677104502915054 0.2854305139846544
0.9138621673233481 13.080293126288849 5643.241152268539 21.502571125235598 0.28899189297322925
0.9355619361233939 13.083398322996585 5024.378894441068 22.357654837217094 0.29259525916227414
0.9574519546990411 13.086775009832088 4478.236630802063 23.24538628416889 0.2962572638911739
0.9795232160896681 13.090391163721584 3994.9346238860717 24.16708990022625 0.29997989878871184
1.0017787265559581 13.094208266533064 3566.7076074864467 25.124149800084602 0.30376523833010177
1.0241906773356513 13.098096124263561 3187.775599420702 26.118013269493968 0.3076154470566734
1.0467488392207553 13.101970710155081 2851.237081586908 27.150194540716384 0.31153278727913997
1.0694633659582438 13.105860639514807 2552.686405725907 28.22227887676695 0.3155196272855035
1.0922976898863428 13.109577577345123 2287.176694144055 29.33592698983198 0.3195784500765217
1.1152497300439057 13.113141007898639 2051.1004046792395 30.49287982095061 0.3237118626539304
1.138323606915682 13.116520616975249 1841.0175818633413 31.6949637098856 0.32792260588931743
1.1614743580460933 13.11957766081083 1653.6946792661327 32.94409598611137 0.33221356500468346
1.1847216357161028 13.122288830311453 1486.570011447263 34.2422910140491 0.3365877806993665
1.2080317081330245 13.124680131759362 1337.6579486122623 35.59166672810368 0.3410484609621475
1.2313924948287187 13.126595888726506 1204.518658011038 36.994451695737055 0.34559899361202345
1.2547952583414754 13.128009517453407 1085.5252166928028 38.45299274979076 0.35024295961638796
1.2782192483266783 13.128917146309163 979.1222894447316 39.96976323457819 0.3549841472411991
1.3016459353657213 13.129256545003692 883.8057503763839 41.54737191395034 0.3598265670941866
1.3250818165915126 13.12898919649972 798.4603132495038 43.18857259364479 0.36477446812930153
1.3484905543148424 13.12801637132877 721.845038005701 44.89627451480469 0.36983235468847286
1.3718587354881464 13.126378121321256 653.1384245163572 46.673553580658144 0.37500500466536285
1.3951696699183422 13.124003466808686 591.4409435251863 48.52366448403643 0.38029748888526627
1.418398500913816 13.120787942527942 536.0549017368999 50.45005380975292 0.38571519180564867
1.441544837255683 13.116810603845586 486.155147355016 52.45637419292798 0.3912638336531297
1.4645723168354783 13.111932744042434 441.2928672046678 54.546499622208465 0.39694949412509195
1.4874852610054305 13.106191172364928 400.853423727225 56.72454198559357 0.40277863779765216
1.5102430954728938 13.099482005279203 364.4568002976009 58.99486896631769 0.40875814139655253
1.5328375112696282 13.091868229619312 331.60370117387333 61.362123407085605 0.4148953231037979
1.555249128373038 13.083217880717354 301.9510896570052 63.8312442730121 0.42119797409071086
1.5774476081005482 13.073548181561259 275.1820729760384 66.40748935703535 0.4276743924877012
1.5994336765311603 13.062819058334298 250.97931204392245 69.09645988649488 0.434333420022648
1.6211545541464982 13.050921673680696 229.0760539779237 71.90125090964095 0.4411719906505791
1.6426243282447712 13.037994981094657 209.27407846865276 74.82733337590632 0.44819687990714246
1.6638070448389013 13.023879322389984 191.33188357007785 77.88448945071367 0.4554320737268176
1.684660019276934 13.00856107781711 175.08447261838373 81.07993357053752 0.46288890841753844
1.7052026488714742 12.992031153007895 160.32726280444513 84.42137887394554 0.47057948860974674
1.7253963613227519 12.974297014285181 146.95607564774187 87.91537039519567 0.4785098941361087
1.7452091401076557 12.955258843451025 134.8171198222784 91.56387571210766 0.48666703129381317
1.7646410799007721 12.93494066647422 123.77064777944985 95.38389488641435 0.4950964590673274
1.7836602391979048 12.913344933567364 113.73236881773458 99.38550827835957 0.50381383814405
1.8022330554690014 12.890369202568195 104.58954654425017 103.57403893822804 0.5128150896717848
1.8203535740264252 12.866038478671257 96.27723090749727 107.95825180314598 0.5221082551943653
1.838004369642386 12.84035405981268 88.70133700743618 112.55768138471888 0.5317398255621845
1.8551494861395739 12.81325171350421 81.79512810904046 117.37894796378029 0.5417057273798177
1.8717606162632976 12.784662020925012 75.49520506809483 122.43302663744257 0.5520165454308986
1.8878563544923483 12.754742042459023 69.74633296986372 127.7439434351491 0.5627276848593863
1.903375051277864 12.723287748894672 64.49263134047058 133.3115399365117 0.5738052092292528
1.9183031374100774 12.690338147750545 59.69054589712157 139.16678441229428 0.585323810455997
1.9326535168405847 12.655982392357908 55.30321957826031 145.31646393303254 0.5972696614705663
1.946368353276572 12.620053061144777 51.287163290433384 151.78732894916888 0.6096959800359444
1.9594468311866597 12.582656915258147 47.60241070136713 158.5915038131463 0.6226020880869425
1.9718535039319365 12.543685932519386 44.23277930746354 165.76104419430422 0.6360521746213719
1.9835943980332984 12.503203296387893 41.146614380926884 173.30467209202158 0.6500274474643801
1.994634671265924 12.461184625040861 38.31248705025557 181.26225947057193 0.6646103022232883
2.0049504067537076 12.417569907626108 35.711964806862056 189.65294114424444 0.6798088999940584
2.014536849917792 12.3724122024251 33.32556036634795 198.5051000846202 0.6956577488173634
2.023376221818732 12.325705261058715 31.132133343026055 207.856835256779 0.7122181763467449
2.031454778169146 12.277435135069346 29.113484193711095 217.74136252977235 0.7295295741983474
2.0387468213884516 12.227607900809973 27.25986395204898 228.18815534370532 0.7476129885765992
2.0452474832116243 12.176233177880446 25.554275712293087 239.24409904149599 0.7665395496851266
2.0509171540863993 12.123259774034626 23.985310758150653 250.95376798165495 0.786365182548332
2.0557852986083978 12.068760821031487 22.539450922224983 263.3645298502485 0.8071465506007497
2.059814176918177 12.01275649490079 21.20765453933317 276.5282179710845 0.8289455929453688
2.0630052589421197 11.95522205315198 19.980412678161006 290.5015859966745 0.851829975424489
2.0653227801312686 11.896149555920317 18.850059197025264 305.3468163599586 0.8758735999743453
2.0667947367240753 11.835612569590733 17.807746646360858 321.13208947601373 0.9011571787671578
2.0673827837716408 11.7736260508178 16.846625535221467 337.9322216797819 0.9277688806520722
