M[M_sun], R[km], Lambda[1], P_c[MeV/fm^3], rho_c[fm^-3]
0.23835315348680472 16.224115897624433 2803846.7813616297 3.45143464264431 0.16959267850507953
0.2467957988333033 15.929825063114603 2370707.1756460164 3.6047756005405116 0.1715954416848337
0.25544409400354245 15.664850716644523 2011333.8008662246 3.763046002553011 0.1736068504319695
0.26429525304618184 15.425411869687265 1712013.647834277 3.926416659408633 0.17562804663656076
0.2733507762547004 15.208660793017946 1461565.431502838 4.095065316531926 0.17766013868685812
0.2826138997076328 15.011824463431424 1251105.552707795 4.269176774150717 0.17970420238867238
0.29207398155701786 14.833310846007567 1074083.7807758253 4.448226934549236 0.18174582326284025
0.3017434335172873 14.67074362049145 924261.9040750838 4.632464754877415 0.18378837883567892
0.3116170973511944 14.52261335535885 797334.9137762487 4.8226443579663885 0.18584514493363763
0.32169046354447023 14.387580147367414 689376.4518213876 5.018977327045943 0.18791713783250844
0.33196966211678536 14.264266096180139 597475.0075858488 5.221682975654931 0.1900053429106488
0.34245132367079906 14.151560000664498 518779.56411186943 5.430788855815644 0.19210690725171506
0.3531357914102105 14.048626511135716 451375.75303688645 5.645104833918025 0.19419663314044877
0.36402442471937047 13.954388406102003 393478.3358509798 5.8663676363336865 0.1963048258988058
0.37512370015067265 13.86819979155203 343651.45296915126 6.094826334869843 0.1984324095439856
0.38641960944699133 13.78926004434287 300614.6597135031 6.330738559661676 0.20058027986007307
0.39792048227662147 13.717105563440565 263439.0706668439 6.573721251355101 0.20273831704681305
0.40962522323115946 13.651147535997392 231236.7957957321 6.82302565978363 0.20489138787345765
0.4215382394578935 13.59083316939903 203285.75209541802 7.080465661286188 0.2070670004392606
0.43364824815072156 13.53559539362517 178971.46110015616 7.346332202678998 0.20926599162189632
0.4459622412077948 13.485223614606623 157808.536117103 7.620925703006531 0.21148917248921284
0.45848620043410465 13.439227459795362 139330.94543812177 7.902315769482411 0.21370360250662246
0.47120713738141423 13.397306851373278 123163.15863422291 8.19243140291786 0.21593628922283983
0.48413550892352963 13.359140824403669 109040.0778886969 8.492079258696252 0.21819542118045349
0.49726677116539325 13.3244439582486 96642.13993086721 8.801597116384142 0.22048175456262828
0.5105903282435685 13.292993138112045 85770.14243745105 9.11952255066115 0.22277106536991703
0.5241232962368462 13.264517629923398 76196.83054505209 9.446534313526104 0.22507029771194126
0.537854926017047 13.238725844101943 67775.51180263479 9.784331918048409 0.2273990253782927
0.5517849827419177 13.215530216588217 60348.546067410345 10.133294194526792 0.22975795357538212
0.5659184932063522 13.194696787169079 53796.616710801034 10.492126604180083 0.23212647526107272
0.5802413294396391 13.176039748575935 48005.234685387215 10.860851481678894 0.23450221205562707
0.5947681699025305 13.159451591531361 42880.94599035568 11.241781360721554 0.23691049394712713
0.6094875138597822 13.144747723221855 38338.93177592114 11.63534028576669 0.23935198117720943
0.6244039781153559 13.131723179190859 34310.11236110416 12.040131445262569 0.24180604432906147
0.6395078709380105 13.120343436533044 30736.105618591206 12.456065726726106 0.24426882539525824
0.6548002123832692 13.110485445210333 27558.029033136645 12.885810259864162 0.24676722685284613
0.6702900695928332 13.102014916717346 24730.76575651142 13.329839125469324 0.24930187311046814
0.6859617795927411 13.09481278520386 22213.24017005205 13.786453661728254 0.25185004912328934
0.7018181998376646 13.088800228719187 19969.063612498107 14.255871563730807 0.25441112970895674
0.7178572128644541 13.083848094910543 17967.20993697389 14.740915525462391 0.2570109702935375
0.734077667214275 13.079921494647463 16176.477785523039 15.242115456623303 0.2596501729017372
0.7504711902485733 13.076870602401831 14576.804567780046 15.757392949686738 0.26230355709736486
0.7670421864885101 13.074697147109013 13146.0437056275 16.287465805401695 0.26497509534862873
0.7837864871370577 13.073244836961347 11864.473729095465 16.83522092342318 0.2676886533132129
0.8006970602026713 13.072552347498627 10716.09599326586 17.401251274052573 0.2704448296220515
0.8177737373397241 13.072429518276028 9686.097159089004 17.98320468674469 0.2732173770699657
0.8350097641768865 13.072869697485302 8760.213513886398 18.582147357575145 0.27601268947352237
0.8523991691568318 13.07384950174807 7929.514876672092 19.201106141087227 0.2788534785451548
0.8699487539655373 13.075283546936173 7182.3636493450485 19.84074639270234 0.2817403652056787
0.8876469318466028 13.077087745002324 6510.09247520397 20.498805543059525 0.28464929345870377
0.9054888868376879 13.07921795069712 5904.381380195444 21.17605908286895 0.28758319503710644
0.9234723134481232 13.081633724010809 5358.581939979847 21.875987665290545 0.29056633037082413
0.9415870784940951 13.084321959243615 4866.892434487859 22.59934131173626 0.29359937609729797
0.9598404312757455 13.087190682896386 4422.840168125778 23.344652516023597 0.29666565420028385
0.9782201854704952 13.090188669127123 4021.9754271259562 24.11111501290328 0.29975490181775916
0.9967063487082407 13.093349675657675 3659.9159218337177 24.90329776985444 0.30289757356884517
1.0153203088308795 13.096575210822321 3314.45966052447 25.7220518096043 0.3060944439661241
1.0340407220704257 13.099804301581809 3035.7498438124558 26.567848060217223 0.3093433932742605
1.0528649225682092 13.103016523230586 2767.13301765493 27.436169078969925 0.3126072524775588
1.0717788858537198 13.1061951253697 2524.133939322989 28.33372142414911 0.3159293277613497
1.0907915615174406 13.109362001278864 2303.802242332636 29.26147887410996 0.3193105434503253
1.1098753031466468 13.112325359833806 2103.8355252430656 30.220447302970417 0.3227518702109778
1.1290455917958069 13.115194476754864 1922.4002925908023 31.20849757495653 0.32623354266842264
1.1482843391286417 13.11788648206459 1757.584735518161 32.22676780349749 0.3297583206478861
1.1675826474006081 13.120308487209549 1607.8380942154092 33.2794753311272 0.33334805449804206
1.1869320053934396 13.122543466535145 1471.671029995443 34.36778581789162 0.33700394684804985
1.2063208809025607 13.12446641218606 1347.9336997030794 35.49290755106404 0.3407272713636338
1.2257719074037343 13.126140451870615 1235.079091937397 36.652774589679545 0.34449944970319907
1.2452430485269894 13.127509292484735 1132.474178182882 37.84927334213762 0.3483265165068191
1.2647132046163057 13.128416145197063 1038.9563704871048 39.08655035498059 0.35222701251313693
1.2842252392707192 13.129065165101595 953.6830859084889 40.36602616295506 0.35620254597077633
1.3037329531629078 13.12927425157758 875.872601163775 41.68917903671604 0.36025482612313403
1.3232265267150893 13.12900571480081 804.8336396857085 43.05754864321002 0.36438567005413347
1.3427115570267725 13.128306622477593 740.0063257247829 44.4678794546183 0.368570659920538
1.3621752722340044 13.127163357697954 680.7308171286438 45.92617841958561 0.3728363282337228
1.3815910274319245 13.125444278020838 626.5733139943134 47.43486794081572 0.37718848286016415
1.4009747793095335 13.123260036162355 577.0385191305536 48.99579102597939 0.3816294341326388
1.4202935112500472 13.120480968985298 531.7281079340119 50.61087484016918 0.3861616385361469
1.4395713967496004 13.11721646162838 490.2554254988977 52.282136207176286 0.39078770740953866
1.4587446981040406 13.113226688872013 452.22965550303337 54.01168748855781 0.3955104160208737
1.4778563038342774 13.108750690715372 417.38337097914047 55.799154915375496 0.4003201521395701
1.4968634522510742 13.103558013943188 385.4458698766334 57.64810373107651 0.4052265839170502
1.5157589145114259 13.097760580087613 356.1554491367645 59.56257855173187 0.4102408691045294
1.5345394988795564 13.091231744726983 329.265716833161 61.54515835006634 0.4153665306824587
1.553186466405412 13.084063639857568 304.57304263794236 63.59855377031951 0.4206073092816384
1.5716907347125562 13.076131233204464 281.8741965044228 65.72561585546522 0.4259671755153077
1.590048008337452 13.06751068806851 261.0555325943607 67.92934536794365 0.4314503430011934
1.6082469069384182 13.05817236048227 241.85893510427084 70.21290274597757 0.4370612821363593
1.626267317493429 13.048005276123112 224.21494022858172 72.57961874143594 0.4428047346931481
1.6440975537915046 13.037087210098976 207.97730001724807 75.0330057894893 0.4486857293103537
1.6617142079023204 13.025331692766173 193.04080682335123 77.57677016497959 0.45470959796000004
1.6791347181264924 13.012756539405922 179.25723612844536 80.2148249855455 0.4608819934767872
1.6963271531961792 12.999371737632043 166.55853385416094 82.95130412714562 0.46720890824449046
1.7132852349566168 12.985151416475622 154.86182777526966 85.79057712374409 0.4736966941413897
1.7299837534393243 12.970033987797583 144.06484829830552 88.73726512962595 0.4803520838552735
1.746434844664327 12.954041024593115 134.08816923222378 91.79625803012439 0.4871822136877308
1.7626104423046616 12.93716913089534 124.8824617550364 94.97273279458102 0.4941946479775041
1.778502821106324 12.919386034762312 116.37709992639675 98.27217317412644 0.5013974052835848
1.7940931236042417 12.900669572578867 108.5174276642701 101.70039085651008 0.5087989864807497
1.8093769027129842 12.880991478213431 101.25690956199863 105.26354820076111 0.5164084049333524
1.824340276700002 12.860412049227055 94.52495941373675 108.96818268605448 0.5242352189276153
1.8389701460689265 12.838871285615873 88.29903381457392 112.82123322189256 0.5322895665585243
1.8532488278239987 12.816344910463721 82.5377186301192 116.829919827997 0.54058165946537
1.8671619859282536 12.792819520563501 77.20196411540047 120.9959637939078 0.549100794479583
1.8807221957038056 12.768332435643632 72.25442376023871 125.3331816955626 0.5578794392962363
1.8938879322012672 12.74281054765493 67.67177705587287 129.85038866500363 0.5669303801555189
1.9066507614008885 12.716232249804321 63.41458627873555 134.55696480260357 0.5762671952294187
1.9190368305699064 12.688736559191733 59.46546871422428 139.46289644757422 0.585904309004397
1.9309723960514207 12.660116592943856 55.80330872489531 144.57218739828105 0.5958340475308184
1.942505593197499 12.630509831327089 52.39847142687962 149.8985203778498 0.6060813167600012
1.9535834749859038 12.599811234124058 49.23894077888454 155.4572994398111 0.6166750906955717
1.9642146606167974 12.56811231509354 46.29746003594472 161.26137114208322 0.6276336912378008
1.9743829511239495 12.5353022714492 43.56315682554859 167.3122171394942 0.6389353923426493
1.9840774896237623 12.501440606396088 41.02011903760836 173.63461081556676 0.650635698269411
1.9932851142445487 12.466512746973798 38.654616763328335 180.24516569725444 0.6627600554553208
2.0020029643759187 12.430503883895897 36.4478971699526 187.1456577554319 0.6752825179926437
2.0102036057351897 12.393393035646739 34.40158372610754 194.36666128486178 0.6882709210358305
2.0179055618355344 12.355245898638515 32.490133365346374 201.9208120544159 0.7017307875445249
2.02507866674774 12.315981496352434 30.70646470073781 209.82441381427836 0.7156774512777381
2.031710195542886 12.275644122130267 29.045513194793912 218.10544726780623 0.7301616271580333
2.0378277833562053 12.234272144668221 27.496515356695404 226.77448856542648 0.7451740369764654
2.043366532367562 12.191758402171452 26.052167694908174 235.86713754340292 0.7607838529100008
2.0483759362020066 12.148220191335119 24.702148949996136 245.396948034122 0.7769847675163295
2.0527432413011986 12.10407896699143 23.458304999059727 255.5132086588557 1.2225980523277866
