M[M_sun], R[km], Lambda[1], P_c[MeV/fm^3], rho_c[fm^-3]
0.23835315348680472 16.224115897624433 2803846.7813616297 3.45143464264431 0.16959267850507953
0.24804927323280698 15.889298965063388 2313815.100752908 3.6278697688963035 0.1718950193142905
0.25801419905269773 15.592207288037388 1918113.076568165 3.810651429151878 0.17420463528079635
0.2682498763341022 15.327419194078551 1596497.0330824668 3.9999916622418885 0.17652254504692202
0.2787521835638241 15.091095362334197 1333916.480773963 4.1961123090104 0.17884976525068072
0.28952347973676534 14.879443665600448 1118533.2953954968 4.399245250887265 0.18118730922636248
0.30056213035642404 14.68968716938987 941120.9370917351 4.609632663586155 0.18353618602923497
0.3118660853549288 14.51911944128554 794432.1281607645 4.827527285996577 0.1858973997268342
0.3234401259479033 14.36568966910827 672564.3484177234 5.053192704136493 0.1882719489067758
0.335283851769621 14.227282666184003 571031.6429194771 5.286903649869475 0.19066082635819337
0.3473921180321976 14.102637875830263 486195.3300719959 5.5289463139652515 0.19306501889067718
0.35976978845370394 13.99002402661791 414969.2364259719 5.779618672992184 0.19548550726092243
0.37241336874672704 13.888422607037052 355062.98412607907 6.0392308294717 0.19792326618316144
0.38532100379713 13.796593847470707 304497.451188742 6.30810536469957 0.20037926440484638
0.39850593005975693 13.713642475900903 258282.67805669634 6.5863331510744985 0.2028503289288126
0.41195398735850947 13.638827245884096 225401.38594624595 6.873625286899534 0.20532728737517608
0.4256734154773703 13.57134848310074 194544.32815383768 7.171111517079798 0.2078245586837323
0.43965309487150833 13.510370718061038 168242.0672140953 7.47916528671675 0.21034314721659467
0.45390761427130094 13.455494985662495 145760.9180888394 7.798174577030348 0.2128840519606388
0.4684272434443893 13.406134327844923 126502.24383182675 8.128542346555555 0.21544826694056
0.4832103135209351 13.361772195569337 109977.60614940774 8.470686984559844 0.21803678166069948
0.4982633533388587 13.321956734419413 94790.13345910599 8.8250427768152 0.22065058158312414
0.5135837062956187 13.286386363650657 83529.57991718671 9.192060384102138 0.22329064865137113
0.529163175886093 13.254674339784296 72969.03591897782 9.570834022414903 0.22593958070943268
0.5450023001302652 13.22645532173379 63834.25277217108 9.962673548807093 0.22861058516626181
0.5611095263305433 13.201484444819396 55925.142482828676 10.368499210150677 0.23131045598347463
0.5774727244884362 13.179473476406635 49061.660289654195 10.788831230159355 0.2340402251086629
0.5941006611948277 13.160174128605618 43100.935516344915 11.224209168051235 0.23680092448216025
0.610984154138371 13.143350493900105 37910.374603619595 11.67519253068017 0.23959358706080272
0.6281124754861779 13.128812020306933 33390.41346388338 12.14236140945609 0.242419247964571
0.6455082431010476 13.116319631403318 29439.496511101 12.625140629823319 0.24526567850708544
0.6631465670465059 13.105782448861046 25989.13144247625 13.1240095955268 0.24813338089425957
0.6810325085451389 13.096954683671306 22971.209094244037 13.640806030457039 0.2510372502067891
0.6991585292633586 13.08969960694391 20325.19551169962 14.176201031362538 0.2539784015873125
0.7175290713272775 13.08394032889681 18003.178789713107 14.730890497581626 0.256957959839022
0.7361330935409341 13.079455746141589 15965.712823004436 15.305596029320668 0.259977061521155
0.7549753029693367 13.076248873464605 14172.079999771013 15.90106588279196 0.2630368572590347
0.7740357233356139 13.073967756923734 12591.973200732808 16.51661269495464 0.2661245294024552
0.7933222640632563 13.072765160552416 11199.68417322619 17.152990475529336 0.26924184534885226
0.812831808390985 13.072374690057321 9971.384840039824 17.812442027035452 0.27240382813967295
0.832557104717738 13.072796213714293 8885.712591430929 18.495838668355947 0.27561176584147723
0.8524843711886821 13.073842880595478 7926.071661848665 19.20408494233845 0.278866974596927
0.8726155822544172 13.075487286685785 7076.126675592535 19.938120094418863 0.28217080236603287
0.8929434251144256 13.077672744230483 6323.379585439996 20.69891966825391 0.2855246329585406
0.913458291601985 13.08024974043578 5655.413885758063 21.486708106345873 0.28892345383754325
0.9341551396210717 13.083173501871883 5061.901750111941 22.30091180714417 0.2923562402418678
0.9550309340270438 13.086428775009242 4535.13017061786 23.144986872705676 0.2958442115780577
0.9760649456315125 13.089859054449214 4066.5833756627585 24.02008284590458 0.2993889884088445
0.9972614594519432 13.093391778570673 3649.669087005442 24.927396457509882 0.30299225045295336
1.0186207271257328 13.097143762583745 3277.550199137298 25.868174190590224 0.3066557425155838
1.0401054554120224 13.10081098540159 2945.8778653929708 26.843715057419818 0.31038128078194416
1.0617274344994236 13.104536895660377 2650.0971282688065 27.855373606357414 0.3141707594840365
1.083472194143831 13.108116443387246 2385.8892133425634 28.904563177115907 0.3180261579519031
1.1053305019064446 13.111642721134864 2149.5482251915423 29.990368555376744 0.32193350272180893
1.1272952091802144 13.114919125661515 1938.2385908966178 31.11620745891515 0.3259083325407337
1.1493520789638505 13.118012761035002 1748.924204987316 32.28426533887011 0.32995679425035124
1.171483226942301 13.120801252631388 1579.3297897666998 33.496245374620436 0.33408132367657883
1.193679931519397 13.1232455023028 1427.3440836728896 34.753930941631616 0.3382844821695073
1.2159416235974643 13.125375907663345 1290.805634358163 36.059190796024474 0.34256896641968804
1.238240285872148 13.127046664050956 1168.3145360595176 37.413984671471866 0.34693761881092516
1.2605789065209683 13.128297495820535 1058.1211283180523 38.82036931855683 0.35139343834079634
1.2829347524783965 13.129014276485467 959.0190735620768 40.28050501887861 0.355939592144332
1.3052925946195013 13.129243107659523 869.911035220344 41.79666260860327 0.36057942766095863
1.3276433599748678 13.128865683407174 789.5843381418207 43.37123104884135 0.36531648548992873
1.3499852701618575 13.127940037720737 717.2385115027714 45.00672558324833 0.37015451298509555
1.3722795658942515 13.12635791360048 652.0018391806809 46.70579652659701 0.37509747864599174
1.394514580764961 13.124059893210076 593.0984702630068 48.47123873182704 0.38014958736884685
1.4166917158613073 13.121085113026956 539.9363958166149 50.3060017872566 0.38531529662839054
1.438781076623666 13.117342287647837 491.84771908869106 52.213201000308096 0.39059933366912997
1.4607747474069772 13.112822108077916 448.38972088091333 54.19612922928396 0.39600671379327296
1.4826557885266305 13.107497969035629 409.0893621013348 56.2582696305018 0.4015427598416714
1.5044083707792495 13.101333534409775 373.4509690433606 58.403309394505904 0.4072131229741414
1.5260013543603101 13.094271004954612 341.20708036873003 60.6351545521813 0.41302380486633566
1.5474408623186782 13.086325988943484 311.96829309675803 62.95794593948925 0.41898118145214314
1.5687075586539954 13.077500129894764 285.4293923244362 65.37607641828201 0.4250920283533987
1.5897589135443204 13.067675559757452 261.3463589105171 67.89420946034596 0.4313635481526908
1.6106137445384636 13.05686925049106 239.46711765250353 70.51729921255574 0.4378033996803539
1.6312201319258648 13.045031322994879 219.5804799526817 73.25061217291059 0.4444197295034773
1.6515807408713223 13.032180597856344 201.50089573790652 76.09975062040333 0.4512212058231563
1.6716804134955539 13.018280253466706 185.03955118461093 79.07067795627219 0.45821705500642507
1.69146267390938 13.003214385955866 170.06400778952568 82.169666477036 0.4654167731697676
1.7109786382072114 12.987148543045318 156.40661938795958 85.39704630334533 0.4728046938619094
1.7301399465786822 12.969851247524867 143.95941996514242 88.76576364785208 0.48041596025584926
1.7489706687983864 12.95145543367154 132.61257131662657 92.28347720050411 0.488262359288743
1.7674525137613653 12.931898927517418 122.23862486455069 95.95836606631327 0.4963564596634591
1.7855273847785482 12.911070538733505 112.775609802012 99.79917065978285 0.5047116696844451
1.8032289302440392 12.889074689305879 104.1227168013779 103.80670541492125 0.5133099339559194
1.8205054748954825 12.865839630235659 96.20851780711982 107.99674937289613 0.5221893329552919
1.83735009872075 12.841331229451356 88.9757154722536 112.38168396349782 0.5313727137304747
1.8537389796376176 12.815545177765896 82.34574245110544 116.97108326340567 0.5408706743228867
1.8696548788479268 12.7884772515695 76.27920531330419 121.76705920065406 0.5506653204680535
1.8850805984952574 12.760079435673765 70.71533441865257 126.79344321877926 0.5608161486087825
1.8999953720672067 12.730347281123251 65.61199941046364 132.0612718005032 0.5713336489359645
1.9143822614326798 12.699290831239487 60.92882085554946 137.57486468956253 0.5822030082659022
1.928233877552224 12.666878654740568 56.63173811847699 143.36266842528624 0.5934923352219114
1.9415215217317274 12.633102211001978 52.68303102307989 149.42915430584515 0.6051830784052992
1.9542305256648025 12.59795212143286 49.05540760024686 155.79861051381658 0.6173232306478076
1.966352617553025 12.561412540706563 45.71779328255702 162.4862422005194 0.629926446821389
1.9778549881441423 12.523464723160298 42.645497442731994 169.51223014900538 0.6430205560124119
1.9887429521022424 12.484173820603656 39.81669453158573 176.8972321736851 0.6566317116656705
1.99896402012609 12.44336492911312 37.21266420535405 184.66672761926125 0.6707987580831781
2.0085547719075314 12.401230700976514 34.813503329853745 192.838265687092 0.6855303277000911
2.017444347741528 12.357627123618268 32.602229288717744 201.44890798238626 0.7008957293136918
2.0256772948352593 12.312621645151753 30.559009636060683 210.51518258902163 0.7168919182155253
2.033194630466687 12.266213050748911 28.67652449349616 220.07457106142374 0.7335800360934501
2.03997923050132 12.218287584216768 26.93892109046468 230.1625008820282 0.7510090305057394
2.046072485775037 12.16907404329595 25.333120956712232 240.81050608096743 0.7692093355120339
2.0514060945309134 12.118377317776115 23.848169531071946 252.0544057136515 0.78821898637886
2.0559922598987623 12.066279331766028 22.47649025905633 263.94197603948 0.8081079429969018
2.059814493179569 12.012794802863148 21.208349504230185 276.51806775062727 0.8289288840554622
2.062875136633507 11.95792316185866 20.035809354350235 289.83163290909374 0.8507392780797245
2.0651576452362215 11.90168844363714 18.949222550438307 303.93612533516165 0.8736017665178629
2.066637340642461 11.844054725226465 17.947051379017108 318.8899468177081 0.8975845960043742
2.0673405269661562 11.785151295236536 17.017848912813747 334.756944857145 0.9227621048659681
