M[M_sun], R[km], Lambda[1], P_c[MeV/fm^3], rho_c[fm^-3]
0.23835315348680472 16.224115897624433 2803846.7813616297 3.45143464264431 0.16959267850507953
0.24902181316663535 15.858439666868252 2271058.638396095 3.645889014299483 0.17212876502616545
0.2600140197449777 15.537428099088077 1849046.5249135264 3.848089322788879 0.1746747456691932
0.2713364933999294 15.254634506089696 1512989.2245183676 4.0579304120350566 0.17722294933811128
0.28297997552064663 15.004597462326801 1243671.8933078193 4.276008355086297 0.17978209954447835
0.29494601240580165 14.783099162856821 1026573.1111500388 4.50270641705151 0.18235512776119917
0.30723582903858926 14.586227526394001 850809.8233545155 4.738332571170446 0.1849428799492235
0.31984811504604105 14.411157878612638 707715.5618978924 4.983208817109098 0.18754622087893963
0.3327836031940703 14.254965735210096 590776.70520576 5.237671680383337 0.19016603323504921
0.3460465763277181 14.115653393005271 494762.97261320835 5.502072736393016 0.1928032169726134
0.35962944974790056 13.991163145024204 415666.8190440918 5.776779160297896 0.19545868889234114
0.37353413889598575 13.880007420054493 350274.6000806273 6.062174303900035 0.1981333824074096
0.3877640028852015 13.780475725610795 295957.10060162534 6.35865830066875 0.20082824747833222
0.40231815105571367 13.69153696047155 250740.08715329386 6.66664870005479 0.20354425069653917
0.4171974660431444 13.611988655853558 212975.76606140326 6.986581132289348 0.2062823755013943
0.43239397886508035 13.541088626868135 181321.43542007904 7.318910004953591 0.20904362251925282
0.44791977441833525 13.477748740097514 154750.8732378604 7.664109232734512 0.21182901001683055
0.4637658822263986 13.421293948153497 132325.08294522896 8.022673001958326 0.21463957446464021
0.47993394809651346 13.371109394656647 113399.39935585395 8.39511657170962 0.21747637120944374
0.4964231742110965 13.326624673837415 97383.41649654806 8.781977113609859 0.22034047525764802
0.513229438512257 13.287172168718435 83789.85449225346 9.183814592639894 0.22323298217424847
0.5303640583673574 13.252412821800547 72225.8517167256 9.600746178557898 0.22614876968490066
0.5478106151597096 13.221846854571778 62364.0679938208 10.033610557226693 0.2290924941098685
0.5655697776611732 13.195143155057973 53942.68923800849 10.483199422181139 0.23206755019302486
0.5836481333099062 13.171960882892675 46738.24418087462 10.95017369925062 0.23507518559739307
0.6020389520726164 13.151953667855276 40560.29588690097 11.435222654857792 0.23811667575372727
0.6207337782258019 13.134770818611452 35253.754821866525 11.939065132679795 0.24119332562761595
0.6397397095294836 13.120209981752218 30684.571033973105 12.462450861615087 0.24430647167786387
0.6590426138583494 13.108032958457292 26748.202088638674 13.006161841510327 0.24745748402421489
0.6786458737958222 13.098026231416968 23348.80659884308 13.571013813880702 0.2506477688433211
0.6985453104374698 13.089956327960232 20410.718857682292 14.157857825695878 0.25387877101253015
0.7187333201255198 13.083582209614613 17862.621333042993 14.76758189519851 0.2571519770215788
0.7392089493773949 13.078850333272614 15654.232368393177 15.401112789675857 0.2604689181726793
0.7599602457228217 13.07551065338667 13736.581678619626 16.059417926114083 0.2638311740897914
0.7809851685586535 13.073478232935331 12068.047993581898 16.7435074067327 0.2672403765581242
0.8022787860348148 13.072501214068357 10615.262066015383 17.45443620251932 0.27069821371512837
0.8238374047750944 13.07248682078846 9347.590622153317 18.19330649906797 0.2742064346144743
0.8456526548379818 13.073399593231636 8240.574084830845 18.961270220264293 0.27776685418479197
0.8677090261401822 13.075033121846014 7272.563462803574 19.75953174666444 0.2813813586052981
0.8900079962387943 13.077332001428472 6425.885038969125 20.588751773479302 0.2850468977329991
0.9125334761568481 13.080112454336701 5683.369347449976 21.450316315721675 0.2887664457223983
0.9352796499086753 13.083371257398726 5031.978483997507 22.346154589525025 0.2925468166172738
0.9582307222675925 13.086884418768602 4460.025707198035 23.277725113790172 0.2963903087784284
0.9813911726669334 13.090723672814605 3956.9505226557626 24.24655705345361 0.30029932540342247
1.0047352417601831 13.09474828658977 3514.252059863306 25.254254562325755 0.3042763829066342
1.0282584214819774 13.098811184712268 3123.9385362188614 26.30250148059093 0.30832411991419484
1.0519428611906128 13.102865219960938 2779.597792608416 27.393066417710326 0.31244530690797934
1.075784449471877 13.106872998838249 2475.8138154137887 28.527808253794834 0.316642856555596
1.099766759516228 13.110749048846941 2207.170103467584 29.708682095053945 0.3209198347666377
1.1238745738853122 13.114396347366947 1969.6398015775565 30.937745721682763 0.3252794725192889
1.1481041090035478 13.11784348597599 1759.1559936986198 32.21716656956562 0.3297251785058061
1.17242793378275 13.120919039082086 1572.5045583681642 33.54922929048672 0.3342605526504575
1.1968259714359615 13.123560766436933 1407.0884857308315 34.93634393919076 0.33888940055926975
1.2213062334088907 13.125825147743289 1260.0923545395835 36.38105483966926 0.34361574896742825
1.2458248903869162 13.127523997589602 1129.5151284323726 37.8860501875209 0.34844386225748375
1.2703777359342843 13.128694413165938 1013.4539083791303 39.45417245019839 0.35337826012969303
1.2949478080825472 13.129227800745536 910.0218028999594 41.08842963247791 0.3584237365149287
1.319514344925697 13.129121472740293 817.888468182304 42.792007480632066 0.3635853798307036
1.344059620116176 13.128244523437727 735.7476504673867 44.56828270564541 0.36886859469208494
1.3685664294001798 13.12664586900024 662.3920661388448 46.4208373134474 0.37427912520165885
1.3930026301082323 13.124195287035839 596.8822275765501 48.35107588529364 0.3798105885663388
1.4173853097901534 13.120969653264822 538.3771149036241 50.364510924949705 0.38547772074145426
1.441648161859458 13.116773071380226 485.95086322959247 52.4658425734603 0.39128970714125744
1.4657988045417896 13.111667206256039 439.0343871831146 54.65960288306908 0.3972538335668865
1.4898041937956477 13.105563893616909 396.99382093717975 56.95061904909611 0.4033778662444698
1.5136471574424262 13.098428163525456 359.29436506000604 59.344036616963216 0.40967008751062706
1.5373056325474082 13.090238585646736 325.4634329948299 61.84534469533731 0.4161393343810239
1.5607535944390092 13.080943266028855 295.0861072729216 64.46040336508821 0.4227950402824852
1.5839670356650024 13.070489370981056 267.7710277004401 67.19057864194535 0.4296253966586657
1.6069303426162005 13.058862404578713 243.19820760929017 70.04448328780816 0.43665067607360636
1.6296060452825325 13.04600110562427 221.08016785536026 73.03137969803775 0.44389206515898866
1.6519874074870498 13.0318930419146 201.15485487496375 76.15887772044941 0.451361741187465
1.6740397705790202 13.01652402098358 183.1881608938005 79.43513244239955 0.4590727359680744
1.6957447345168823 12.999801206747003 166.97324815533784 82.85839337351064 0.4669958829118637
1.7170810296908758 12.981789770500479 152.3393128008115 86.44718425241435 0.47518499877198805
1.7380215869211242 12.962384555589223 139.11563396306045 90.21177943203966 0.48365705099385825
1.7585327096081078 12.941562959972371 127.15252310560648 94.15682484594299 0.4924050986708646
1.7785942199617204 12.919278249940962 116.33216763182709 98.29164616272303 0.5014396703386947
1.798183834653993 12.895537657309797 106.53073082643436 102.63569387946127 0.5108082932100955
1.817277086197901 12.87031010912032 97.65655229118948 107.192812132858 0.5204962018882967
1.8358448967420378 12.843556660878248 89.5995248482816 111.97874507497309 0.5305322262255606
1.8538820199053991 12.815300714139145 82.2862101507905 117.01316649641946 0.5409568345920678
1.871334638747545 12.785446072963147 75.66035788209004 122.29782029948802 0.5517422164338833
1.8882053946527133 12.754040676949272 69.62369112185355 127.86613764326856 0.5629734277370957
1.904451427840742 12.721029965684364 64.13977397945943 133.71625838834365 0.5746052664543392
1.9200600244827508 12.686366821490779 59.15042426961403 139.88671152494558 0.5867336013284767
1.9349937407632103 12.650039234461035 54.60345563855055 146.37838450294456 0.599317969998229
1.9492497530689301 12.612110971759261 50.46286104175638 153.22924922393423 0.6124440871610243
1.9627934051767768 12.572479837697506 46.68404380726386 160.4535980402871 0.6261113707688679
1.975609379805307 12.531197574216906 43.24135874533157 168.07787581266135 0.6403571298421725
1.9876625953102287 12.488185592775453 40.09585122558287 176.13549459762643 0.6552373620733866
1.998941440213189 12.443464441353804 37.22003649617043 184.6490221527423 0.6707665740552343
2.009434826360337 12.397049507095605 34.59436601552363 193.65114287652338 0.6869879122491312
2.0191140018250535 12.34896112594853 32.18923461638473 203.1816102158406 0.7039618339467919
2.027952758959361 12.29906641077676 29.992226863104538 213.27753954500523 0.7217333852208632
2.035954071160935 12.247547641264317 27.97669827919261 223.97957895637242 0.7403520737189493
2.0430706343410274 12.194272220226619 26.132246711097146 235.33226683886826 0.7598722187113469
2.0493146407692144 12.13927040807216 24.44074207510387 247.38361795925616 0.7803507002988407
2.0546568992210967 12.082597889824 22.889782629956997 260.1887492320694 0.8018577645170094
2.0590672323537436 12.02419557891625 21.468790739749355 273.8066923062817 0.8244655254529328
2.0625646604399925 11.964146711996273 20.163522448116456 288.3001971676752 0.8482460693345059
2.065130298364388 11.902458388698236 18.964063954282548 303.7411904691152 0.8732878355842038
2.066737043492489 11.839091150969237 17.86434191650926 320.2078523509084 0.8996845188498039
2.0673855798135317 11.774151012166541 16.85501952777061 337.7863061794546 0.9275388011236835
