M[M_sun], R[km], Lambda[1], P_c[MeV/fm^3], rho_c[fm^-3]
0.23835315348680472 16.224115897624433 2803846.7813616297 3.45143464264431 0.16959267850507953
0.2467620507924564 15.931117587073826 2372343.915748645 3.604200994197146 0.17158798788941818
0.25538035261141306 15.666614078819872 2013677.0930354162 3.76186690559782 0.17359204442464074
0.2641962839245753 15.427864197022092 1714971.9587916655 3.924602441100872 0.17560599002317512
0.273217875658575 15.211572313889203 1464809.055711098 4.092584536549172 0.17763093245623118
0.28243986150178013 15.015464758623727 1254655.651998823 4.265997118068584 0.17966794633497485
0.2918636538150202 14.837052587288419 1077636.9754968316 4.444178438865608 0.18169966025869505
0.30149395888309893 14.674665287722656 927783.4324089247 4.627625631131349 0.18373492809467223
0.31132590772074814 14.526707740183877 800716.0905803542 4.816978903285708 0.18578451590923403
0.32135675045457973 14.391824365527933 692696.2108664684 5.0124487037711996 0.18784943646445196
0.3315906739474615 14.268486178739654 600506.5017880216 5.2142531355224335 0.18993067123202229
0.3420228073623808 14.155959450969148 521713.43357752997 5.422132944149327 0.1920199132595644
0.3526596045626305 14.05288981378644 454145.377173757 5.635439522647265 0.19410247384875912
0.3635010274785916 13.958686768003373 396042.94742798124 5.8556504597055925 0.1962036052937558
0.37454954995786244 13.872379367954085 345992.5177993842 6.0830132943404385 0.19832422577780487
0.3857881169012236 13.793510428280957 302862.523580673 6.317784032103518 0.20046522494808608
0.3972448038173292 13.721196895333383 262001.53986849895 6.559109769943362 0.20260854599184558
0.4088915416690934 13.655106478655975 233109.81458768807 6.807144166249037 0.2047545739182398
0.4207419996150135 13.594572451225174 205007.56018946168 7.063262795050044 0.20692323023562983
0.4327987012346528 13.539276715636488 180565.7161631928 7.327754573478516 0.20911534393216985
0.4450518815314467 13.488734129588403 159252.3744402173 7.600745466393909 0.21132905198341062
0.45751648536274414 13.442594303746288 140646.6306277338 7.88013258445886 0.21352902949694547
0.4701768434611638 13.400581301959042 124396.2881346076 8.1686639453089 0.21575473936803313
0.4830356774395564 13.362243088151823 110148.7643958673 8.4666645513048 0.21800695234588452
0.49609799299382135 13.327369614960338 97674.01937969084 8.774469518604267 0.2202864147247997
0.5093629404338662 13.295741701467803 86702.05222837349 9.089707512178425 0.22255637386537144
0.5228250900946286 13.267077873794273 77059.63094272843 9.414826641865636 0.2248485519000573
0.5364904664110138 13.24115226259901 68564.74166678972 9.750656800868711 0.2271702542402443
0.5503483421325581 13.217790872914334 61067.35774676091 10.097573516966971 0.22952217442848247
0.5644098537734551 13.196815297543491 54453.79882245935 10.45311839979291 0.23186899635023484
0.5786597567021436 13.178037258485732 48606.19170726287 10.819586810447365 0.23423751234856535
0.5931095025904197 13.16123975744939 43431.626893548375 11.198170785133023 0.23663856502375466
0.6077522277800546 13.1463497401389 38842.65566958202 11.5892902745782 0.23907280107915396
0.6225888710642632 13.13319942267827 34774.484266867985 11.990090209369683 0.2415026672661068
0.6376167693751523 13.12170644692828 31159.673387371215 12.403336251641125 0.2439579363137885
0.652832815520487 13.111727034058429 27944.746865879897 12.830285009228579 0.24644877069365798
0.6682369962548007 13.10308254460046 25086.892286219594 13.271405486573936 0.24897577924977984
0.6838274365523352 13.0957195986554 22536.8786084466 13.72320217884195 0.2514970688770038
0.6996027451513064 13.089576453078372 20266.903045688396 14.1894165681569 0.2540501813814667
0.7155551337591883 13.084476231012205 18237.337822730235 14.671127047309142 0.2566419419984695
0.7316898109616767 13.080414862931836 16427.370459624424 15.168857226726267 0.25927293494350073
0.7479975118128658 13.077274886580303 14806.176269013971 15.678343479854195 0.261896497567791
0.7644831301634795 13.074970441345389 13355.885496050603 16.204594576538135 0.26455940123764143
0.7811351920022854 13.073442605629172 12056.688586610842 16.74837011316589 0.2672641444643117
0.7979600258832933 13.072597485305222 10893.504681353797 17.31007778056226 0.2700096556990261
0.8149436313086035 13.072353144795537 9848.210084224529 17.885267623441887 0.27275078447166773
0.8320941818211024 13.072769278963342 8909.364023460977 18.47964290378954 0.275536532805123
0.8493904571021607 13.07359426369033 8066.559734853364 19.093841834981387 0.27836749626355123
0.8668571736978425 13.07497127771368 7307.514003730595 19.728214349072175 0.2812416471621757
0.8844609466976767 13.076687216793282 6625.773724559898 20.378275064123994 0.28411649254660354
0.9022086898223348 13.078738450639124 6010.4845971424575 21.050057523698463 0.28703957607878205
0.9201063115465421 13.081181926768886 5456.429463983748 21.74427940450357 0.2900115350724157
0.9381314824916099 13.083766202259323 4956.660873462263 22.461678610750816 0.2930330192208665
0.9562867253633899 13.086578250945685 4505.512256871557 23.19706300211404 0.29605845751233933
0.9745754726623355 13.089609714723075 4098.004620358885 23.956954029951874 0.29913523546625737
0.9929762278595324 13.092712401384476 3729.8032143573055 24.742275809027586 0.3022649641196483
1.0114937970765028 13.095879762910448 3396.6024879007373 25.55386424097662 0.30544838661562856
1.0301281795834054 13.09912059816738 3095.0558141178753 26.387793206067688 0.30865175022974267
1.0488529446154298 13.102338633274734 2822.03602935193 27.248196832438147 0.3119010020596005
1.067683835756714 13.10554359190358 2574.60285059406 28.1374748292054 0.3152078589397881
1.086605719622415 13.108645312239542 2350.188673493452 29.056582056563098 0.31857320826628477
1.1056082652553187 13.111669082154389 2146.811366304454 30.00444331347188 0.32198415169954636
1.1246823814609352 13.11453630777849 1962.147027738912 30.979830818583178 0.32542777117058375
1.1438392778025757 13.117244200710186 1794.1394667658321 31.98808861137276 0.328934432827522
1.163052052674681 13.119761358397817 1641.700886266356 33.03031833583477 0.33250522980547575
1.182320021278391 13.12203024618598 1503.046338911082 34.107660545987464 0.3361413188406034
1.2016417488815156 13.124038503336566 1376.7214110303044 35.21790439846629 0.3398231119829335
1.2209929777312598 13.125787822507416 1261.8718913120176 36.36283210468297 0.3435564840655779
1.2403907275005641 13.127178294754525 1157.138746692871 37.54659367258189 0.34736074109392606
1.2597973222524517 13.128249946242589 1061.7770061054796 38.77052364091081 0.3512373413098178
1.2792299727944845 13.128953540187593 974.7674636815544 40.036009020933975 0.35518783468243
1.298654922453768 13.129233563119115 895.3916113447735 41.34339540044139 0.3592076856192389
1.3180924836842194 13.129126429460422 822.9058979777145 42.69058850635449 0.36327909344258813
1.3375058672584843 13.12852330771573 756.7490649098653 44.08395721224871 0.3674314160773154
1.3569020053710736 13.127510590404098 696.2502839985292 45.525148770800364 0.37166662448736404
1.3762627143546458 13.125953411626044 640.9879958554436 47.01588207467136 0.37598681565075176
1.3955945739561875 13.123954030536058 590.3866738250358 48.55795229303029 0.38039422033367043
1.4148567110643426 13.121327267978646 544.1444133684386 50.15323583211613 0.38489121116501934
1.4340728510611176 13.118212391558249 501.7179664389591 51.80043315008311 0.38946390825064575
1.4532181408872336 13.11448421835751 462.8737534105527 53.50351119714694 0.39412526140777815
1.4722636980907506 13.110114219387256 427.3007873508172 55.266193119646346 0.39888605294405777
1.4912358584488092 13.105194594344894 394.6566945368654 57.09075349154299 0.4037492995203278
1.510089304698901 13.099521023243335 364.68192356059956 58.97957863045845 0.4087182065333315
1.5288443103110816 13.093312521449798 337.2100862674171 60.93517396097886 0.4137961788014352
1.5474607903583453 13.086317900469346 311.9374965867197 62.960171874925905 0.4189868317976213
1.5659458968639404 13.078658343202477 288.73390677038236 65.05734012192407 0.4242940034798597
1.584296053091867 13.070356612773313 267.40889521036894 67.22959076665074 0.42972176677360174
1.6024680126839126 13.061220682811673 247.7899288593247 69.47998975251116 0.4352744427660234
1.6204757075387948 13.051334789644038 229.74232349145862 71.8117671151672 0.4409566146768292
1.6383035856103343 13.040701953168533 213.12872026001153 74.22823344935331 0.44677273806341583
1.6559184557367035 13.029269933864622 197.84643602070693 76.73206493846031 0.4527241126624315
1.6733539666880104 13.01705328265603 183.73398965209174 79.32848554076419 0.45882234606529687
1.6905616926439684 13.003979729764009 170.73150919249767 82.02151905034624 0.46507323764534286
1.7075430134192342 12.990099429106985 158.74877815170473 84.81541656296484 0.4714829363430477
1.724275958037084 12.975352220302883 147.67454187907893 87.71467182546465 0.47805796122065497
1.7407334589687502 12.959682925687938 137.4707491856569 90.72399211438248 0.484805042627115
1.7569670594988736 12.94322706494948 128.03752386560592 93.84674356748646 0.49172499040890927
1.7728848607247483 12.925777040503128 119.3185730516107 97.0894041931532 0.49883026999691704
1.7885406516441684 12.907492001145828 111.27260256660027 100.45759005329955 0.5061290838333191
1.8038759327709428 12.888250735723787 103.82435478573264 103.95725387329406 0.5136301263840244
1.8188989134527833 12.868079582999982 96.92653281063518 107.59470836898389 0.5213426149777822
1.8335884219532883 12.846915970660291 90.54822132779907 111.37665133591385 0.5292763229636066
1.8479504914704519 12.82484815534831 84.6432780340772 115.3101926522907 0.5374416153871819
1.8619583520862724 12.801797677715838 79.17129424254489 119.40288336165483 0.5458494874048301
1.8756055053662848 12.777768955635667 74.09647723227599 123.66274701708247 0.5545116056733357
1.8888725570370728 12.752719728340915 69.38825380674281 128.09634185501602 0.5634333170023244
1.9017549272597527 12.726697571732412 65.0257563699799 132.70859925547484 0.572613301506789
1.914235869658622 12.699636084771742 60.98305961308288 137.51445073638646 0.5820845726471383
1.9263100529562889 12.67156478183386 57.219280868275646 142.52413577818965 0.5918618722486427
1.9379606477831495 12.642449673696225 53.72735638926441 147.74856214867307 0.6019608668736431
1.9491714253845138 12.61226475669849 50.48060679283806 153.19222341562534 0.6123737762116982
1.959951538795462 12.581125000470191 47.46671325778776 158.86976614139624 0.6231264982673335
1.9702704865264036 12.548873220347275 44.66087423705513 164.7982799457421 0.6342512621590491
1.9801202781536518 12.515575951367664 42.05131162425549 170.98897349469414 0.6457583955601393
1.9895044978745327 12.481227230646558 39.621656743776185 177.44812980365063 0.6576401217925636
1.9983868614376792 12.44577698954912 37.361632033266204 184.20226763648154 0.6699544881483209
2.006773747171806 12.409266700019733 35.254456601210876 191.26195800642105 0.6827038223561701
2.0146745179232313 12.371728540083925 33.29043436033304 198.64139950005568 0.6959005263217817
2.0220541184041068 12.333109096135264 31.46149967578249 206.36954762933487 0.709603051165091
2.0289035386096255 12.293403269025566 29.754969798354225 214.44863106284436 0.7237792345463753
2.035218509748655 12.252597617975896 28.162969946956125 222.91820641369213 0.7385166015489939
2.0409809918493615 12.210723181049167 26.67782938879456 231.78454762445628 0.7537904097198486
2.046214048843093 12.167818974691526 25.293421009146986 241.08695473151622 0.7696805148865544
2.05064514644319 12.125007934568128 24.04383178081655 251.06985623785204 1.50356289158616
