M[M_sun], R[km], Lambda[1], P_c[MeV/fm^3], rho_c[fm^-3]
0.23835315348680472 16.224115897624433 2803846.7813616297 3.45143464264431 0.16959267850507953
0.2472514057623359 15.915077860748431 2349995.924465251 3.6131417800439665 0.17170396779344443
0.25637608247613114 15.638218886802596 1976989.6547475515 3.7802429961308324 0.17382279434720455
0.2657274569395002 15.389334560718172 1668871.763923586 3.9529213025460845 0.17595028055080708
0.27530578911907877 15.165108581290538 1413610.0675712912 4.131367603722974 0.17808752562941543
0.2851073820971652 14.962821958941804 1201068.772567438 4.315780845527163 0.18023560568220523
0.2951428196522291 14.779676405929264 1023421.9415921338 4.5063681759264265 0.18239557386994174
0.30539834571406416 14.613985795578527 874544.9930114626 4.703345116571199 0.18456846070870755
0.31587597382398175 14.463675673922944 749308.8133096707 4.906093286373167 0.1867381760144585
0.32658609208210454 14.327087588970508 643534.0536774351 5.11528576186078 0.18891584958504085
0.33751852757879625 14.20300621456853 554056.074319086 5.331448548461738 0.1911085132926113
0.3486826835626485 14.090170993793135 478050.3348657097 5.55482949257413 0.19331717235953247
0.36007037812126025 13.987448439448954 413382.61396767554 5.785685785329867 0.19554280936604185
0.37168038013904303 13.893953010534773 358213.63045508 6.024284183111816 0.1977863848704326
0.3835203814061948 13.808782667229085 311010.87154086033 6.270425486490766 0.2000405456976887
0.3955851845378947 13.73118459973301 270507.3672458767 6.5235716043807725 0.20229291576197986
0.40786814624507833 13.660581103859412 235745.5110052912 6.785185691665119 0.20456540872720588
0.4203910031420798 13.59627940457131 205769.51430920314 7.055572170373975 0.20685895706971963
0.4331351029384864 13.537844053985957 179917.63574541683 7.33504622641683 0.20917447261094743
0.4461003078085914 13.484695265282895 157583.27329056116 7.623934055341234 0.21151284704814927
0.45929204516538213 13.436464229894503 138230.23594789553 7.920910095256142 0.21384993259447
0.47271753897658375 13.392609539849104 120097.84391417928 8.22726363794868 0.2162023583715255
0.4863612568164788 13.352987233387976 106802.28343849695 8.543930224727442 0.21857993440693504
0.5002279371209437 13.317136822788232 94083.2781950098 8.871280295933932 0.22098352774221786
0.5143214089927504 13.2847811409288 82986.7374582256 9.209696681789161 0.22341398710368998
0.528637045725778 13.255674395727883 73296.85055237904 9.557807504357754 0.22584848049073689
0.5431726710105816 13.22951465379169 64814.77450626627 9.916657164414858 0.2282979739117825
0.5579244047361052 13.20611894264015 57395.89342289406 10.287643161149038 0.23077675473373332
0.5729094931264231 13.18528455545877 50872.53452368599 10.67119922308566 0.23328565329494885
0.5881067455469624 13.166771175320465 45145.62820929249 11.067773037931754 0.2358254842852385
0.6035233224421839 13.150403332511551 40105.35055771579 11.475248112962976 0.23836625007333098
0.6191511161266662 13.136102132944727 35671.98496239917 11.895826556343318 0.24093118996966817
0.6349912260937866 13.123574875751046 31756.095696518147 12.330694653716066 0.24352964683017392
0.651054678508547 13.112767236397458 28299.057577970587 12.780359054367851 0.24616242839629318
0.6673210610591889 13.103517917362073 25244.247626445784 13.245138082052275 0.248828093878814
0.6837933441481326 13.095720337016038 22543.447239833295 13.722176485795437 0.25149134491026576
0.7004732109887337 13.089277634279703 20148.612839076595 14.215472884017526 0.254191705484346
0.717352924200054 13.084005264624205 18024.537106764532 14.725601104972803 0.25692999052964555
0.7344361812293377 13.079833441813882 16139.835074594044 15.2531527798125 0.2597070087994942
0.751708258420705 13.076674802716056 14464.68227763841 15.797216619605406 0.2625086262063335
0.7691826775574941 13.074465712881354 12974.795749575267 16.357166067538092 0.2653247219790251
0.7868430947565791 13.073083010486368 11568.315742439496 16.936282408247596 0.2681826210086664
0.8046888486346191 13.072446334645202 10463.579767424804 17.53523725397964 0.27108316677860256
0.822721173107115 13.072527792252844 9409.458566341646 18.154723164487784 0.27402720618711385
0.8409242847676766 13.07317508780703 8467.033582305898 18.79257432667634 0.2769901709472363
0.8593044438985565 13.07431967454154 7624.9845997057055 19.450570076674556 0.2799837245421308
0.877851336041531 13.075992488411556 6830.595905842673 20.131186519691887 0.28302424597954756
0.8965667799273699 13.078104157495213 6198.642753560283 20.835213749517838 0.2861126577970446
0.9154307840061929 13.080484382691218 5595.141091860552 21.563467347277893 0.2892498996317459
0.93445848969182 13.083199654216825 5054.276600320348 22.313105221843085 0.29240760261736404
0.9536248171439815 13.086179070333209 4568.624406994561 23.087354479196044 0.2956071066677535
0.9729394013612837 13.089347465555878 4132.8520121307265 23.88835371647432 0.29885948926153894
0.9923879849853965 13.092599243510714 3740.7688174132536 24.71704081124298 0.30216582299649325
1.01196292463049 13.095980301018468 3388.7126756532793 25.5743858300679 0.30552721600584126
1.031666392421538 13.099391260056517 3071.57474991813 26.45831790420229 0.30892265609985603
1.0514679235023145 13.102781315476427 2786.012750115556 27.37090308248682 0.3123620346959706
1.0713957554259557 13.106179439063197 2528.991628457815 28.31522531904473 0.3158613298266239
1.0914112239763396 13.109412505615724 2296.880344946452 29.29241230882959 0.31942185952665614
1.111526694716299 13.112553995038208 2087.384355591787 30.303633811351283 0.3230450012218913
1.1317215042382103 13.115562586087092 1898.5452763756957 31.350104015850466 0.326732197546132
1.1519945986560192 13.11831566872656 1727.6411282817685 32.428203947469704 0.3304536505764083
1.1723347791461065 13.120895706305074 1573.1766021366209 33.544031932084266 0.33424297151855886
1.1927284163712932 13.123137810237598 1433.4773658877943 34.69907639369642 0.3381025733951759
1.213172680350329 13.12511431854039 1306.9597950513216 35.89477154715597 0.34203423380936254
1.2336643008589985 13.126745231313357 1192.3363017803715 37.132611512690964 0.34603982716539605
1.2541684238429445 13.127953540653424 1088.5367675313455 38.41415406131512 0.3501213321404571
1.2747074930146547 13.128835785000534 994.2787319384641 39.73939555281379 0.354271466553747
1.2952516357719852 13.129250787698199 908.7893058982265 41.10893667538665 0.35848678999088657
1.315776097840923 13.129124885905023 831.1789029621436 42.52739926361184 0.36278626018239213
1.3363119600286417 13.128589988824 760.6646793832555 43.99665615098727 0.36717236050414764
1.3568165804608823 13.127526831502163 696.5023633101418 45.518667581179386 0.37164772046916117
1.3772861309303588 13.125872383686882 638.1722357506742 47.09548697030978 0.3762151254829608
1.397692502269292 13.123615377882047 585.1358217313913 48.72926708915473 0.3808775270496273
1.4180747633595099 13.120875524888245 536.7939204232714 50.42226669249141 0.3856380534636093
1.438365458543633 13.117428971193764 492.75219412834116 52.1768576250362 0.3905000210268667
1.4585765748497257 13.113309617128222 452.5714979757884 53.9955324358864 0.39546694583553366
1.4786832689809166 13.10847775000099 415.9338942549759 55.87979753938943 0.4005371461589335
1.4987044296149117 13.10305488660897 382.51057530049746 57.83253496700402 0.405715428036561
1.5185934631450762 13.096815806484475 351.95868689033773 59.857953590540674 0.41101232120880743
1.5383483422696405 13.089868022363552 324.05382539890593 61.95913759707824 0.41643228433268303
1.5579480234691838 13.082080688522366 298.55676750167447 64.13933938105089 0.4219800469989734
1.5774021493128378 13.073569247447587 275.22321508878093 66.40199110007374 0.4276606264188016
1.5966786109369642 13.06422558356305 253.8733103644493 68.75071706623896 0.43347934515289993
1.6157727005958498 13.05400114553847 234.33581442656717 71.18934703741884 0.43944184997789126
1.6346617190797368 13.042966802122619 216.41623241657106 73.72193047923301 0.44555413199241223
1.6533196387216587 13.030981028180028 200.01381548492847 76.35275187508572 0.45182254807518024
1.671765167021347 13.01814306359248 184.95864942802174 79.08634716909009 0.458253843817107
1.6899687544651156 13.004386303761738 171.15007158888733 81.92752143485295 0.46485517806045246
1.707921407935145 12.989723587012644 158.47102646262715 84.88136787205515 0.47163414918985475
1.725602115471895 12.974139922319246 146.83465921883231 87.95106468850098 0.4785898991019581
1.7429898650378106 12.957527841051313 136.12903841514836 91.14302502777188 0.48573402199737276
1.7600825415496033 12.939907115559178 126.2947413115185 94.4642368051469 0.4930793522546964
1.7768533516945677 12.921277997930234 117.235125221299 97.92113348459834 0.500635492865771
1.7932968610505733 12.901644017069422 108.90613179440868 101.52055421584956 0.5084126443398658
1.8093995228654967 12.880977066744697 101.23460506488782 105.26977340652464 0.5164216449477
1.8251565029558172 12.859279245508032 94.1689158209987 109.17653266246163 0.5246740141473092
1.840512711788229 12.836446276594785 87.657788535893 113.24907531069337 0.5331819994806233
1.855517039507034 12.812606345603637 81.64707019951983 117.48816970248471 0.5419293455225613
1.8701087838843458 12.78768019116227 76.11411763835478 121.90992461101082 0.5509551894588439
1.884283882581974 12.761589901242942 70.99501874390197 126.52467075076444 0.5602756244648357
1.8980326622676276 12.734407514787916 66.26993684199694 131.34301503018278 0.5699062463829383
1.9113327424000992 12.706070161125398 61.90166423865835 136.36961537763872 0.5798402354209199
1.9241981852691536 12.676639363501355 57.86448903009521 141.61740401392484 0.5900988012776563
1.9365694731916707 12.64603225429594 54.135699216812604 147.1040627607697 0.6007177102480725
1.9484679706898136 12.614262652702987 50.68490748672291 152.83967848712328 0.6117043034915818
1.9598744674720672 12.581294190092963 47.48290984930607 158.83128426680744 0.6230539757418382
1.9707743313436596 12.547212918481272 44.51870458102951 165.10483714797144 0.6348246971268869
1.9811433276474684 12.51189832782926 41.783286415219635 171.66827314549175 0.6470107025188836
1.991000340505551 12.475461565387642 39.23669871358033 178.5394701566321 0.659637804490713
2.0002944239695513 12.437781630597236 36.878826125467164 185.74229291526052 0.6727490327941563
2.009034549232833 12.398936302296546 34.69552968127788 193.28405985030156 0.686329689144593
2.0172090125209405 12.358879890579503 32.66258848560193 201.20037995513607 0.7004559463428534
2.024797441933254 12.31759404919333 30.775919155654005 209.49680336968623 0.7151014668557746
2.0318137187594965 12.275175840506979 29.025435225349327 218.21271887883933 0.7303478512211729
2.038212297219551 12.231506848290845 27.398432479275417 227.36099262106882 0.7461859126369627
2.0439997771323317 12.18663660373664 25.886730911833304 236.9766776605623 0.7626749542677786
2.0491605451443573 12.140543473531627 24.478408591316697 247.08943529289766 0.7798522787602573
2.0537141421802994 12.093340471412317 23.1718835664674 257.7216498075528 0.7977265644568985
2.0576290985321557 12.044958371250617 21.954348318631986 268.91798115862065 0.8163737927621476
2.0608858939458723 11.995330204000807 20.822050094287462 280.7138301731653 0.8358340719646896
2.06349627769396 11.944577133855706 19.7671173916725 293.139602484209 0.8561247202831012
2.065430157144865 11.892616689089515 18.787266785878437 306.2456468578578 0.8773211126904116
2.0667284631994822 11.839580077739159 17.872554952086816 320.078374304492 0.8994782112649263
2.0673325035676537 11.785525543120377 17.023985261072074 334.7522919795316 1.1444422649397274
