M[M_sun], R[km], Lambda[1], P_c[MeV/fm^3], rho_c[fm^-3]
0.23835315348680472 16.224115897624433 2803846.7813616297 3.45143464264431 0.16959267850507953
0.24676362677879024 15.930987083957245 2372152.7789456025 3.60420002781513 0.1715879753535074
0.2553787492199733 15.66672520484275 2013992.823933685 3.7618649227933565 0.173592019526419
0.2641951163744306 15.427920656137717 1715055.8839262582 3.924599390587071 0.175605952936126
0.27321753323302467 15.211607212826364 1464824.1477576073 4.092580365686873 0.1776308833526561
0.2824398855951477 15.015443442392751 1254697.6567841351 4.265991772758103 0.1796678853850297
0.2918641398635575 14.837036728542408 1077609.4354575255 4.444171633743702 0.18169958266323855
0.30149378784282665 14.674644044014887 927728.3384186261 4.627617497862759 0.18373483825831843
0.31132439490132496 14.526767136826718 800766.681444528 4.816969382117209 0.18578441401817852
0.3213558714204484 14.391811733442943 692688.3364127307 5.012437733052532 0.18784932269886445
0.3315890564890112 14.268506888829176 600527.3040856941 5.214240651579379 0.18993054576539484
0.34202515410249995 14.155882180034943 521714.8985612302 5.422118401842253 0.192019767105884
0.35265784077658563 14.052957070783341 454145.0860261767 5.635423286013371 0.19410231567175848
0.36350033585467295 13.95868906039369 396036.0901696319 5.855632457696569 0.19620343527003511
0.37454832260297116 13.872389211769205 345996.6093931471 6.082993453345231 0.19832404407406984
0.38578817205921356 13.793496256222245 302858.97967104387 6.31776227579478 0.2004650317206468
0.39724381045913265 13.721206533700435 265485.364214164 6.559085233881752 0.20260832807618664
0.40889003796695755 13.655104752298962 233112.76102691176 6.807117499842119 0.20475434419572702
0.4207394512529576 13.59458064381953 205007.36510369246 7.063233912391577 0.20692298885343036
0.43279894352757464 13.53925423095983 180554.51057625064 7.327723385269217 0.20911509102413584
0.44505013428628215 13.488748913566045 159259.7801475285 7.600710787686608 0.21132877077060994
0.4575144202022977 13.442623672885922 140651.69261636704 7.880095350930272 0.213528736483605
0.4701761853847197 13.400573101793205 123040.72977992946 8.16862405586776 0.21575443466896238
0.4830347614563341 13.362245385610185 110154.8291232693 8.466621900642316 0.21800663605970708
0.4960963012769332 13.327370673999996 97678.74679238226 8.774423996960564 0.2202860869335013
0.5093627114733654 13.295698498244345 86700.59892097025 9.089657487243716 0.22255601364686953
0.5228228109955549 13.267076486463464 77056.71017655486 9.414773445506306 0.2248481798743212
0.5364880349030221 13.241156683353992 68566.28053099065 9.750600308015992 0.22716987045734197
0.5503473619290489 13.217779994171707 61068.450389107784 10.097513597034714 0.22952177891889322
0.5644059481582694 13.196812894092703 54455.34097932661 10.453052973710907 0.231868564496562
0.5786583163899504 13.178016721571534 48609.15946054855 10.819517604890773 0.23423706841698877
0.5931077453435272 13.161230823021517 43432.82678968542 11.198097650621111 0.2366381090015899
0.6077491398279657 13.146337958393415 38842.32100406786 11.589213054793778 0.2390723329310161
0.6225844273098742 13.133203903574284 34775.157883393345 11.990006308021082 0.24150215861070967
0.6376101079379943 13.121715094314021 31159.830317582928 12.403247849464003 0.24395741510109673
0.6528314681763477 13.111709421941997 27945.191843277207 12.830191926542028 0.2464482368328558
0.6682342239496839 13.10308258687522 25087.87471620608 13.271307535222988 0.248975232623987
0.6838249790801328 13.095705005348977 22536.9430634323 13.723096165877255 0.25149647726269403
0.6995974916769515 13.089596409515474 20267.521948302194 14.189305193794196 0.2540495764549356
0.715549027501739 13.084482781972506 18238.587544807302 14.67101009444806 0.2566413235738231
0.7316851147556568 13.080431745655737 16427.745596911387 15.168734467755712 0.2592723028050574
0.7479953678168489 13.077259513166702 14702.59247062217 15.678211034967799 0.26189581555242436
0.7644787745112037 13.0749722507371 13356.42560486119 16.20445573806476 0.2645587048037095
0.7811334551889488 13.07342426672151 12057.362698561748 16.74822461756609 0.26726343331182606
0.7979566160736858 13.072606507772944 10892.900416370374 17.309921079720826 0.27000888977763027
0.8149382936633818 13.072372654909506 9848.553744943269 17.885103590496506 0.27275000298450025
0.8320890183656369 13.07276199156394 8910.296468744971 18.479471232845356 0.27553573535426285
0.8493853925085346 13.073607524027727 8066.941664102199 19.093662204770173 0.2783666824131376
0.8668494040342251 13.074986669100849 7308.041004450936 19.72802131765764 0.2812407725949439
0.8844556731205033 13.07669196837752 6626.04442896894 20.378073261118637 0.28411560048323276
0.9022026743247977 13.078745847809584 6010.607209743079 21.049846575072696 0.2870386659656616
0.9200979712859702 13.081180153397844 5456.640131921165 21.744058917096616 0.29001060631232123
0.9381217026951297 13.083762361065641 4956.996765957683 22.461448171214965 0.2930320711716506
0.9562821860972983 13.086582242531232 4505.7599671751905 23.19681598270169 0.29605744125200306
0.9745704423667997 13.089615490634808 4098.058548968384 23.95669602989543 0.29913419840778377
0.9929716366121984 13.092681399139122 3729.846772859591 24.74200634545138 0.3022639054739602
1.011487653948855 13.095875787725205 3396.447969526959 25.553582805828253 0.3054473055413983
1.030121506626935 13.099117465225287 3095.1638627313796 26.387491959280858 0.308650593053249
1.0488449783590945 13.102334552453673 2822.14774300336 27.247882361504722 0.31189982052758036
1.0676804790251193 13.105538309940096 2574.7997765757946 28.13714653902309 0.31520665203410375
1.0865979829361807 13.108648647406584 2350.3037633890553 29.056239320550098 0.3185719749073471
1.1056023820570757 13.111662599563275 2146.6601389529364 30.004076884217245 0.3219828330788614
1.1246782333193828 13.114531897508531 1962.4167770506845 30.979448410397243 0.325426423648007
1.143830660698624 13.117242408175064 1794.2347184665675 31.987689488359795 0.3289330551096477
1.163044177120845 13.11974945893547 1641.7128961567328 33.02990172261286 0.33250382052571514
1.1823110801627783 13.122022457021245 1503.121937050365 34.107225625431234 0.3361398765560838
1.2016352855672698 13.124022018625858 1376.76597435214 35.21744002985564 0.33982157204271013
1.2209852982837053 13.125782364859477 1261.9011522678306 36.36234744698309 0.34355490783725456
1.2403828965600867 13.127180490551657 1157.1831312295885 37.5460877629347 0.34735912686228926
1.2597894472205962 13.128244464728235 1061.7607754286955 38.7699954638433 0.3512356872672616
1.2792214956802113 13.128953475919428 974.7612946850801 40.035457505280625 0.3551861389245802
1.2986460245564337 13.129234851194935 895.4149293237439 41.342807120183686 0.35920587682041544
1.318083087318022 13.129123827312236 822.9341891808796 42.68997430597353 0.36327723855086197
1.3374961392774847 13.128532546352815 756.7693337939169 44.08331582505508 0.36742951283668274
1.3568932147828316 13.127515605399617 696.2712888369979 45.52447885948844 0.3716646705226792
1.3762489975575365 13.125975384434614 640.9650561885093 47.015182227073794 0.375984808461542
1.3955842696713348 13.123929878314769 590.3799852271004 48.5572210175898 0.38039215728751447
1.4148431471660377 13.121341169687145 544.160155513567 50.152471553053225 0.38488908949046013
1.4340622617064092 13.118214540528358 501.74133436123196 51.79961881897372 0.38946164762925567
1.4532077531535084 13.114495834372352 462.8961415698872 53.50266009200949 0.39412293566066714
1.4722536101244643 13.110114064153487 427.2901935723621 55.26530336689682 0.39888365878801785
1.4912257737166588 13.105195546546852 394.6825277628519 57.089823109742056 0.4037468334973139
1.510081077590815 13.09952934571739 364.69976708059386 58.97860552352897 0.4087156650003995
1.5288340164800767 13.093290446306776 337.19419029629364 60.93415591094751 0.4137935579199663
1.5474508548986075 13.086334147543438 311.955830783972 62.95910653415047 0.41898412752177666
1.565935226522579 13.07866382453264 288.74030418038114 65.05622500476663 0.42429121154421034
1.5842852294744842 13.070363555846525 267.4182845246937 67.2284232405515 0.42971888267986874
1.6024588038457928 13.061214316346918 247.7993079889429 69.47876702841617 0.4352714617688635
1.62046596691892 13.051341413867508 229.75169243707876 71.81048623725785 0.44095353176859303
1.6382938063198347 13.04072571171899 213.13550341610994 74.22686981063696 0.4467694559605713
1.6559104760448153 13.02926044900918 197.83254653693504 76.73063612192051 0.4527207166011873
1.6733460131723403 13.01706346294879 183.73034230484663 79.32698799513113 0.4588188300671786
1.6905523747441227 13.003986960150485 170.74008119216847 82.01994900674397 0.4650695953927775
1.7075323874920656 12.990106801380778 158.75572009857274 84.81377002009314 0.4714791611574077
1.7242641721083256 12.975368480360462 147.6925010920284 87.71294453364885 0.47805404603866014
1.7407172753958742 12.959661017560919 137.48140573375574 90.7222048525501 0.48480108033842956
1.756956221467126 12.943240802011795 128.0400375751517 93.84486698892604 0.4917208744668263
1.7728743991555342 12.925782294878662 119.32370438363465 97.08743323127895 0.498825992132129
1.7885341230261096 12.907512879296128 111.26956392035414 100.45551931828807 0.506124635283821
1.8038656754312679 12.888272731249753 103.83153263892696 103.9550776290165 0.5136254978614416
1.8188876437795893 12.868092713184787 96.92895822000665 107.59242050809735 0.5213377966310867
1.8335793482685216 12.846929688046478 90.55026828346674 111.3742453529486 0.5292713043399967
1.8479393433624483 12.824884530402453 84.6427056608778 115.30766161455679 0.5374363853898841
1.8619460562972219 12.8017928992747 79.17140692434933 119.40021987777267 0.5458440342475555
1.875602332259414 12.77778487475004 74.09896123792916 123.65994320292242 0.5545059168310966
1.8888655118318722 12.752736680733614 69.3917711290816 128.0934218893773 0.5634274954334896
1.9017471186600556 12.726712462808921 65.03041668601313 132.70552273821045 0.5726072197730446
1.9142291270087433 12.699657048821988 60.98524055474897 137.51120813617433 0.582078215848049
1.9263018448934661 12.671597135295636 57.220870909562336 142.5207169080572 0.5918552245156288
1.9379546725154075 12.642493790744314 53.729050528403434 147.7449561152751 0.6019539112978972
1.9491669006416696 12.612330594639717 50.48631914288551 153.18845540961965 0.6123666208762328
1.959944020485273 12.58115004440904 47.470460237008375 158.86578831252064 0.6231190016939693
1.9702619730424558 12.548902760589035 44.66063221270238 164.794079017238 0.6342434040520332
1.9801118305949044 12.515591805298383 42.05240974000464 170.9845743537957 0.6457502856269851
1.9894991579420311 12.481254440977898 39.622175326329874 177.44347974147857 0.657631609921156
1.9983818450631914 12.445805321002618 37.36345881758224 184.19735038507417 0.6699455498378544
2.0067701431862868 12.409295815300588 35.256188275004725 191.25679799404736 0.6826945698461888
2.0146693720056774 12.37177110098898 33.29245193805519 198.63593796725257 0.6958907982000578
2.0220489389319396 12.333138121672535 31.46209679074081 206.36376453189416 0.7095928176803559
2.028898793996113 12.29343495836587 29.75655922688111 214.4425501115729 0.7237686113714418
2.0352141166192883 12.25262982318581 28.163956331781954 222.91176130858673 0.738505412813703
2.040976456959484 12.210748763368366 26.68022318191365 231.77776053983993 0.75377877167294
2.0462113096674233 12.167854229051995 25.295141639976396 241.07975422777963 0.7696682423403144
2.0505982738914215 12.125272286409214 24.052512032577326 251.09673308574847 1.5424001725906844
