M[M_sun], R[km], Lambda[1], P_c[MeV/fm^3], rho_c[fm^-3]
0.23835315348680472 16.224115897624433 2803846.7813616297 3.45143464264431 0.16959267850507953
0.24685859573127453 15.927800152049556 2367847.492825072 3.605921609228751 0.17161030771338562
0.25557083895306476 15.661146247312573 2006574.1312203398 3.7653983996892246 0.17363638965610673
0.26449266611699257 15.420422209196401 1705983.6748764373 3.930037346036773 0.1756720656417741
0.27361677158273695 15.202532238417604 1454802.535222416 4.1000178418333455 0.17771844478298293
0.2829542264838245 15.005086213862118 1244126.5987013753 4.2755264653159815 0.17977660479254998
0.2924930463557479 14.825893239140374 1066947.6649675907 4.456314490812421 0.1818380416872816
0.30224167290580145 14.662904654021489 917349.563051854 4.642134643598679 0.18389518799054377
0.31219940045345923 14.514372093764186 790524.4645362108 4.833968826821176 0.18596633405918056
0.3223606785327584 14.379142154675652 682909.6581695329 5.0320309283122375 0.1880525027672889
0.3327240818458417 14.255695079555688 591289.8900279161 5.236542719611658 0.1901546869080191
0.343302999722714 14.14297738290671 512966.03422177077 5.447734026186469 0.19227385021751925
0.3540848012318065 14.03998632427498 445959.46216184093 5.664447815027573 0.1943850721207795
0.3650729535339054 13.945830034128468 388423.40927740175 5.8878215408636745 0.19650745176498002
0.3762688591437638 13.859800972307285 338938.5072528449 6.118480294052143 0.19864903238406284
0.3876701657698808 13.78107183474722 296291.6616557711 6.3566850025813935 0.20081072174173198
0.3992762859882158 13.709084016800338 259414.65317684988 6.6027055257460585 0.20299340083047937
0.4110962497496896 13.643383038349937 224679.04905138313 6.854854321470795 0.2051655815495893
0.42311420907988134 13.583284129724078 199891.606585724 7.114951281153432 0.20735520849265063
0.4353428592459234 13.528340298677525 175868.3605325521 7.383583028270628 0.20956806196441546
0.44778356801557734 13.478191301887646 154934.18026705412 7.661054337693686 0.21180496918495909
0.4604169335751568 13.432534572220602 136715.56493075922 7.9468238169412775 0.2140538634719208
0.47327024542258617 13.390932973466557 119456.34345162346 8.240129647614543 0.21630063653931314
0.4863230011513058 13.35311416082608 106841.73734351722 8.54309547913105 0.21857374415153333
0.49958130655516053 13.318738859129462 94635.59913466866 8.856064504976546 0.22087396219342997
0.5130411518713868 13.287596743162299 83929.03845783995 9.17939063509656 0.22320204347689815
0.5267075456272684 13.259386130614532 74520.06117856049 9.510236782056865 0.22551579732965607
0.5405840281855462 13.233943624212992 66235.18772088601 9.852002576589594 0.22785874444873694
0.5546582602699046 13.211112304948744 58941.81501672103 10.205091666325108 0.23023186246531874
0.5689335728720519 13.190572155025444 52507.67520285529 10.569901204897384 0.23263585881119
0.5834080021604263 13.172234946760085 46829.22407399079 10.943843182078995 0.23503457734847533
0.5980836504420538 13.155946873230066 41800.76984577903 11.329510544701998 0.23745751957625968
0.612955010295233 13.141559959054641 37354.67076950279 11.7279970317251 0.2399137165330661
0.6280204706192253 13.128846418504393 33411.01950519397 12.139747610856764 0.24240383720153227
0.6432833521832794 13.117768407541517 29912.833423383585 12.562227581204882 0.24489474782996556
0.6587412883586384 13.108207191305638 26805.037833290116 12.997624963899142 0.24740852213346431
0.6743842175612961 13.099998510971307 24042.41893164005 13.447535729684075 0.24995868895804876
0.690224975131888 13.093083027178679 21419.9790477924 13.91245803992978 0.2525458893913104
0.7062471052551061 13.087318048274371 19389.224080319764 14.38980782243962 0.2551386005056023
0.7224554196385361 13.082637480853101 17436.11919009991 14.881599837156314 0.25775488236987215
0.7388449587725764 13.078922869414281 15690.533411033535 15.389825243431815 0.26041079376939263
0.7554154829768671 13.076133729737311 14131.91859575481 15.915041961451132 0.2631069632979216
0.7721599012482098 13.074128770269748 12737.967267202039 16.45466294487982 0.26581378046538273
0.7890724692749655 13.07295278360841 11490.504916830896 17.010483484670747 0.26854530056739834
0.806162138671143 13.072437852885473 10373.442558376031 17.584916824860343 0.27131985061695585
0.8234122153665581 13.072492290998342 9370.781070736326 18.178588942921 0.2741380681948397
0.8408300172522571 13.073172340882612 8471.710458897607 18.789172843885947 0.2769743702805016
0.858404279989051 13.074256735172515 7664.541005901262 19.41778975771616 0.2798352067846638
0.8761321412975112 13.075860595569868 6939.287224248472 20.06750063192574 0.2827427246632018
0.894006729293072 13.077758963676168 6286.037798266361 20.73901028119052 0.28569759920901133
0.9120315673143032 13.080027516399369 5698.621158900652 21.43081074339203 0.28868229121684164
0.9301933590508981 13.082566286321947 5169.794769638921 22.142332462957693 0.29168825575817897
0.948498486573284 13.085404929729746 4692.986046341691 22.87778526110222 0.29474491983787027
0.9669292093076503 13.088330314794948 4263.16204708405 23.637967026828516 0.29785303351983977
0.985491204559786 13.0914050737562 3874.647323021728 24.423134897153105 0.3010090986940858
1.0041694447580418 13.094652111309005 3524.4139653149173 25.22927265399553 0.3041782360999035
1.0229569143302688 13.097878442177075 3207.2871383593374 26.062604711732494 0.3074026066766486
1.041863477631929 13.101164599048063 2905.561982677586 26.924040961572498 0.3106830817362202
1.0608562564779165 13.104404405265223 2661.3953630700635 27.814520405308063 0.31402056930709843
1.0799569943289982 13.107563989853793 2426.448844652901 28.731443111880946 0.317391487129973
1.0991405831557364 13.110658480778202 2202.7471344894484 29.676821230395117 0.32080518127036495
1.1184017849137695 13.113581731118995 2020.8496777714904 30.65422129105762 0.3242803946088745
1.1377463360796607 13.116397138325556 1845.815104897723 31.664726503454503 0.32781823120177705
1.1571454092857696 13.119003315298638 1686.9404370477146 32.709458255305414 0.3314198547052842
1.1766166305674801 13.121384778514916 1542.6487383054218 33.78511195719291 0.335058474201145
1.1961292561855132 13.12347864678336 1411.5621111507646 34.89580039582089 0.33875494997022876
1.2156951440373793 13.125363482675896 1292.3585461258074 36.04436121966187 0.34252073692020446
1.2352774430078899 13.126822593714284 1183.777139407585 37.2321059127673 0.3463572890070034
1.2549105198460235 13.128031766571718 1084.9312273404248 38.46039728747733 0.3502661477121914
1.2745460085277978 13.128836170632901 995.0028577352792 39.72879879077851 0.35423828166852106
1.2941951833618806 13.129222417253253 913.0040835128543 41.03686656243012 0.35826519435884896
1.3138373358603765 13.129178118415696 838.1848137665322 42.39000755006898 0.3623713357365693
1.3334704364965502 13.12872439385797 770.0448656083682 43.78983930357245 0.36655865597211057
1.353082476117009 13.127745373462194 707.7675052627251 45.23804938047275 0.3708292269695976
1.3726725772631085 13.126328348825623 650.8631880201932 46.736399867958795 0.37518525017907783
1.3922005338584986 13.124287703887372 598.9368265713127 48.2867322266481 0.3796290647105124
1.4117035553370532 13.121791023546148 551.3954995509978 49.88737516741668 0.38414473703201174
1.4311404139746013 13.118727583685148 507.96038215548276 51.54302347696411 0.388749326913459
1.450497636272166 13.11502957085315 468.17601360806736 53.256914738168966 0.39345140693689745
1.4697794751172908 13.110717518616056 431.77256403816205 55.03128024543679 0.3982539469157851
1.4889644448952293 13.105792811392071 398.43413710294715 56.86846058142915 0.4031601011593689
1.5080479369005204 13.100201250668876 367.8190559110312 58.77091284600592 0.4081732191872243
1.5270087320596863 13.093921033327197 339.78710418545717 60.74121837897422 0.41329685698519725
1.5458522800262477 13.08697987465602 314.0697576467028 62.78209100967509 0.4185347888519245
1.5645567787910866 13.079310763185305 290.426688759056 64.89638586944193 0.42389101988981887
1.5831055220181316 13.070915802070578 268.7340013651374 67.08710880627491 0.4293697991993818
1.6014885808936825 13.061699803044538 248.7997716384235 69.35742644471716 0.43497563384098425
1.619708348538837 13.051782374498261 230.4780348810503 71.7104393532025 0.44071227126080226
1.6377247657170484 13.041034079654747 213.64505340376184 74.14904060367796 0.44658213107863537
1.6555572532420066 13.029508191727759 198.13218177067458 76.6782274641262 0.45259614986596236
1.6731811890757367 13.017151641654392 183.8690774421334 79.30194593383435 0.45876003530429943
1.690580204954844 13.003967627937326 170.71728808895384 82.02436515025927 0.4650798401465056
1.7077413124298337 12.9899167065247 158.6067372832492 84.84989254509864 0.4715619827103879
1.72464675966729 12.974974507130417 147.43273589672262 87.78319008902854 0.47821326877747244
1.7413093341288457 12.959186554991243 137.13351481336196 90.82767787218641 0.48503490984496733
1.7576730329965577 12.942413537493522 127.63304575807159 93.9893415225232 0.4920377537200036
1.7737791618373153 12.924809839968251 118.85175249658644 97.27389208386062 0.4992306908583165
1.7895787356475665 12.90624082829252 110.74914594423677 100.68717039265802 0.5066222901092304
1.8050617649712908 12.88670894181223 103.25898750127077 104.23537155402786 0.5142216380903256
1.8202184788461842 12.866225884836476 96.3379509743151 107.92506976527609 0.522038372203025
1.8350464228173202 12.844769641103852 89.93265093493356 111.76324504035956 0.5300827161594948
1.8495235467126512 12.822349048253091 84.01299405883229 115.75731200070118 0.5383655182404152
1.8636517882462769 12.798933205280827 78.5285495656808 119.91515091370535 0.5468982925230799
1.8773956469312336 12.774491930631065 73.4462632753406 124.24390191681773 0.5556888056190838
1.8907555540470953 12.749050271402833 68.74521471224772 128.74694515332155 0.5647304322268988
1.9037192977106292 12.72256992532057 64.37946120048359 133.43970564577722 0.5740585703034565
1.9162696788644813 12.695070384117145 60.33599933619141 138.3322480758783 0.5836877839722423
1.9284047745709114 12.666479244055829 56.57949647230216 143.43529676309927 0.5936335555023908
1.940092406169014 12.636838360456244 53.096997251336376 148.75421556741824 0.6038914301629369
1.9513554880703705 12.606198372402378 49.863364068667764 154.3013902462788 0.6144800522495795
1.9621541720164308 12.574435249268227 46.85978462633141 160.0946893505862 0.6254349753261443
1.9724877646402976 12.541612667372663 44.07004655860063 166.14636399176473 0.6367705410882282
1.98233778231767 12.507702230626006 41.47254204010779 172.45999047303457 0.6484702544522258
1.9917129113958283 12.472740410177948 39.05659676654177 179.0630416617903 0.6605961945422135
2.0005630092601736 12.436604648337513 36.80895379891724 185.96728789791916 0.6731552147377128
2.0089346949650926 12.39946803388392 34.719977562866994 193.18378426098147 0.6861498832015316
2.0167613670199867 12.361176570817689 32.77309483098021 200.74260727139284 0.6996432127988998
2.0240630727710607 12.321782510485288 30.959085784082117 208.64730158417393 0.7136079253556113
2.0308436406324795 12.281357872736779 29.268725352020844 216.93390008124976 0.7281208985987311
2.0370562090227176 12.239788209170872 27.694432211307976 225.6116426497328 0.7431678181486854
2.0427252371227564 12.197103097466783 26.224770625858863 234.71606372852042 0.7588171809862949
2.0478025726124924 12.153302195443493 24.855508094641202 244.25928285876967 0.7750572684080006
2.0523425820183787 12.108520972419427 23.576952747942567 254.28273118758497 0.7919680365806614
2.0562843182990815 12.06256429461789 22.383703725949708 264.8012910222104 0.8095386198386627
