M[M_sun], R[km], Lambda[1], P_c[MeV/fm^3], rho_c[fm^-3]
0.23835315348680472 16.224115897624433 2803846.7813616297 3.45143464264431 0.16959267850507953
0.24799869254102555 15.89098859473333 2316196.6282563373 3.6269321625405295 0.1718828566814951
0.25790791717779504 15.595266002601763 1921740.6277530754 3.8087104596326107 0.1741802623835544
0.2680900254869983 15.331326128583205 1600939.491848652 3.9969793845989914 0.17648592285923087
0.27853250301051374 15.095739670134611 1338817.6677030143 4.191958457916778 0.17880086194854444
0.2892414410290276 14.884704818733175 1123685.9343198906 4.393877101078324 0.18112609885558592
0.30021580723457086 14.695241800196097 946147.5923344045 4.6029748827111 0.18346264723586952
0.3114551000653444 14.52495818824901 799271.8971520539 4.819501779584376 0.18581151454170053
0.3229596512853834 14.371593979069937 677180.8908455218 5.043718452288304 0.1881737015758392
0.3347278344468066 14.233406418795793 575391.7294344503 5.275896535212143 0.19055020221101923
0.3467614532914039 14.108660934377244 490161.15074930375 5.516318940326146 0.19294200323971147
0.3590581738718686 13.996126069830275 418698.5857946992 5.765280174184291 0.19535008432490036
0.371617670898425 13.894459650900101 358484.26517242397 6.023086667509016 0.19777541802852186
0.38445354584808045 13.802432968234823 307621.4355196849 6.29005711669535 0.20021896989959925
0.39754447028826717 13.719440887190071 264576.4994733273 6.565613529290878 0.20266630876674832
0.41090441711326275 13.644359561931998 228016.3675530832 6.8507310533485635 0.20513006092182232
0.4245273043946065 13.576601353956544 196921.93147164266 7.145929342684226 0.207614102688143
0.4384185962535263 13.515484367301303 170393.10357532214 7.451576958766861 0.21011943094880742
0.4525721308610702 13.460414301449175 147702.6221068127 7.768056713934015 0.2126470361308477
0.46698764089319506 13.410743515362583 128263.40677271417 8.095766095455591 0.215197902609372
0.481673321017471 13.366115643196943 111567.92131499482 8.43511770058247 0.2177730091373958
0.4966208430483615 13.326065847862315 97206.6952977003 8.786539682640406 0.2203733293091472
0.5118277916462196 13.290220635136336 84839.87607959779 9.149582046444332 0.22298751715747084
0.5272931922767344 13.258261325228295 74144.02396503165 9.524619013434807 0.22561637865293188
0.5430256948241428 13.229767787488248 64894.00848715172 9.912977036797447 0.22827297304901767
0.5590129116278868 13.204524547311722 56883.09807194085 10.315149838688951 0.23095831626636504
0.5752630218532162 13.182267036017015 49928.6141815738 10.731649422745518 0.23367342204880628
0.591768599245836 13.162709654749403 43881.40276211038 11.163006634654478 0.2364193028504883
0.6085238794848682 13.145663597982983 38621.370310168764 11.609771742825869 0.23919697082778443
0.6255333538438276 13.130830143254048 34029.883607730895 12.071599383749966 0.24199682000806305
0.6427966336519525 13.11813961981697 30018.814222771547 12.548438226343418 0.24481344681454617
0.6603084155454366 13.10734041968664 26511.752439783686 13.042326004909901 0.24766489777642045
0.6780591425404275 13.098294569713712 23442.465306441085 13.553898099133407 0.2505522531505473
0.6960515147202254 13.090826535649796 20752.132649264106 14.08124360294678 0.253448490652658
0.7142906659936104 13.084867012261132 18390.27481881526 14.627465983892913 0.256379819810998
0.73268548415515 13.080204047250202 16321.079793087054 15.202587891492854 0.2706653830716692
0.750315296657763 13.075848159390672 14581.628748032996 15.802931456842783 0.3084492820116634
0.7669781348952818 13.070488594610833 13115.869913798148 16.439709447640176 0.345274752896842
0.782847496503138 13.063689157123843 11857.907363626242 17.114136693278322 0.381405880019097
0.7980528998286988 13.055019795666135 10763.105692696468 17.827335973255167 0.41672320849577243
0.8127268953459057 13.04449689429872 9798.809106069353 18.580177292641157 0.4511492592214313
0.8269678606464654 13.032056771052334 8940.641144421817 19.371244526894912 0.4840642776571932
0.8408703987193346 13.01763618481536 8171.593329034125 20.202949720365254 0.5162130404305454
0.8545163852244022 13.001414629762428 7475.959827217495 21.07630716385248 0.5476186339715742
0.8679643378363197 12.98344572116278 6845.971797416871 21.992218123722846 0.5782971744386741
0.8812956247141808 12.963859119139862 6270.409242958361 22.951606507578994 0.6082829304630535
0.8945387035289795 12.942733589574607 5745.071925647766 23.955458602683716 0.6376233106154631
0.9077595117713017 12.920242549115343 5263.217272928693 25.00485253357771 0.6663745935931347
0.9209857709651079 12.89638760822709 4820.683053345419 26.100980002333063 0.6945985379557263
0.9342544736573977 12.87140982849963 4414.461654568315 27.245162521436487 0.7223597975989932
0.9475833814160071 12.845258485213172 4040.9304465202977 28.43886386943314 0.7497239890744585
0.9610267462509219 12.818257980358814 3696.872274164132 29.683700087751244 0.7767561984814828
0.9745738568558555 12.790271631828308 3380.555587010067 30.981447961076434 0.8035197071689476
0.9882458463337661 12.761579692668256 3089.585342164526 32.33405258278633 0.83007445279022
1.0020740368874923 12.73222373971419 2822.097984429948 33.74363430568553 0.8564745588215721
1.0160530301799344 12.70224416324672 2576.572446577115 35.209874106268984 0.882616906379629
1.0301835666302108 12.6717200499525 2351.3287929956136 36.73527481309642 0.9084788236940577
1.0444971098055587 12.640807216741825 2144.380126186073 38.3243637640301 0.934337242744699
1.0589588753933163 12.609462029815301 1955.2032846480286 39.98008386955467 0.960423121077264
1.0735791881872552 12.577776884800768 1781.638239602673 41.70174717067394 0.9866592745924785
1.0883507905380656 12.54567750087719 1623.1549888480022 43.49254545992501 1.0131152701740977
1.1033020187991147 12.513621427380055 1478.368255685457 45.359442031445234 1.0399716363297091
1.11835420552292 12.481021527102335 1346.1733874472386 47.29959890954352 1.06708784697522
1.1335811539024483 12.44859453435975 1225.671305434887 49.320714077774575 1.094647812584739
1.1488811852298577 12.41575539373716 1115.9641790708533 51.42455879965928 1.1226511315419903
1.1643101424021332 12.382793367422138 1015.9135380188442 53.61487132745381 1.151148313529917
1.1798132230181744 12.349554865851221 924.8511889594205 55.8953166604836 1.1801868566614202
1.195404837821306 12.316372608308898 842.1004701769151 58.27215667721403 1.209868203132758
1.2110444951360901 12.283035516861933 766.9417738416414 60.74474510953457 1.2401298317421945
1.226717055705446 12.249284165936574 698.58034538414 63.323243171211416 1.2711535875947912
1.2424152540922466 12.215422954490998 636.5086777497133 66.0112018723656 1.3029619939042332
1.2581051702140453 12.181499688149973 580.1293242096937 68.80982750201962 1.3355327628713798
1.2737737377760134 12.147197233124812 528.9583651320629 71.72882611496763 1.3690136779508209
1.2894062331338454 12.112591328264196 482.47282603664144 74.77359182784002 1.4034570507503483
1.3049675703936867 12.077954119106057 440.33848446252523 77.95004361839632 1.4389223877834147
1.320448180100903 12.042928667561304 402.0837402366614 81.264643747923 1.475475768087551
1.3358349483459837 12.007585569905691 367.3452651036285 84.72442066275813 1.5131894663496723
1.351074226082911 11.971853046888794 335.82363848808694 88.33699640411248 1.5521417650227403
1.3661605947754878 11.935610484086347 307.1792376890654 92.11061859968648 1.5924169608760175
1.3810815383709332 11.899147063605248 281.2117466844768 96.05419716362327 1.6341054520364227
1.3957936190590245 11.862127381206882 257.6085653971021 100.17734588040963 1.6773039635203952
1.410282597633456 11.824620347644618 236.1988311607723 104.48759895930945 1.7220734543559262
1.4245249499211654 11.786596708551679 216.70000606317365 108.99672732523396 1.768535584704681
1.4385054958213987 11.748026916282148 198.9907796504449 113.71821639608378 1.8168308156112223
1.4521871322104782 11.708782087821241 182.87193651570797 118.65902330912971 1.8670006766182536
1.4655739656752533 11.66901627085002 168.21904804235606 123.83765990805801 1.9192473348534926
1.4786082946738406 11.62856500589708 154.87309785188816 129.2619503404963 1.9736175124254693
1.4912885695774807 11.58733130162264 142.7155672206841 134.95121475396937 2.030312806723554
1.5036094308249572 11.545468603635177 131.64804510746654 140.92012075795344 2.0894654481006287
1.5154993919077977 11.502860664805281 121.55825033045882 147.18286064419246 2.1512003443112846
1.5269968705649761 11.459392872080466 112.34077847385288 153.75955287895812 2.2157232686931225
1.5380489894161744 11.415174531713038 103.93882046934097 160.66944208344074 2.283250716936089
1.5486226460696544 11.370053066043722 96.26169841879185 167.93318952121038 2.3541408560879256
1.5587377550565733 11.324120753779454 89.24387099725813 175.57333981180727 2.429711229557932
1.5683441034530152 11.277324102373008 82.8275662710997 183.6138498192032 2.521058465863298
1.5774408918094471 11.22959922611609 76.96037887031882 192.07850557822005 2.578944917946946
1.5860220565348506 11.180905961084315 71.57312701989268 200.99089970634648 2.6394790156659145
1.5941115693331616 11.13127590747776 66.63514286752694 210.37737653269153 2.7027293338079157
1.6016602632803543 11.080643152752145 62.09617790859865 220.27339778490278 2.768876221322743
1.608666271411002 11.029136843002847 57.92730284442889 230.70947751727078 2.838061887049789
1.6151163988233874 10.976644696253185 54.098372665402266 241.72530714591264 2.910484408202156
1.6209800787002988 10.923286588890651 50.58662450111904 253.36078203018522 2.986337265502791
1.6262584426935733 10.868957757280095 47.356646889875144 265.6592423495785 3.065812941449876
1.6309313254110935 10.813689004763798 44.38563991369748 278.66806406055974 3.1491060469791923
1.634986948892673 10.757435189892279 41.647631628951316 292.438223366532 3.236462939901879
1.6383936186215997 10.700272100257074 39.13618248919526 307.0241160922154 3.328165138261711
1.641177701007762 10.642136717170967 36.81734408442904 322.48841989907095 3.4245059542179423
1.6433055090857478 10.583132565687311 34.68502403017807 338.89481955723994 3.5256341515812695
1.6447626791254994 10.523225337638435 32.72466690850613 356.3152947114023 3.632026430235031
1.6455451302211233 10.462342412897893 30.91297380467891 374.82812057721696 3.743925768064278
1.6456702669377634 10.400615052656144 29.24657660470621 394.5183298262037 3.8617263314604138
