M[M_sun], R[km], Lambda[1], P_c[MeV/fm^3], rho_c[fm^-3]
0.23835315348680472 16.224115897624433 2803846.7813616297 3.45143464264431 0.16959267850507953
0.2478723501226925 15.895045318888025 2321777.6498931735 3.6245844048390774 0.17185240156070858
0.25764797596683475 15.602352732836307 1930872.6076693889 3.803853348049175 0.17411927127558463
0.2676866990927481 15.341048677706265 1612261.9837857245 3.989446063292931 0.17639433544946503
0.2779805467209689 15.107539323113292 1351272.6672562838 4.181576487542166 0.17867863497830494
0.2885367726279422 14.89763399688672 1136324.339866628 4.380468117532191 0.18097320281434123
0.29935089144096927 14.709252878810117 958702.0762253493 4.586354237943599 0.18327906321829734
0.3104213239880958 14.539692683660736 811519.5386022138 4.7994781637319415 0.1855972312471389
0.3217489875159553 14.386855366662793 677282.7737421944 5.02009349619422 0.18792871242873505
0.3333351244067542 14.248889211383156 586436.6265352111 5.248464392212733 0.19027450258228434
0.3451737558952238 14.124257754233211 500490.00135002565 5.484865846002665 0.19263558775034115
0.3572827339134043 14.011539720865509 428162.74875872914 5.729583982610733 0.19501294421473517
0.3696454054641445 13.909587291398722 367201.0246095626 5.982687968417419 0.19740343748296738
0.3822650389420413 13.81732889437201 315620.0619892192 6.2438392224305534 0.1997970688241818
0.39513917940924226 13.733880131174335 271893.11227552604 6.514120625748283 0.2022089774238297
0.40827522750055795 13.658415314799313 234694.20142033865 6.793862938431204 0.20464016041525607
0.4216732195779597 13.590136610933596 202990.1857558368 7.083409742841425 0.20709160513006572
0.43532296804389764 13.528424559598452 175901.34170793951 7.383117809747745 0.20956428946497896
0.4492358263747106 13.472755172752723 152701.4318865053 7.693357473274609 0.21205918225645348
0.46340453152367284 13.422484237251894 132786.46895602648 8.014513014214947 0.21457724366702574
0.4778277723764836 13.377284460170044 115671.28286311953 8.346612061330637 0.21711401199863598
0.492508737370305 13.336544239707388 100921.16190264982 8.689003124446222 0.21965575715462218
0.5074504879201716 13.300129246240727 88194.09270979454 9.043417436721656 0.22222304925969974
0.5226401013099946 13.267450407735364 77183.74373593181 9.41029711480083 0.22481687490821786
0.5380894826941208 13.238335018391952 67639.83615086795 9.790100502930116 0.22743821412769705
0.5537911192604749 13.212428372724963 59362.20451206744 10.183302638039347 0.23008804104725114
0.5697385218526879 13.189475231322966 52171.357854540795 10.590395726930039 0.2327673246345326
0.5859399858990394 13.169268481965048 45911.203910903605 11.010873447526023 0.2354645551260407
0.6023959204404238 13.15159254891326 40453.20606734065 11.444844998353677 0.23817667481294275
0.6190870429645244 13.136146005671248 35686.151689927014 11.894153003506833 0.24092104398635716
0.6360338412715467 13.12287954983264 31517.85293978389 12.359363504356962 0.24369867625116048
0.6532131710274126 13.11147711723549 27870.08445398182 12.841062774540788 0.24651058483599267
0.6706411091926944 13.10185834675992 24671.856528863736 13.339857945543502 0.24935778398268646
0.6882982979005792 13.093863498951158 21864.89927696014 13.856175845836397 0.25223913966464945
0.7061927892683799 13.08732420948508 19399.0568680976 14.388129473838475 0.2551294846052054
0.7243158546270969 13.082144510323973 17226.42163880876 14.939000572762737 0.25805840662139645
0.74266856256614 13.078215616581797 15314.347300790956 15.509489321076567 0.2610269952854326
0.7612412280694832 13.075394529268486 13628.729413479636 16.1003210111956 0.26403634990077873
0.7800288296044209 13.07351391018126 12138.726560021318 16.712246958582934 0.2670875819345521
0.7990373567966457 13.072568670365973 10823.436990399625 17.346045474462915 0.27018181767741095
0.8182551470798092 13.072458090153642 9658.749410495513 18.000013040111323 0.2732974555714642
0.8376675017573207 13.072969804648059 8626.772087424164 18.67656003042872 0.27645125796591846
0.85729237057868 13.074207727299424 7713.193168046671 19.377384884094507 0.279652144465208
0.8771069347897456 13.075961111658298 6901.478437282707 20.103391827086195 0.2829013804794463
0.8971051198338211 13.078116200004747 6180.450569650151 20.85551886429283 0.2862002618347669
0.9172793866195318 13.080762826993496 5540.228095764073 21.634739322918715 0.2895501188948167
0.9376350549460519 13.083698959556664 4969.552462712719 22.441660420702622 0.2929491162588552
0.9581556450424609 13.086876612288142 4461.744629440696 23.274535128111552 0.2963771848871211
0.9788421084150833 13.090305772330366 4009.2237581763225 24.137596841198334 0.2998613483232661
0.999670218596987 13.093825247678467 3605.0241386239873 25.031988796118206 0.3034031639791423
1.020647623012561 13.097475497363897 3244.555274879626 25.958900121765886 0.3070042471951796
1.041765895049776 13.10113627815734 2922.1161495114284 26.91956833574978 0.3106662771604653
1.0629984138357251 13.104727248653175 2633.937987893239 27.915282048961114 0.31439100317029905
1.0843549456467916 13.108289699882684 2375.698927481868 28.947383895318303 0.31818025122926347
1.1058226324753802 13.1117204792186 2144.586955627584 30.015471109226084 0.3220238359753167
1.1273904175675544 13.114930820760467 1937.3780809001896 31.121230927418974 0.3259260341419847
1.1490505380725495 13.11797137837744 1751.4080470877986 32.26780713082133 0.3298999827745133
1.170771345967369 13.120680425335367 1584.558115555654 33.45680855243496 0.33394792052851446
1.1925697127920958 13.123118918969215 1434.4902011709944 34.68991733255393 0.33807220009616656
1.214419352801823 13.12520014286268 1299.660005691683 35.96889358340659 0.34227529725053324
1.2363178292619688 13.126910100453902 1178.2034848789801 37.29558042355596 0.34655982035625155
1.2582488947706072 13.128161108383372 1069.0504887556667 38.671909408276726 0.35092852037180744
1.2802029894533566 13.128978007184156 970.6322009926944 40.099906383891735 0.35538430137228655
1.3021595452648764 13.129265080339946 881.852887674885 41.58169779603268 0.3599302316255701
1.324099534459361 13.128966177846744 801.8120502710204 43.11951748400651 0.36456955525941176
1.3460347757996036 13.128157057813585 729.4994750906217 44.71571399593237 0.3693057045617074
1.3679333424993105 13.12669373869571 664.165169346522 46.37133040385233 0.37413472585911794
1.3897821640148322 13.12461418149825 605.1760151624627 48.090495118845766 0.3790688462449444
1.4115725822905223 13.121802041661594 551.7036011409456 49.876126792872014 0.38411300355023426
1.4332839591054838 13.118321043727562 503.3776656981062 51.731141481183045 0.3892715513247441
1.4543653031293755 13.113898777305733 460.5236039594154 53.67962533624794 0.46210641267165176
1.4721053115052192 13.106181697630674 426.3121249613573 55.82124250887141 0.5886870148910319
1.4865964892455281 13.093667127555202 398.6319596628415 58.1702024111523 0.7109598982976865
1.4983621805102523 13.076001364910246 375.4843856267567 60.731904693814656 0.8289102442311784
1.5078365922203105 13.053238509071278 355.6593253934334 63.51073487753781 0.9426111641930338
1.5153942688885098 13.025578555465938 338.30644113027415 66.51055079855804 1.0520263039851847
1.5213377575622133 12.993221167788652 322.74504052031176 69.73377329252092 1.1580072194643127
1.5259309069442288 12.956486649316385 308.5550520132031 73.1852178605743 1.2608607645214411
1.5293686262650101 12.91551668475402 295.42269925219915 76.87009036514978 1.3609138847526716
1.5318637400304735 12.870596438792699 283.0820263010569 80.79419546877145 1.458473669928788
1.5335297054537456 12.821858912659916 271.3855210538771 84.96402977188448 1.5537092486205804
1.534574976885725 12.769733385131623 260.1463434596595 89.38412791187642 1.6458633229201172
1.5350382814886638 12.714130853153225 249.29427761839543 94.06383367838998 1.7377749641818987
1.5350648441435613 12.655517419424013 238.797310600464 99.01437218521973 1.830297889386086
