M[M_sun], R[km], Lambda[1], P_c[MeV/fm^3], rho_c[fm^-3]
0.23835315348680472 16.224115897624433 2803846.7813616297 3.45143464264431 0.16959267850507953
0.24409366226002407 16.020015188928376 2499438.7864483353 3.5554423008670013 0.1709554899558179
0.24992786102204081 15.829981908063226 2232000.749651798 3.6627587877530017 0.17234753648770756
0.2558614201276961 15.652819218470528 1995829.2142089463 3.7707707388443388 0.17370385051465015
0.2618896325695216 15.487641413668877 1787365.060880928 3.8822473172520966 0.17509105166783115
0.26801326473389636 15.333200653767676 1603181.7070672384 3.995544933544856 0.17646848331946524
0.2742259070111569 15.189041096670394 1439754.7647475693 4.111344085262641 0.17785178868289842
0.2805412462128456 15.053844151994562 1294800.8408045638 4.230112276338864 0.17925004697417346
0.2869500133000357 14.927486149684608 1165769.8214783857 4.3504059231585455 0.18063041840454278
0.29345359579107533 14.80902625798319 1050943.304868869 4.474651542444158 0.18204524648613746
0.30005246410080577 14.69785137620001 931065.4813081915 4.5998068163958274 0.183427654228665
0.3067428215395813 14.593619356921295 857050.1218509157 4.728917409355455 0.18484212332727196
0.31352883835821044 14.495839116761445 775279.0147198243 4.859938645273155 0.18624425080998463
0.3204138144277605 14.403870381652334 702052.1195683812 4.994114069975066 0.18765930759063337
0.32738887658277777 14.317474607993814 636379.189859589 5.131211962965293 0.1890810031798101
0.33446283691536194 14.236317719552675 577450.7595257454 5.270662587535984 0.1904975997792236
0.34162886280360016 14.15999148041844 524439.0758543325 5.414056814546281 0.19193874621646384
0.3488902323603615 14.088255372358438 476785.4589470727 5.559003866485882 0.19335783903645237
0.3562489154006313 14.020657070897256 433815.05852501746 5.708863797473831 0.19481724811406562
0.36369511668057414 13.957072501432013 395090.43200720893 5.859599535424096 0.19624090316123402
0.3712416292151486 13.897249524473986 360137.23027714767 6.0154152201467985 0.19770516295188548
0.3788882499051137 13.840979911381151 328504.4610274029 6.172932879276462 0.1991477088876422
0.38662170762933523 13.787925281542096 299915.538260886 6.334957348315981 0.20061774879555788
0.39445470227650214 13.738087570911938 274029.05699965806 6.4995098243685145 0.20207921240852814
0.4023839468290188 13.691112475434403 250551.7889297175 6.668008336459744 0.20355596352655825
0.4104031847729978 13.647036270603957 229276.39907039847 6.839859980187066 0.2050364101254758
0.41852041505702897 13.605486874328513 209953.87283535846 7.015110460221505 0.20652080479741697
0.4267312894468919 13.56638890764114 190054.5158265936 7.194537741800735 0.2080203396107126
0.43503439239364067 13.529667847686614 176420.0468175962 7.376831240638619 0.20951331110264998
0.44343420653763016 13.495160334660454 161892.74769520908 7.564123457142073 0.21103208076994773
0.45193516065156936 13.462647673109705 148633.98834110383 7.753764634158316 0.2125345630401559
0.4605203445334317 13.432178517324155 136575.65146205816 7.949224663642672 0.21407275719858768
0.4692147395431436 13.403601700696777 125549.88813642708 8.146532293068866 0.2155856847591255
0.4779941059938194 13.376770265278108 115488.53683608523 8.350477399061166 0.2171435377272731
0.4868619379227968 13.351587447331381 106306.9088134881 8.555784901368039 0.21866784559380145
0.49583228208413577 13.32805050478029 97907.82475089286 8.768279644777884 0.2202418428110152
0.5048967235282253 13.306001484579605 90217.83351375915 8.982203591550691 0.22178226188569086
0.5140570716339689 13.285339043703539 83179.33976274988 9.203356070283078 0.2233696443950448
0.5233090758510988 13.266109193162707 76738.16667074255 9.426501448326725 0.22493019900000913
0.5326497213605543 13.248180348651934 70831.50754101713 9.656686791644969 0.22653187113268697
0.5420849739751038 13.231363563232412 65408.44431117143 9.889425105884598 0.22811297354524707
0.5516176439103444 13.215801140999238 60433.61590616002 10.129035077083696 0.22972984069662733
0.5612382120713136 13.20130364135577 55865.76006415842 10.371756445997637 0.23133195580771398
0.5709495790248414 13.187866183956281 51669.73085931367 10.621200096049222 0.2329649248392287
0.5807573144148263 13.175405921253274 47809.720126507294 10.874314405036467 0.23458857241577508
0.590654319396468 13.16390828959928 44262.254233911415 11.134018763109982 0.23623855218178977
0.600646199465332 13.153267240246954 40994.23335653976 11.39795689880457 0.23788430925121135
0.6107283652034684 13.143597995930717 37982.49138836851 11.668367703467599 0.2395522112634632
0.6209005536683199 13.134652775481218 34915.58479996993 11.943582875060695 0.24122071462771252
0.6311562229747164 13.126410717670865 32654.045519664327 12.225165350550542 0.24290745387118093
0.6415067261578257 13.118991340677043 30295.698324196503 12.512134504636201 0.24459940275897193
0.651941610732274 13.11222961716289 28123.627120552406 12.805374187240316 0.24630589867413902
0.6624745586049541 13.106124321606778 26113.099363967853 13.104599523204014 0.24802205754117743
0.6730866186637681 13.100678887955866 24258.195602370262 13.410003143489227 0.24974923518852046
0.6837884748309477 13.095726607927483 22544.669644911883 13.722013737010231 0.25149043667691434
0.6945742527139472 13.09138139274718 20959.26654744731 14.040110164401561 0.25323922810017246
0.7054448617847969 13.087570993282107 19493.999231332215 14.365463707250846 0.25500637616963284
0.716399651174962 13.084265872762606 18137.924425196616 14.696804964276987 0.25677772197491106
0.7274456807703911 13.081372141330284 16881.34015130349 15.036089629264994 0.2585717952198999
0.7385675302431768 13.07899228537708 15719.682625335096 15.381251983662773 0.26036664638806434
0.7497763758752043 13.076996866077927 14538.262548336175 15.735088424333334 0.2621887015566894
0.7610646250247951 13.07536926019114 13642.238053895155 16.09467356813494 0.26400802150677943
0.7724323830617417 13.074159458180596 12717.680890321644 16.463717063620265 0.2658591972389988
0.7838818460188238 13.073251465192609 11857.361118866833 16.838353389336397 0.26770396416057407
0.7954070564499156 13.072669985415569 11060.9110451057 17.223296145693453 0.26958548496515733
0.8070081687955091 13.072416615144302 10320.878690051855 17.61364013075346 0.27145669443763426
0.8186910335841417 13.072443082338827 9633.99527469888 18.015213751097143 0.2733698749293218
0.8304441825077894 13.07274020163576 8995.690146763316 18.421951462815016 0.27526854284649116
0.8422761480655192 13.073222104133073 8401.686633888477 18.840929599668247 0.27721479226696477
0.8541758149097992 13.073976124102348 7849.96591329654 19.26477833417179 0.27914195808502523
0.8661464643236747 13.074916696370632 7336.7868569267985 19.701979538666766 0.28112278513359296
0.878190591279801 13.07605175912863 6859.877952701616 20.143689608463085 0.28307951546126037
0.8903025602210893 13.077374993382218 6415.266533856334 20.59998039237319 0.28509653346365516
0.9024768689222094 13.07879466637497 6001.962246194556 21.060337078529027 0.28708392601322585
0.9147249619788669 13.080397674539984 5616.510165379572 21.536131632983697 0.2891347532796611
0.9270328236176809 13.082152600078361 5258.00144383005 22.016460892888265 0.2911580463782924
0.9394007434595472 13.083957013411258 4923.458433228903 22.512294343058002 0.2932412569486067
0.951834887859391 13.085892441133407 4611.4360099435535 23.01389543241335 0.29530488946597216
0.9643279394004534 13.087918509060776 4320.789181321064 23.530648658108824 0.2974216560031654
0.9768792660451738 13.089946733855744 4049.522508763916 24.054575678506307 0.2995276359921828
0.9894877806892926 13.092135662403475 3796.6327944840727 24.593172649067142 0.30167918024636964
1.002152236978593 13.094277927869285 3560.1598067328823 25.140544117756992 0.30382964693759507
1.0148608161362374 13.096464094579725 3339.673199464232 25.701954825330205 0.30601724560646526
1.0276222069367726 13.098673245256984 3133.6101839178673 26.273958232079558 0.30821447699790644
1.0404471256610852 13.100935941004616 2941.1362858577522 26.85920190590431 0.3104394680591451
1.0533062136185969 13.103122217523122 2761.2106347905965 27.457098627719027 0.31268588909984985
1.0662105778037512 13.105246245826153 2592.9435414358613 28.06724725610153 0.3149496786415622
1.0791618694208445 13.107441922735948 2435.7923078405747 28.692377861348685 0.3172478700635286
1.0921438264617407 13.109549196102833 2288.8495992581147 29.328560050186884 0.3195519396413472
1.105176123364125 13.111590691316563 2151.1465609491947 29.982350026791938 0.321904647499358
1.118237943104836 13.113601291961848 2022.3849386642032 30.645755225897897 0.32425056205204483
1.1313344287855447 13.115481828305166 1901.8708163613555 31.329721171773233 0.3266607080366186
1.144467851186868 13.117361734972906 1789.007315512046 32.0216043028781 0.3290501243956747
1.1576225539453953 13.119053828349065 1683.3136061873715 32.73518244467463 0.33150687205742063
1.170813325917238 13.12069951404284 1584.2360204548509 33.45904714384102 0.33395549302356475
1.1840291967218277 13.122228963622792 1491.3069456820017 34.20323193681267 0.3364582529002314
1.1972630907208055 13.12363007013162 1404.2882714513385 34.961204744819234 0.33897184401839936
1.2105061515163145 13.124892340535302 1322.7177895817501 35.737433984551785 0.34152253261785015
1.223783296032938 13.126035885607177 1246.2465507370966 36.531393149235164 0.34410468683364115
1.2370627669452932 13.126957012991333 1174.4151819459225 37.34118982932484 0.3467053486064737
1.2503570616631703 13.127784252653349 1107.0640081838203 38.17313858988152 0.3493598898213225
1.2636637401326183 13.128418955090558 1043.8012065195846 39.018117849743646 0.3520127088584496
1.276966520291989 13.128876994138766 984.4975464445919 39.88861790784868 0.35473464784088093
1.290288946731537 13.129175898475559 928.6932104921053 40.772070694892534 0.35745102042154275
1.3036078985253463 13.129273787331837 876.3601529693328 41.6804523089739 0.3602284713119239
1.3169171200480632 13.129164909475733 827.0816199647226 42.60715394611269 0.3630271201774028
1.3302127638726762 13.128781727413859 780.9075705531994 43.55529254011784 0.3658626661941695
1.3435165930432746 13.128269948355426 737.4374598831595 44.52774645264191 0.3687483081559975
1.3568029706868086 13.127521583069722 696.5409085660634 45.5176392620493 0.37164472111800956
1.3700600231704745 13.12651184751006 658.1177263135297 46.536615882909445 0.37461226220215926
1.3833242190591344 13.125264439445475 621.9715508510823 47.57229895127324 0.37758264016275517
1.3965595071066788 13.123819319640972 587.9777973818154 48.63634006449579 0.3806153649006035
1.4097727722262126 13.122107063612532 555.9480071133512 49.72440905133458 0.3836849832911926
1.4229426947617407 13.120064444617935 525.86164960945 50.83585851378393 0.38678620377640693
1.4361015767854548 13.117799253614233 497.46172803727484 51.979340103576625 0.38996028065320343
1.4492119691703005 13.115297503241855 470.70585423716227 53.14082948859998 0.39313419003625916
1.4622923980775462 13.112477097685055 445.54829650155136 54.335587746758904 0.3963819702362691
1.4753354867733774 13.109356073511753 421.8436254424709 55.55731384033077 0.39966940363575104
1.4883265474835672 13.105988141473695 399.466903939431 56.80611974353133 0.4029948636828728
1.5012738565519674 13.102281738011836 378.40271197820897 58.09037534026901 0.4063958107340318
1.5141671427889822 13.098257676049473 358.51754746046475 59.3976338336565 0.40981007119295926
1.5270033735823572 13.09391239840478 339.7805131123922 60.74100684411631 0.41329631240706055
1.539791198197939 13.089299550105695 322.10796235612577 62.11901984682541 0.416843887311586
1.540275497371817 13.082656861974044 319.938374632702 64.34075983466104 2.298432599945786
