M[M_sun], R[km], Lambda[1], P_c[MeV/fm^3], rho_c[fm^-3]
0.23835315348680472 16.224115897624433 2803846.7813616297 3.45143464264431 0.16959267850507953
0.2483933737862724 15.878317571091358 2298584.059698536 3.6342286476808847 0.17197750671123588
0.25872103136118957 15.572698670893297 1893273.097403154 3.8238335620252184 0.17437016429439609
0.26933885215523284 15.30141450693182 1566414.5539764825 4.020477668698429 0.1767716065420545
0.28024029134790046 15.060079688557488 1301122.258811273 4.224399998111518 0.17918279630443537
0.291431490282003 14.844827438627425 1085050.4387428027 4.4358506228505945 0.18160470227052772
0.30291009103863 14.652297263678854 908036.2969483724 4.655090969298118 0.18403829762065435
0.3146755999247132 14.479968885667763 762439.9488676764 4.882394146766273 0.18648455899789834
0.3267260090467095 14.325469547372366 642302.9522265254 5.118045294596593 0.18894446574706292
0.3390671588014677 14.186593406208377 542641.2072583642 5.362341947498838 0.19141899937622023
0.351688121426024 14.061873168975799 459860.4793255468 5.61559441925977 0.19390914320206518
0.364601583759113 13.9497128621309 390706.88709264365 5.878126204849035 0.19641588214626235
0.37780023860903844 13.848718563644882 332769.4990390379 6.150274400879048 0.1989402026556221
0.3912851048194498 13.757798500905269 284155.3335508533 6.43239014434319 0.20148309272425247
0.40505873839751894 13.676032385503603 243192.65382490633 6.724839069556536 0.20404554200077193
0.4191183356781936 13.60250270265164 208607.83833821796 7.028001783258951 0.20662854196823038
0.4334643790878115 13.536381891641946 179327.39717472522 7.342274357909686 0.20923308618852976
0.4480969113905652 13.477088384192365 154454.8712276242 7.668068843307552 0.21186017060689685
0.46301680934328254 13.42379350898217 133284.1611290726 8.005813796810965 0.21451079391532704
0.47822378860333464 13.376063456874475 115247.4761756804 8.355871322358615 0.21718473969374347
0.49371279483453434 13.333442656107183 99814.75597975818 8.71765586449769 0.21986823839399003
0.5094867477607603 13.29544598452936 86604.08620140505 9.09266949325982 0.22257770243669522
0.5255455009861731 13.261620733242486 75266.77025989867 9.481410785887448 0.22531420435265043
0.5418832689883859 13.231714912695756 65520.7897683101 9.884398049560616 0.2280788223531329
0.5585021641462532 13.205288930126 57122.28358978395 10.302170011846739 0.23087264116978726
0.5754051476713047 13.182071109924248 49872.68258831285 10.735286539644914 0.2336967529938759
0.5925817950341824 13.161820897041139 43609.33399024896 11.184329389109505 0.2365522585288769
0.6100354686971626 13.14421819874752 38181.449509617385 11.649902989508586 0.23944026817114683
0.6277595968900679 13.12904342054849 33473.6922709495 12.132635264481943 0.24236190333384253
0.6457550982799469 13.116179649786996 29387.62239354913 12.632206479465184 0.24530733823347986
0.6640167634182563 13.105282971159035 25835.86684883166 13.149257355627952 0.248278185368222
0.6825474452055019 13.096285767669132 22736.102948377684 13.685389730712254 0.251286053314294
0.7013370184504814 13.088973044143899 20032.753571656725 14.241336678663517 0.25433218391398693
0.7203800268460931 13.083205791452258 17673.648055158865 14.817860158026036 0.2574178389819081
0.7396786160419392 13.078786376307026 15608.868734401432 15.415752192153976 0.26054430271730195
0.7592217301501228 13.07560922594278 13799.937432812467 16.035836126440735 0.26371288436022994
0.7790094730806788 13.073619232910048 12215.211684489766 16.678967971033863 0.26692492110668875
0.7990375750612224 13.072574660573311 10823.357040565103 17.346037838302045 0.2701817812971477
0.8192996266976216 13.072436596895871 9598.963491858332 18.036441319518218 0.27347100749314507
0.8397777731741044 13.073085422141427 8523.222064159563 18.7517683662766 0.27680061791380994
0.8604879618869926 13.074452994454546 7574.319789548139 19.493854397732825 0.2801798327711329
0.8814102655856155 13.076348626042524 6737.848925878609 20.263750239983445 0.2836102394287275
0.9025360175399813 13.078803696118356 5999.882557354184 21.062550568994368 0.28709347585839406
0.9238650300657738 13.081693539472743 5347.874382597722 21.891396168581114 0.2906312356784338
0.9453812373607158 13.084899177357661 4770.85817510259 22.75147636914852 0.29422527356476696
0.967075252097283 13.088356103719487 4259.593310397386 23.644031683658735 0.297877411048441
0.9889499855582933 13.092012850728883 3806.8789566958203 24.570356658358076 0.3015895427134441
1.0109903382505419 13.095832124385248 3405.3405006101316 25.531802956895284 0.3053636428093032
1.0331862178779139 13.099653529005092 3048.6084718236402 26.528414574745025 0.309191917791543
1.0555266621115456 13.10346670732261 2731.517510779342 27.562147894422484 0.3130805808156984
1.0779975667938448 13.107240696702638 2449.4507566499815 28.63547568370606 0.31703867842349076
1.1005997756414583 13.110897366938222 2198.649902661487 29.75002982843721 0.32106862740758163
1.1233047735435508 13.114349323703552 1974.9701636624957 30.90751981551694 0.3251729630551628
1.1461083119447706 13.117546903231723 1775.371664256507 32.10973767657171 0.3293543487082651
1.1690117028085585 13.120484777982242 1597.3622140356354 33.358563333076305 0.33361558590268997
1.1919804492699508 13.12308072536511 1438.3319710935777 34.65597037416794 0.3379596251169767
1.2150092747926073 13.12524802366775 1296.21958326401 36.004032300600755 0.3423895771666503
1.2380968437929054 13.127058690273808 1168.9030418452899 37.404929270747 0.3469087252833658
1.2612134066698217 13.128322186487704 1055.160811082405 38.860955387274004 0.35152053792344884
1.2843539453058155 13.129064980792066 953.1008155318634 40.37452656615372 0.3562286823557785
1.30748835329288 13.12920991256968 861.6421348233554 41.94818903303528 0.3610370390849937
1.3306295429777264 13.128802117019555 776.3283743608788 43.58462849576838 0.3659497171726532
1.353732992876763 13.127719664782862 705.8033097837207 45.286680046058315 0.37097107052629136
1.3767912407419418 13.125930587205737 639.4933551307402 47.05733884790735 0.37610571523432046
1.3998015462427496 13.123409265589087 579.9396111650168 48.899771675709346 0.3813585480334975
1.422727450526821 13.120108023131436 526.301232651394 50.81732937066975 0.38673476600523454
1.445566374189464 13.115986397149147 477.96526278642705 52.81356029069318 0.39223988760748524
1.4682936957161248 13.111044469829343 434.48757175450294 54.89222483607949 0.3978797751603441
1.4908907764522952 13.105261096276474 395.2035250757218 57.057311141381746 0.403660658915949
1.5133441190506358 13.098514468983385 359.78055829740447 59.31305203268881 0.4095891628568883
1.5356344527338104 13.090826744392556 327.7399842943407 61.66394335949676 0.4156723323821965
1.5577413945343905 13.082220117435249 298.82129008698814 64.11476382134849 0.4219176640563458
1.5796441547490372 13.072517901479484 272.65667197304447 66.67059642165 0.42833313761452085
1.6013229405446283 13.061788495119663 248.97327484894944 69.3359492482812 0.43492327250955976
1.6227489031748936 13.049991642187466 227.5586612524384 72.1129477301595 0.441681517645127
1.6439328454427928 13.037157389343152 208.12143849851552 75.01155954532886 0.4486347551253558
1.6648273768730686 13.023136476906732 190.5141869389676 78.03829167800293 0.45579317680761405
1.6854192966563306 13.007958077657443 174.52984726791246 81.20009016503265 0.46316765269184745
1.7057042558458488 12.99164195119316 159.99307113900832 84.50437472970525 0.47076978111183226
1.7256351454506689 12.974104884910307 146.80767869945262 87.95677027193108 0.47860268756098634
1.7451952681675038 12.955278271434839 134.82545093239182 91.56073569963402 0.48666007001054123
1.7643799206637942 12.935238060403279 123.9082655817241 95.3316905286833 0.494981958072041
1.7831667227207182 12.913916384385134 113.97409095190004 99.2792981243143 0.5035833148223886
1.8015343934777672 12.891304635354743 104.93004629667259 103.41055659924885 0.5124673889537846
1.81944287588414 12.867334141634531 96.68785579645575 107.73027158367384 0.5216281177246415
1.836897400679292 12.841999871225907 89.16304965958216 112.25881657565603 0.5311164254763909
1.8538603080715295 12.81533620869362 82.29701073385046 117.0066633335929 0.5409435201620789
1.8703133101605327 12.787257269284163 76.0300465446845 121.97618296532815 0.5510896253747836
1.8862611467633532 12.757840800735782 70.30836683651629 127.1942538472577 0.5616222126503984
1.9016469336342277 12.726944804318402 65.06446116659568 132.6670191825163 0.5725311050128078
1.916451691341667 12.694577022782262 60.273122928677296 138.4115407508566 0.5838432294700253
1.930703746050851 12.660825818867554 55.88666956825177 144.4485960558296 0.5955956556888471
1.9443269761375521 12.62556459418465 51.87082918303531 150.78736071459522 0.607782314188855
1.9573489324867939 12.588879369543301 48.187333872872635 157.4574153522068 0.6204647972142582
1.969725070108008 12.550665709680581 44.807576419671804 164.46924009705552 0.6336357719546866
1.981437464659386 12.510949474725335 41.70944025649852 171.85276801034738 0.647350823705226
1.9924594167878256 12.469727828801688 38.86507956271708 179.62956225970666 0.6616332022855
2.0028106429176304 12.42701377134473 36.24924378047779 187.8210273811731 0.6765017582795205
2.0124272151386515 12.382730021987015 33.84719695894328 196.46394051629446 0.6920220206336857
2.021344429992654 12.337013462778428 31.63751911796784 205.58085473608415 0.7082074190204564
2.0294928403146986 12.289688090733451 29.605282843113343 215.20442894555757 0.7250995827557325
2.0368928062169798 12.240893627107475 27.73535922920933 225.37506257781845 0.7427596545320388
2.043523856348951 12.190565715741451 26.012183718159164 236.12992618618134 0.7612317501527244
2.0493741516567936 12.138730854788154 24.425580513034078 247.5096011102284 0.7805641483470225
2.0544156399431888 12.085374423664383 22.961840991464502 259.55377416623674 0.8007944879404479
2.058650545686294 12.030488426375058 21.61273776639031 272.31728669991617 0.822001185649906
2.0620625630205662 11.974142991387314 20.369775061877338 285.8531522987354 0.8442472336509829
2.0646410701262607 11.916320394455191 19.222931601762024 300.2193918344414 0.8676014139619382
2.066383118175858 11.857038037098922 18.163719154366095 315.47954813055986 0.892138811168314
2.0672732104127203 11.79632653114264 17.18662599005379 331.7032618340991 0.9179413899739713
2.0673023257385266 11.734211170420481 16.285605295357588 348.9648782510098 0.9450918412397707
