M[M_sun], R[km], Lambda[1], P_c[MeV/fm^3], rho_c[fm^-3]
0.23835315348680472 16.224115897624433 2803846.7813616297 3.45143464264431 0.16959267850507953
0.24747300553259072 15.907896546696044 2339894.4415281266 3.617217246356372 0.17175683475613354
0.2568289718769391 15.625408448602593 1960358.5903992658 3.7886403033780445 0.1739282399529256
0.2664255761886255 15.372023420395664 1648468.0700522796 3.9658937939039696 0.17610799543291658
0.27625933633423294 15.144396056642762 1391019.263204432 4.149176087173943 0.17829718496172245
0.2863307647116686 14.939241814514558 1177513.3660450878 4.338694109707827 0.180496874358773
0.29663534375114375 14.754341016911884 999949.6247807795 4.534663526387847 0.18270811133097198
0.30718267560840123 14.587053232946513 851494.9243866196 4.737308933565577 0.18493192546228043
0.31796618811860744 14.435799651499117 727063.045396713 4.946864063224994 0.18716932831582467
0.3289859146088837 14.29862961467965 622450.5854475826 5.163062616215051 0.18941129223276298
0.3402383325116208 14.174337732749624 534227.9808129901 5.386013582540688 0.19165690499638
0.35173543605018476 14.06143838929983 459558.9296135993 5.616516092525716 0.1939181221267433
0.3634616230708768 13.958958973248299 396256.5675360291 5.854839525315712 0.19619594625514442
0.3754343209796843 13.865910762653884 342343.593531046 6.101263558241628 0.19849136160348063
0.38763921504277304 13.781270742486292 296389.9236321289 6.356078425809695 0.20080533446405877
0.4000824981874249 13.70440240365341 257098.75547245622 6.619585183800048 0.20313881365176475
0.4127637271604773 13.634627833723432 223445.23525291632 6.891286331778622 0.20547943159246426
0.4256841525251455 13.571248545193495 192161.0345382327 7.171328661752385 0.20782637343560953
0.4388362281443 13.513762825832599 169663.54990600544 7.460898620418515 0.21019502115340669
0.4522273544637614 13.461613612073139 148204.36468243212 7.760340554133019 0.21258631296426103
0.46585900420547116 13.414382919599303 129665.66761796112 8.070011109331432 0.2150011708398946
0.4797216626811431 13.37170982143884 113622.43760405974 8.390279531392821 0.21744050098134202
0.4938212835485316 13.333175195049186 99715.570091799 8.72031016121981 0.2198879219654793
0.5081588325645574 13.298507309121758 87634.67864345285 9.060551777067387 0.22234642985873374
0.5227273959877402 13.267237696625813 77119.57694967405 9.412430524883565 0.22483179479120213
0.5375313310995782 13.239326966160366 67963.98027261846 9.776367292382654 0.227344917876069
0.5525654743285315 13.21428977571957 59966.30399071784 10.152797327200359 0.2298866866313535
0.5678318444192801 13.192042624623399 52971.13172650135 10.54197492892687 0.23245550584744643
0.5833339038799937 13.172310823405558 46851.50402234409 10.941897763187585 0.23502209810666147
0.599056936846929 13.154946045784374 41494.96695916807 11.355557202105514 0.23761993062930373
0.6150104119332022 13.139673881181526 36784.37076120071 11.783448865881564 0.24024989557184614
0.6311865172568158 13.126398607598798 32646.141655561813 12.226084842599384 0.2429128751282297
0.6475962562989118 13.114987450318175 29004.146782160416 12.683994088768776 0.24560974260966992
0.664213909048731 13.105175219625762 25796.012044899868 13.154932113581681 0.24831073203125512
0.6810572784952943 13.09694369120529 22966.622312813226 13.641557174772807 0.2510414420311302
0.6981134913793624 13.090092204904968 20469.854664922947 14.144998809182258 0.2538089276476533
0.7153771003321682 13.08454651726993 18259.54134551809 14.665859593239837 0.2566140886959476
0.7328594359918419 13.080145755020025 16302.830887698678 15.204761763382995 0.2594578227590929
0.7505469838106906 13.07683297009003 14570.100316163138 15.75979128643505 0.26231590715904896
0.7684355863049454 13.07449965975203 13033.203422646799 16.332800348431565 0.2652024999958175
0.7865249290851017 13.073096002690102 11590.456287088193 16.925704758179073 0.26813091963660823
0.8048057054329285 13.07244410141798 10457.276995326445 17.539215552476836 0.27110212022247776
0.823281713977277 13.072501240529515 9378.410812585507 18.174067250915872 0.27411706389969764
0.841946418627234 13.07320001698953 8417.290881307514 18.829110904111506 0.2771598917188101
0.8607815425332161 13.074434336122035 7562.272190026759 19.504669521564853 0.2802288328415807
0.8798050788947549 13.076203737052024 6798.253929325577 20.203809033471686 0.28334527134941756
0.898996359665748 13.078388234285946 6116.765272188475 20.927373608867363 0.2865102707080969
0.9183503770016306 13.080931080820235 5507.987129757467 21.676236378326134 0.2897249171276706
0.9378687360150196 13.08375962760175 4963.258462102364 22.451140250278293 0.2929890481875503
0.9575353020335219 13.086761281974878 4476.108149324014 23.248850191311934 0.2962715147203073
0.9773506071135469 13.090044102657313 4039.818486900121 24.07458736937086 0.299608075096994
0.9973124281471675 13.093470003483114 3648.502936074216 24.929363918740375 0.3029999800480902
1.0174070787109672 13.096940909434439 3297.535228351333 25.81422894691684 0.30644852315042004
1.0376123124809735 13.100392034478817 2982.390292407071 26.730270415956987 0.30995504591522033
1.0579546525449004 13.103899630763339 2699.186260339979 27.677773081687416 0.3135150084417924
1.0784017025025412 13.107325006446922 2444.8029652520227 28.655064462975798 0.31711069339781234
1.0989477150639608 13.110606661391914 2215.739766696385 29.66703523795747 0.32076996570859384
1.1195842754159229 13.113789601806081 2009.6039778440454 30.71496400843889 0.32449443862271965
1.1403089715370602 13.116785272347732 1823.9438234979066 31.800180884545256 0.32828580113865413
1.1611134999060178 13.119508016231624 1656.4840169432125 32.924070525837756 0.33214582477375476
1.181968683620624 13.1219832446697 1505.3536091989006 34.088075430454694 0.3360763706367477
1.202895185933565 13.124155598966839 1368.95859997196 35.291947663054565 0.3400686544222708
1.223867551667623 13.126023480171009 1245.7197377176701 36.53666296663099 0.34412182560073445
1.2448654402445587 13.127451512947749 1134.332707454701 37.8262873427483 0.34825317390973104
1.265895589460462 13.128515454335902 1033.5814924962597 39.16254960679379 0.3524650122379852
1.286940759775184 13.129114919063083 942.3746232406323 40.54725762312058 0.35675978250493706
1.3079868590151584 13.129238401756675 859.797770356806 41.98230344951031 0.3611400649879791
1.3290175814005112 13.128809680057833 784.9229367342947 43.46966887099325 0.36560858808376295
1.350049675270172 13.12795242935822 717.0615929910687 45.0114313486944 0.37016823853254177
1.3710165712740554 13.126429913040212 655.4722607590983 46.60977041127016 0.3748220721386138
1.391965193395397 13.124360786748252 599.5558307461331 48.26697451862997 0.37957332502431423
1.412847810145528 13.121658322505061 548.7590604646381 49.98370340800324 0.3844164945606375
1.4333459050635005 13.118169231528688 503.1821147517388 51.7875883139801 0.4590932301055451
1.4479110723745119 13.110450198785804 471.53680412108025 53.852796324305885 0.723269349766709
1.4560489635909366 13.09481858645647 451.0797002389928 56.30266314612263 0.968238868888378
1.4595385096232587 13.071462775575178 437.2963341553819 59.10297750808411 1.198329984158889
1.4595567718312963 13.040884612026565 427.6398514345121 62.259258020694396 1.4125056913760052
1.4569445095551268 13.003797990410321 420.6500631675386 65.76427213100516 1.6113291811058632
1.4522608032715814 12.960497577834065 415.44435678272515 69.60666221041113 1.7975308906831904
1.4459697151537179 12.911440538348113 411.31064347508925 73.7829527222886 1.9710000220320383
1.43841881821558 12.8569200927246 407.70671183614036 78.29164259100335 2.139746034064113
1.4298729607502407 12.797445750197443 404.4521775319213 83.13908406532332 2.309319791863738
1.4205272563890812 12.73333796067564 401.17514865759 88.33816227013479 2.4878367747339407
1.4105537838801998 12.66530992530655 397.96578148626304 93.91769640393657 2.6994681965915555
1.4000846982613548 12.594876327681177 394.96087306168926 99.96125180525053 3.027913092983064
1.3888149368951042 12.519772984445169 392.072694578505 106.42383667262747 3.090295525149223
1.3769669628637913 12.436913622129742 388.026465361418 113.13614880707152 3.127429792269084
1.3650620242382943 12.347770520416459 382.4486745543756 120.10377818409678 3.165397294554096
1.3534443150938402 12.25342001717296 375.1926898978171 127.340588992257 3.2046286348854713
1.3423384965245713 12.154741928613923 366.167092354163 134.8520691620113 3.2452573871689765
1.3318710467490158 12.05248789383904 355.5151450599976 142.65391612134547 3.2872766502315796
1.322145127621493 11.947291886487015 343.3454033851234 150.77057252790354 3.3308590434057934
1.3132441027462953 11.839813065094983 329.84741447760103 159.19852781460415 3.375980054801895
1.3052073483642554 11.730588174373247 315.25525783106247 167.9742562903503 3.422781780745998
1.2980298036253015 11.620048547147602 299.80490221411685 177.10125855451656 3.4712665100672755
1.2917506900238043 11.508773482217638 283.7820126540833 186.60368943634052 3.5215707384269943
1.2863213337513313 11.397121926164616 267.4321938921035 196.50336473023748 3.573792546391717
1.2817410370919402 11.285462314057764 250.98688644511975 206.81939806279024 3.6280087725528767
1.2779786420316663 11.174209297952343 234.6815267923094 217.57326088397778 3.6842837307894456
1.2749800951617085 11.063634746356634 218.6696736669929 228.7885534911116 3.742724064824823
1.272706622527066 10.953990201413006 203.14413550716506 240.4911049762709 3.8034563299414352
1.2711113026279461 10.845536042409947 188.2296095027407 252.70912222089 3.8665958027370526
1.2701276284381169 10.738382805929687 173.96844114015212 265.47327431420604 3.9322724306229757
1.269696999957963 10.6327754559835 160.48231504551697 278.81629888475675 4.000621939034065
1.2697809049434154 10.528785904925437 147.82247034600167 292.7626766580626 4.0717354352994475
1.2703147953119145 10.426556556668391 135.9801925153094 307.3606280834387 4.145822496634567
1.2712117980828004 10.326061400170268 124.96277827485332 322.63702585823586 4.222981107915004
1.2724489501739031 10.227444092863639 114.7694547195347 338.6407575847792 4.303417831031438
1.2739571040996631 10.13065566920409 105.35304388243279 355.41465312813494 4.387299253229342
1.2756555427284226 10.035685227761643 96.69778254613213 373.0052116574068 4.474810101088343
1.2775345502362405 9.942587594171277 88.7608809305611 391.4634937266296 4.5661336998706545
1.2795193316952853 9.851281912546382 81.50571874293856 410.84519476676365 4.661494213545524
1.2815438148091158 9.761702163401582 74.88491991424772 431.2110329545584 4.761155415435145
1.2835776972566233 9.673889246509946 68.8515757928913 452.62111151949216 4.865338057479675
1.2855998653338523 9.587697536277542 63.35194573816493 475.148857157755 4.974288390061955
1.287501351698937 9.503029709351715 58.35292091535197 498.8643656341532 5.08829447293051
1.2893082227923287 9.419962542617341 53.80566711918295 523.8517492494934 5.20769523639253
1.2909786168533868 9.338395925045225 49.673198565423036 550.1971278854115 5.332745699202709
1.2924338061341563 9.258099341394821 45.92886210045442 577.9948719865868 5.463874908633466
1.2936597819074391 9.179223936305377 42.528633020715695 607.3483069600945 5.601369148553946
1.2946280290856416 9.101527371607718 39.43405718726652 638.3650477112991 5.745710630862491
1.2953033476378546 9.025087831334224 36.64044005865056 671.1707498865255 5.8972528039938545
1.295685752872609 8.949672520498172 34.090359570298354 705.8914112992327 6.056490947040852
1.2957294705742226 8.875349525985152 31.778465258758953 742.6729647280197 6.223956799875534
