M[M_sun], R[km], Lambda[1], P_c[MeV/fm^3], rho_c[fm^-3]
0.23835315348680472 16.224115897624433 2803846.7813616297 3.45143464264431 0.16959267850507953
0.24896940124689085 15.860020490729577 2273271.9275750523 3.644900065550808 0.17211593637967695
0.25990533011432543 15.540377494501438 1852648.6478714664 3.8460279234867834 0.17464886052629638
0.2711656556029295 15.258619487048561 1517480.3040000878 4.054820550150264 0.1771863369242509
0.2827473608722615 15.009227219151592 1248349.4681868341 4.2716907538937825 0.17973286806263353
0.2946500959748254 14.788158750141074 1031332.1620133907 4.497089227558821 0.182293082862884
0.3068685990958076 14.591799117617395 855457.5263575313 4.7313198624660195 0.18486783324756584
0.3194084059367635 14.416830578840576 712183.9429947328 4.974700351682278 0.1874579886858392
0.3322665918634749 14.260837828872692 594941.3773032964 5.227562674719082 0.19006443529905953
0.34544579197277614 14.121597176463386 498691.61327569565 5.490253605974009 0.1926880752128226
0.3589496031801629 13.99696939469209 419252.7955535874 5.763135248033449 0.1953298261234813
0.37277416132360497 13.885675063915068 353492.76716727635 6.046585590885269 0.19799062105146145
0.386913443929447 13.78604546872212 298891.8566539439 6.340999098059057 0.20067140825799806
0.40137721134969634 13.696897821209284 253393.04993703807 6.646787320718412 0.2033731513060963
0.4161588302033704 13.617262539594869 215359.9918764373 6.9643795407750595 0.20609682925060555
0.4312632497396555 13.546051029610235 183475.64565459196 7.294223444180341 0.2088434369461827
0.44668537459582747 13.482456217984755 156657.6489200974 7.636785825674565 0.21161398546557603
0.46242351997564174 13.425743648084245 134055.23359501484 7.99255332644397 0.2144095026241252
0.47848732416381384 13.3753051647159 114952.21325918447 8.362033206345753 0.2172310336095372
0.49486797086944284 13.330525476160803 98769.02425065383 8.745305223454794 0.2200732788211317
0.5115645754793574 13.290777207421296 85027.35363232152 9.14317745480643 0.22294139910816704
0.5285749456607274 13.25577412285379 73332.76259890509 9.556334373291799 0.22583817823178423
0.5459046291409987 13.224953778294072 63353.04528159569 9.985373419317455 0.22876479621718393
0.563545748850343 13.197990890403823 54833.49223363546 10.430917451736319 0.2317224560001986
0.5814936243127414 13.174515923084082 47533.46141571022 10.893615813390193 0.23471238479533926
0.599755270331317 13.154225281685893 41272.74034533102 11.374145453762768 0.23773583561776856
0.6183217374449368 13.136826240790867 35888.75138118265 11.873212113561104 0.24079408897467458
0.6371884103938136 13.122036908119432 31257.122971731624 12.391551576687123 0.24388845474269447
0.6563636281166284 13.109594025907159 27256.835828235442 12.92993099576065 0.24702027424900047
0.6758310723475864 13.099329628999886 23805.246271807628 13.489150298110877 0.25019092257443315
0.6955822152629837 13.09096637240551 20817.364139938236 14.07004367996222 0.25340181109764637
0.7156297780924158 13.084487141496739 18229.22709189951 14.673481197406275 0.25665439029967435
0.7359666737581916 13.07949841131298 15982.033022076463 15.30037046366953 0.2599501528486463
0.7565714650355133 13.07601529033715 14030.285581225844 15.95165846315866 0.26329063698459804
0.7774540686371985 13.073720076977079 12331.066819254944 16.62833349378946 0.2666774302244959
0.7986004158211054 13.072563669477086 10850.396021514336 17.331427250183467 0.27011217340772353
0.8200086570237168 13.072451040253412 9559.768125204739 18.061152582739386 0.27358873710566106
0.8416671486322674 13.073184330362201 8431.015652264843 18.819052704337967 0.27711316907684297
0.8635701081934152 13.074683962075854 7444.173290684789 19.606728383696662 0.28069123082351266
0.8857076481340985 13.076809336769053 6580.001806939644 20.425418464937223 0.28432488835797526
0.9080790304459495 13.079531891571756 5822.062027648679 21.27641913359997 0.28801618671272494
0.9306689707331922 13.082674875616735 5156.700543934469 22.161087199125078 0.29176725641756346
0.9534685476524828 13.086145675770865 4572.120109550876 23.08084363935652 0.2955803204802963
0.9764740567361039 13.08991513190276 4058.1576504321206 24.037177430581362 0.2994577018972661
0.9996611230051206 13.093832321285216 3605.1840043226307 25.031649688391703 0.30340183172141183
1.0230299362849957 13.097876005287333 3206.0634607517027 26.06589814653817 0.30741525771728107
1.0465664042128322 13.101955521859498 2853.872267597929 27.14164200297267 0.3115006536345858
1.070257693840975 13.105984196149128 2542.7576162160826 28.26068716445268 0.3156608291344465
1.094090769792389 13.10985125028039 2267.579449867267 29.42493192343722 0.319898740405508
1.118054615473541 13.113554732343074 2024.2487573705969 30.63637310357131 0.3242175015106706
1.1421327805413746 13.117009180648857 1808.425883574045 31.897112712854014 0.3286203965092781
1.1663091413972568 13.120123249750366 1617.1643226526849 33.209365146664105 0.3331108924043327
1.1905764139091102 13.122921943044489 1447.526133563961 34.57546498619645 0.3376926529696486
1.2149106662018174 13.12526948247058 1296.80808776446 35.99787544161251 0.34236955351795434
1.2393003652924321 13.127109853369134 1162.7446828673326 37.479197493342525 0.34714569667773565
1.2637257334833218 13.128426726660443 1043.5087182278978 39.02217978958665 0.3520254292542682
1.2881656337824914 13.12913498490876 937.3308725633528 40.629729363173254 0.35701336025877284
1.3126185378733441 13.12919756205813 842.6874062253573 42.30492323663064 0.3621143801990681
1.337050548115503 13.128518862905466 758.2141082444194 44.05102099067734 0.36733368173555747
1.3614533994332356 13.127182884862282 682.8564665747805 45.871478378413606 0.3726767818179436
1.385806420898634 13.125056380046688 615.4968069267082 47.76996207538998 0.37814954543081797
1.4100762995593574 13.122004750989555 555.2424879031747 49.75036566454188 0.3837582110903692
1.434258596371093 13.118178213574348 501.34043103050504 51.81682696480182 0.38950941824994506
1.4583263818245586 13.113333350029004 453.03840101045927 53.97289478601716 0.39540603220959286
1.4822655068411648 13.10759689359495 409.736133602023 56.220580841071204 0.4014428638398257
1.5060416280215745 13.100816247233055 370.91174801721456 58.56778546288735 0.4076426968798037
1.5296419794236877 13.093010273925351 336.06350435991345 61.01978351487157 0.41401399875631434
1.5530393639899933 13.084122692914192 304.7400900882868 63.58220305937085 0.42056580440950597
1.5762301354612196 13.07412339608584 276.5923017017271 66.26105353400496 0.42730775890849887
1.5991640938445892 13.062935221532939 251.24788631308377 69.06275639970245 0.43425016362683627
1.6218201885399368 13.050556853762156 228.4373841516535 71.98985165831408 0.4413852412467644
1.6442149025515853 13.037007033621908 207.88842820153278 75.04955035295289 0.44872505300882487
1.6662731814174108 13.02214509480392 189.33435325126965 78.25324223381699 0.45629784640370114
1.687997192380529 13.005993251998538 172.60641504965915 81.60929789689867 0.4641169498381247
1.709360830316632 12.988512879842927 157.49544227141436 85.12405889355604 0.4721859244207258
1.7303449782231795 12.969705965923023 143.8390345185605 88.80049100310615 0.480493797932796
1.750909271297942 12.94950837998719 131.4864040567087 92.65707894902772 0.4890906195661121
1.771049006847541 12.92788583343775 120.30479394505821 96.7048698941999 0.49799378334663713
1.7907192734733948 12.904828133633776 110.17958670782164 100.9422581467409 0.5071702938345207
1.8099137122037718 12.88031085016944 101.00019166625272 105.39306344781751 0.5166838630939994
1.8285992432078957 12.854287989344346 92.67734208254407 110.06904713659733 0.5265488001997388
1.846759492584629 12.826749694441736 85.1212323726509 114.97328754023093 0.5367454531758898
1.8643677372611254 12.797687515575776 78.25503940725518 120.134819981735 0.5473480380553676
1.8813898158001574 12.767080154129088 72.0171498704669 125.55445933636248 0.5583244473294301
1.8978147282587619 12.734877828976446 66.34214835878215 131.26173545932392 0.5697441983744476
1.9136171468726602 12.70108022464896 61.17904363624311 137.26367092575103 0.5815929434706874
1.928755896423572 12.665608828134497 56.47449635541534 143.59041523286143 0.5939351715721921
1.943228773775151 12.628548598254719 52.18722012579329 150.2496725268724 0.6067533259813772
1.9570158498627361 12.589865307228477 48.280454269125656 157.2782504763868 0.6201271450231067
1.9700862214164785 12.549494989387798 44.7097880225952 164.6870887514547 0.6340432718771168
1.9824129499738148 12.507448916844076 41.45309601112485 172.5101040437152 0.6485626401515519
1.9940015606074162 12.463748787114232 38.476206889189136 180.77798223728138 0.6637300095751336
2.0047887190374403 12.418284584984036 35.75295934452495 189.5124835646174 0.6795553328611117
2.0147838252658885 12.37116203643957 33.2603862625406 198.75136785135967 0.6960964027443567
2.0239680746690247 12.32235644539737 30.98357048662414 208.53323999547646 0.7134073893247288
2.0323195219979335 12.271856998200384 28.895664217807326 218.89645433213752 0.7315348194506928
2.039821131086503 12.219649566181387 26.98416628593047 229.8830134166753 0.7505297837575398
2.046442490466411 12.165734074235532 25.229711363140538 241.53893792400626 0.770448300365642
2.052185752442962 12.110119417912573 23.62240974580627 253.91468016763721 0.79135172887104
2.0570309875479444 12.052849117781784 22.145024164625102 267.0655869518487 0.8133072399448505
2.0609596925351936 11.993910006566896 20.791421838875404 281.0524182853024 0.8363883467236687
2.0639747598538842 11.933313020110678 19.54671145765436 295.9419294260994 0.8606755051559168
2.066051703447634 11.87109760900542 18.404468372693497 311.80752481881797 0.8862567915900772
2.0671683354914925 11.807337093586234 17.35689949206761 328.7458466754794 0.9524003555355873
