M[M_sun], R[km], Lambda[1], P_c[MeV/fm^3], rho_c[fm^-3]
0.23835315348680472 16.224115897624433 2803846.7813616297 3.45143464264431 0.16959267850507953
0.2482111601165771 15.884150212453207 2306668.1054228065 3.630850473616769 0.17193368502593295
0.2583469090698958 15.582969510411425 1906407.9814422112 3.816826516364166 0.17428217630583107
0.2687582229798272 15.31531320622776 1582305.705477145 4.009582112000559 0.17663914228420957
0.27945034083877635 15.076532550667448 1318480.878572312 4.209346835738559 0.17900557537594292
0.2904178222681654 14.863184003153103 1102696.0086920664 4.416360760417376 0.18138246895953958
0.3016606522178487 14.672046277757184 925429.5843434256 4.630874735909144 0.18377081621555832
0.3131836126397662 14.500566591146674 779216.6724387957 4.853150684750069 0.18617160925738194
0.3249799515554889 14.346581710294423 658184.6312452364 5.083461914129817 0.18858583850344846
0.33705209058422614 14.208047005881442 557530.0379889474 5.3220934442003935 0.19101449224687367
0.3494039766319403 14.08335054637014 473610.46538675006 5.569342352531071 0.19345855638490478
0.36203170736653884 13.97088621332106 403366.95630307606 5.825518134438159 0.19591901427683284
0.3749343499173924 13.86960361532743 344434.3307096475 6.090943078853948 0.1983968467047828
0.3881152831700975 13.778175767722633 294744.7430997534 6.365952659368513 0.2008930319171653
0.4015708933792742 13.695779857614584 252836.18720046524 6.65089594008096 0.20340854573951342
0.41530587531644536 13.621577871713633 217374.07935683016 6.946135995930481 0.20594436174192135
0.42931214512421395 13.554673171629632 184988.7811034752 7.251989704144482 0.20850048519876552
0.4436026067497212 13.494511909506398 161617.02661751682 7.567824567561946 0.21106209341193555
0.4581692807068531 13.440288035942915 139740.35785050748 7.895020296581441 0.21364618998177595
0.4730066506582665 13.391748929438634 121074.59770451034 8.23399802908428 0.21625379962170022
0.48812068730618224 13.348219601755982 105078.73205140844 8.585195403358357 0.21888594619786614
0.5035117129365737 13.309295607118523 91347.32412466661 8.949067090449644 0.22154365326270078
0.5191729839762946 13.274551705742303 79546.69013515965 9.3260853439722 0.22422794464261714
0.5351067406743196 13.243657918967603 69364.07832195493 9.716740568312963 0.22693984509040563
0.5513146934242744 13.21625012488109 60580.95493145234 10.121541906495187 0.22968038101417942
0.5677888350088929 13.192101026353676 52991.359784212014 10.540786631872155 0.23244766233257036
0.5845361668868857 13.17094012483915 46419.96766186202 10.973597724405513 0.23522544324907574
0.6015481757128072 13.152426336849647 40711.831079241805 11.42207643035535 0.23803470392402498
0.6188198373026513 13.136377095104223 35758.53844042842 11.886813064248223 0.2408765453009268
0.6363597745952004 13.122632802523507 31443.384525129568 12.368420402457797 0.24375207505186913
0.6541545785113662 13.110897428624373 27684.84164217263 12.867534470141686 0.24666240899548342
0.6722112382392287 13.101097101964799 24407.86102536493 13.384815368104169 0.2496086726791041
0.690515294880457 13.09296552508262 21540.389763494186 13.920948144402026 0.25259200314066826
0.7090723491699086 13.086412104519201 19031.09363153003 14.47597462366768 0.2556066129179099
0.7278714634763667 13.081288255791149 16835.05698418355 15.049488242101763 0.25864264455466507
0.7469211705638299 13.077456190665535 14801.308435487736 15.643956529544873 0.2617194244533723
0.7662041038668151 13.074788743031329 13214.830194737093 16.260177811190392 0.2648382148093891
0.7857175862374769 13.07314392889278 11726.799849830702 16.898981229817352 0.26800030054129054
0.8054582230430202 13.07243454216138 10416.045304299794 17.56122804443161 0.271206992325743
0.8254225605751269 13.072554765270526 9261.446413758655 18.24781302319141 0.274459629904768
0.8456041243016794 13.073423525235105 8242.819244496395 18.959665940761724 0.2777595856772959
0.8660051013763335 13.074932761582762 7343.287939360389 19.69661247739234 0.28109846859458437
0.8866011840319197 13.076954943586319 6547.86136095577 20.459100209286305 0.28447377737151613
0.9073974836503576 13.079442176256933 5843.83397297851 21.249807056102583 0.2879013720235797
0.928379606657278 13.082326755094996 5220.324865706261 22.069829139073804 0.29138284968137396
0.9495446163567043 13.085541677091044 4667.642111837175 22.92030779379782 0.29491986140608767
0.9708915812528462 13.088985377569665 4176.654933246414 23.80243195349641 0.2985141176612819
0.9923983089589689 13.092600389808267 3740.5110494983 24.717440727392642 0.3021673941532092
1.014060449023289 13.0963352939234 3353.0726820604996 25.666626191167406 0.3058815380510848
1.035876136584229 13.100107442269842 3008.3532515318952 26.65133640744601 0.3096584745993448
1.0578315930071702 13.103884944907879 2700.8797029893485 27.671995401946706 0.31349330050986635
1.0799132644361253 13.10756162325883 2426.9656803136777 28.729405399809792 0.317383995811578
1.102114973932117 13.111153678469263 2182.7003003048894 29.826794192080673 0.3213448692100287
1.1244165366100507 13.114508463976037 1964.5726978126654 30.96578487314782 0.3253782763394526
1.146826129984936 13.117667296057284 1769.5470663424305 32.148076537235546 0.32948668919453195
1.169306269141339 13.120495227465582 1595.2448968434662 33.37544911170968 0.33367270551584277
1.1918737815746243 13.123067488265768 1438.9748631062253 34.649768580229676 0.3379390587140724
1.2144891279947376 13.12521765075857 1299.235106599262 35.9729926251849 0.34228862836185403
1.2371601571603794 13.126964532235691 1173.8901731537376 37.34717672089129 0.3467244512858278
1.259861115357794 13.1282332122625 1061.4773369270529 38.77448071129534 0.3512497332957947
1.2825710208921928 13.12898813666238 960.5924864205858 40.25717590845618 0.355867861592556
1.305311765511915 13.129269860696743 869.8447464896872 41.79765275089157 0.3605824179012698
1.328028578323679 13.128851997636549 788.2999920957525 43.39842906401223 0.36539719238291846
1.350713796991468 13.127864705826203 715.0032109617068 45.06215896837933 0.3703161983828149
1.3733797296569425 13.126218149557038 648.9299363048013 46.79164248542591 0.37534368808196755
1.3959833169601719 13.123868635582339 589.3873537141636 48.58983589465355 0.3804841691246798
1.4185190969361314 13.120798527179065 535.751486081737 50.45986290117631 0.38574242230394723
1.4409668865585474 13.116927024397539 487.35333021290035 52.405026677906264 0.3911235203951478
1.4633071592502653 13.1122408030998 443.65932168226266 54.4288228527023 0.3966328482382167
1.48552837847966 13.106740309372672 404.17862330100496 56.53495351751319 0.4022761241790556
1.50761259049497 13.100316995324794 368.4797070008506 58.72734234400141 0.4080594229924227
1.5295515482767612 13.093035610366343 336.1893813203654 61.0101508984023 0.41398920042104165
1.5513065562884296 13.084832134531323 306.9640482641855 63.38779625757431 0.4200723194793658
1.5728669135529745 13.07557215786177 280.4842994188271 65.86497003838248 0.4263160786853276
1.5942416690725765 13.065453390718762 256.49470103343697 68.44665896387522 0.4327282423997612
1.6153837532501965 13.05422665442222 234.71827041082292 71.13816710226854 0.4393170734711121
1.636269702497127 13.041969843934995 214.96174273486866 73.94513992867613 0.4460913684027223
1.6568942362297459 13.028614311914787 197.012901629249 76.87260408904788 0.4530563284079729
1.6772317994791013 13.014143410883515 180.7135851006251 79.92268318363813 0.46020427075245274
1.6972754630440485 12.998590227042277 165.8998456737049 83.10671128343458 0.4675652250309315
1.7169941989063922 12.98186612291052 152.3965667822348 86.43193534409683 0.4751504346926938
1.7363813887161108 12.963963784991664 140.10640392625902 89.906095009185 0.4829718918396485
1.7553910244140283 12.944815575756543 128.91711442031146 93.53746149121449 0.491042392788438
1.774038905582289 12.924518314508926 118.72460879634251 97.32752412428266 0.4993470962643411
1.792261987322079 12.902873067976207 109.42398211805528 101.28965653282305 0.5079166080212494
1.8100867550504576 12.880043338993534 100.91880089294446 105.43638314622223 0.5167759971454995
1.827480182827157 12.855922505313647 93.16018220373522 109.77849803341176 0.5259417825999345
1.844403093389475 12.83045721835394 86.07076404950209 114.31493281447636 0.5353850651458781
1.8608535713901961 12.803688356604551 79.59506496889308 119.06894704196986 0.5451657936595339
1.8767957701533449 12.775518781389419 73.66229386774457 124.05438378578602 0.5553062231711402
1.8922457112611928 12.746065994395167 68.22595230933905 129.270348251514 0.5657739469601057
1.9071505620599645 12.715200366804643 63.25470429750506 134.74498195777971 0.5766388720896113
1.9215012296538645 12.6829442569532 58.6965087937603 140.48827737530448 0.5879033003835931
1.9352895958160987 12.649317155865372 54.515101709066094 146.51314712737147 0.5995779098097788
1.9484779799053102 12.614215603132235 50.676435520524464 152.84526038299305 0.6117149033519378
1.9610803760115252 12.57776027799953 47.15767653618516 159.49108215486615 0.6242974237201344
1.9730449970615986 12.539796550385901 43.9215931198798 166.48383109982058 0.6373971775506535
1.9843726254230962 12.500425406577476 40.94580081209725 173.83276671162466 0.651001003929819
1.9950320619967086 12.459546822417 38.21050659750226 181.570200766175 0.665170061055519
2.0050214900915555 12.4172244395619 35.6944150557067 189.71798954949304 0.6799263314467819
2.014334138308502 12.373476498089836 33.377182770207526 198.29868368873 0.6952900784403107
2.0229231030941777 12.328212810191285 31.24367589615466 207.34999733441038 0.711327085258034
2.0308141053106774 12.281517235503934 29.276441730900068 216.89705990465842 0.7280565403062467
2.0379605519746944 12.233344599281796 27.46276979173177 226.97171902113746 0.7455143120278018
2.044352853063816 12.183672555940923 25.793582922128525 237.6167130720515 0.7637658313050072
2.050000466528743 12.132587692572423 24.248066857686577 248.87079354748013 0.7828568292793951
2.0548683186229 12.08002762903104 22.823941571510307 260.7762571860056 0.8028373254210267
2.0589464063419283 12.02600410451424 21.508812771565356 273.3776257178714 0.8237565277854587
2.062239626748024 11.97055830538578 20.294746935369435 286.72598784364146 0.8456760809552417
2.064725942091422 11.913699053842734 19.173526391656253 300.8791471554497 0.8686696653575974
2.0664174951817667 11.855450368803133 18.136157280238674 315.89740064476047 0.8928081469705905
2.067278178562759 11.79579402588033 17.179045950560496 331.8467425663707 0.9181688114169193
2.0673051124156907 11.734794896918322 16.29361173429483 348.79817178525406 0.9448316676116367
