M[M_sun], R[km], Lambda[1], P_c[MeV/fm^3], rho_c[fm^-3]
0.23835315348680472 16.224115897624433 2803846.7813616297 3.45143464264431 0.16959267850507953
0.24796338303023938 15.892257603374558 2317808.7468478754 3.626295797137503 0.17187460174735025
0.25784013165838326 15.597052119034064 1924106.3050030451 3.8073934960332303 0.17416372517461814
0.26798100903878946 15.333975632335568 1604078.3877335766 3.9949361337017923 0.17646108175003436
0.27838293802310704 15.098826612544224 1342156.490395328 4.189141685532662 0.1787677000783077
0.2890528912855929 14.888087421139618 1126908.9865057464 4.390237934290866 0.18108460322742612
0.29998026688236273 14.699087235168662 949564.4613192707 4.5984627112291925 0.18341280785958713
0.31117511604324044 14.528895116373066 802536.3374182243 4.814064151882928 0.18575332361419505
0.32263004283458524 14.375756608228478 680352.4216510876 5.037300966278395 0.1881071526934684
0.33435072248864905 14.237550245436243 578300.05101469 5.26844272313065 0.19047528960854515
0.34633414153636205 14.1128083937321 492961.46537565626 5.507770147485371 0.19285872105084664
0.35857249790644674 14.000305002705796 421271.92718717083 5.755575431174988 0.19525842585986386
0.37108408212568916 13.898542437328603 360830.8119758865 6.012162555404485 0.19767537506441732
0.3838582542508732 13.806499774301072 309769.6722078522 6.277603970530806 0.20010628621868215
0.3968937627203842 13.723350235976415 266535.3534223359 6.551601505707103 0.2025418617629534
0.4101935839852938 13.648163736452966 226903.47416722236 6.8352522235210325 0.20499671578484036
0.4237529115827946 13.580241279416297 198541.63210619916 7.128907770060952 0.20747184761689083
0.4375781953381773 13.518980847505125 171858.05248772205 7.432933449847389 0.2099682490344305
0.45166027511430534 13.463666103225899 149035.9886340308 7.747708628192359 0.21248690463641556
0.4660182646966412 13.4138759324002 129473.88021860208 8.073627143918596 0.21502879224413043
0.4806300684301743 13.369090735768639 112662.03155786256 8.411097732246555 0.2175948833235147
0.495498591583286 13.328866366781556 98208.15171299064 8.760544457862228 0.22018614343910844
0.5106375581784137 13.292843963430554 85726.39461105423 9.120630257180368 0.22277904171981652
0.5260289321485963 13.260727736771226 74954.06962551658 9.493435024061602 0.22539829518356244
0.5416864313376439 13.232044378293763 65629.17413426205 9.879451423929412 0.2280452175650898
0.5575948129224331 13.206644861133107 57544.79752203147 10.279168011749414 0.23072081336778516
0.5737632101947115 13.18416749524751 50524.00253499479 10.693091315683837 0.23342608408779805
0.5901827906804001 13.164445048077303 44422.30155437186 11.121746378186545 0.2361620290821882
0.6068604307050065 13.147187119815973 39105.57727464086 11.565677315896098 0.23892964654020574
0.6237856845119161 13.13226882141493 34467.27041398018 12.02311999009675 0.24170291167830443
0.6409569575491485 13.119389502841662 30417.119897165605 12.496769806499994 0.24450881363622937
0.6583820407862008 13.108420977942933 26872.485711772653 12.987314038360777 0.24734938547569083
0.6760470274508149 13.099211939433058 23770.302022324227 13.49538024103462 0.25022568929747613
0.6939490581803043 13.091651569187123 21047.13465443732 14.021618725025775 0.25313879239841774
0.7120855801735008 13.085463279578159 18657.546077344214 14.56670332633893 0.2560897690791852
0.7304595509821276 13.080700926204248 16556.304201996572 15.130440249784888 0.25907070348599803
0.7490648061216214 13.077105957132982 14706.534348486886 15.712363738698027 0.26207168243102014
0.7678987842503556 13.07460449194133 13076.858999997326 16.315184076091636 0.26511413421713076
0.7869470791916441 13.073073548350886 11638.964748544046 16.939681919144967 0.26819923711683624
0.8062127793552871 13.07244731731895 10370.283815569359 17.586666736055996 0.2713281875589065
0.8256879239935193 13.072587734956628 9247.917964661086 18.256977967508035 0.27450220317052093
0.8453770835270423 13.073405452021806 8253.560209914169 18.9514862759507 0.27772252607833026
0.8652646837792219 13.074822899481752 7373.301439906634 19.669231750858863 0.2809744147649761
0.8853387590238813 13.076810843883905 6593.547212660496 20.41152667486865 0.2842634801690706
0.9056109419908159 13.079234100601616 5901.061868622234 21.18075097515442 0.28760343765643265
0.9260553251104133 13.081976885687636 5285.624716920497 21.97792311062905 0.29099571350501063
0.9466859908249072 13.085073325283794 4737.975727549206 22.80410138468699 0.29444177766652563
0.9674700392878229 13.088406301689107 4251.321797402917 23.6603859459898 0.29794314873301053
0.9884236675923294 13.09193551595793 3817.175935564004 24.54792095583166 0.3015013992245393
1.009527598730989 13.095576461954865 3430.5360250092504 25.467190157918704 0.30511294624961394
1.030774156180978 13.09923024326756 3085.1328951078135 26.417486585103664 0.3087658111317687
1.052154805257713 13.102935027564076 2776.9370230427985 27.402743061884838 0.31248166405175337
1.0736526338744339 13.1064939525839 2501.370207148976 28.424318348583956 0.3162623926806562
1.095273381333504 13.110037939361922 2254.7670687561 29.48362977431481 0.32010996862856084
1.1170034191959675 13.113416729757498 2034.1610832628744 30.582156723708525 0.324026454878872
1.1388172773208896 13.116536805883456 1836.6106557689905 31.721444408585096 0.3280140136276252
1.160729153032673 13.11950133951912 1659.366088851797 32.903107945882105 0.3320749145430957
1.1827050984508045 13.12209849142633 1500.416206230665 34.12883676437637 0.3362115434633029
1.2047402583277698 13.12433944602688 1357.5767054261705 35.400399364084535 0.3404264115516564
1.2268300292448862 13.126242318958266 1229.2834002751079 36.71774790954856 0.34471075922549754
1.2489540042702032 13.12767888343572 1113.938122696466 38.08418151541872 0.34907604996037256
1.2711118879192222 13.128705729034339 1010.1599961284395 39.50243003312016 0.35352938387345645
1.2932799682977458 13.129206883413357 916.6635742471034 40.97465368133542 0.3580739069840759
1.3154441002040227 13.129165526943176 832.4112284814935 42.50312243830391 0.36271294391005315
1.3375945261551898 13.128552646449961 756.4777300078931 44.090223519988996 0.3674500106043446
1.3597154509848783 13.127311749407353 687.9415659665469 45.73846943611537 0.37228882781360323
1.3817851322838022 13.125421957258228 626.051793437546 47.450506666780406 0.37723333531392755
1.403813454954689 13.122907330097838 570.1638508278425 49.22912500597429 0.3822877069855602
1.4257652279854443 13.119623566413567 519.6132025513524 51.0772676223898 0.3874563667953269
1.447625514155949 13.115593197898251 473.86153541087623 52.99804189242132 0.3927440057632567
1.4693877201598937 13.110827774235279 432.47453132966604 54.99473106526728 0.3981555999980552
1.491029670979663 13.105238328667859 394.97288983380105 57.07080682564046 0.4036964298950647
1.5125401394768732 13.098810297860402 360.9898138598082 59.22994282578433 0.4093721006000033
1.533900904198589 13.091510573140317 330.14293443421985 61.47602926537684 0.41518856385229447
1.5550909210600543 13.083295002123549 302.1397721619466 63.81318860552576 0.4211521413331849
1.5761034676426509 13.074177543919397 276.729550346245 66.24579251151488 0.42726954965626784
1.596898455897859 13.064090808915081 253.6377637144372 68.77848012831235 0.43354792715152707
1.6174857640112252 13.05302667082738 232.6419558937099 71.41617780322326 0.4399948626087983
1.6378303429735495 13.040960915972429 213.55286381742044 74.16412038153949 0.4466184261626778
1.6579423900628336 13.027894476855405 196.1417292348417 77.02450129053236 0.45341295879224713
1.6777666804728923 13.013763486785436 180.30009536721292 80.00484709866994 0.46039487802595414
1.6973045405362932 12.998552753480332 165.86710572464267 83.11252766731297 0.46757856080813603
1.7165499470356291 12.982270708480716 152.68813646978597 86.35421953377309 0.4749742794313128
1.735467668823912 12.964846204801805 140.67393102380308 89.73704087739927 0.48259297496561127
1.7540286800955078 12.94624611719053 129.69737447735463 93.2685854957482 0.49044630535720174
1.7722371217127664 12.92649540045977 119.66267024708382 96.9546810169616 0.49853786072249656
1.7900778457261761 12.90561675949873 110.48811243529173 100.79924969040427 0.506863069494794
1.8075092778746265 12.883482899725529 102.11327988190264 104.81760676547235 0.5154599590143368
1.8245465432688361 12.860160871023066 94.43602134384446 109.01959370433829 0.524343493041448
1.8411359388336879 12.835558883106822 87.41290359686059 113.41412818407106 0.5335236919550378
1.8572729054555182 12.809694249194408 80.96588258335815 118.00313454539837 0.5429836730137417
1.8729466264696257 12.782583015746992 75.06501058988988 122.80851490131113 0.5527783981692865
1.8881439311790746 12.754187193126304 69.64767995270667 127.84315822196835 0.5629272141791429
1.9028301591524857 12.724461392062643 64.67254579365682 133.1064639819097 0.5733998101217297
1.9169809516465628 12.693376808017238 60.11072199385426 138.62554823485647 0.5842627701134552
1.9306225080506878 12.661034917997142 55.91185818805977 144.41212607939465 0.5955253097836524
1.9437014649637512 12.62731834729577 52.05494031772371 150.47487689275954 0.6071843055752415
1.9561999815469138 12.59222309913507 48.50476584201086 156.84401538384446 0.6193084245490054
1.9681150805395726 12.55576988783152 45.23756932622604 163.51911582153565 0.6318585033750788
1.9794306871517222 12.517966188127597 42.23086809212164 170.53955873556848 0.6449281835585183
1.9901395151016352 12.478820784614406 39.4581649455977 177.90696260472708 0.658480008584571
2.000182996463614 12.438172614421445 36.906601209057655 185.6617294216129 0.6726035920556882
2.009607664957885 12.39624360931849 34.550924057052335 193.81159140150822 0.6872756153535791
2.018359936951818 12.352872820147075 32.3756879344694 202.3943328071634 0.7025687065740247
2.02643701393643 12.308094224258191 30.37057381578289 211.43517059233517 0.7185093842244666
2.0338231549469614 12.261934696224877 28.5167872848333 220.95698984051694 0.7351119195885403
2.0405052921136426 12.214374505687024 26.804784681210034 231.00187679782323 0.7524483371939804
2.0464767629918064 12.16544929043106 25.22064553871567 241.60370124454263 0.7705580261841788
2.0517204419236057 12.115100137189918 23.75795822821018 252.7927759122451 0.7894626231021055
2.0562140846148327 12.063356729769247 22.404349280825805 264.6154990272718 0.8092292940269579
2.0599755703625604 12.010284312902467 21.151228423222936 277.11778299050826 0.8299161114719283
2.0629668886115993 11.955810418236261 19.99423452197413 290.3474417883412 0.8515790254970141
2.0652102955638276 11.900028473078956 18.920637001495354 304.35665794855186 0.8742790091201396
2.0666638173491267 11.842890195616066 17.92666011077391 319.2024111719108 0.8980824701078234
2.067343840292293 11.784435157426538 17.008160358829286 334.9469560995508 0.9230617145506363
