M[M_sun], R[km], Lambda[1], P_c[MeV/fm^3], rho_c[fm^-3]
0.23835315348680472 16.224115897624433 2803846.7813616297 3.45143464264431 0.16959267850507953
0.2470169168860555 15.922734277245487 2360612.5594018633 3.6088832304039844 0.17164872587321525
0.25590043126862644 15.651714529556738 1994202.4922178104 3.7714824817307178 0.17371278792250752
0.2649995216283734 15.407477489148992 1690605.082571064 3.939408871078279 0.17578600127112481
0.27430962259604774 15.187177448212287 1437840.863320616 4.112846268530617 0.17786947389128988
0.2838372170861634 14.987676190940153 1226302.5317068675 4.291986072013455 0.17996428558847533
0.2935803793960731 14.806791436288052 1048799.098178851 4.477027350644564 0.18207148857364444
0.30353299157276487 14.642587637052687 899445.9793152848 4.667239810275917 0.18417248814495404
0.3137044367452308 14.493316388164972 773312.103679958 4.863390432906937 0.18628119021352418
0.3240899096687691 14.35756218444322 666512.2595029117 5.065968402063877 0.18840443200331258
0.3346914297756416 14.233882085672638 575635.7018439464 5.275202123164102 0.19054322320307815
0.34550268772151943 14.120980917017649 498310.64980136306 5.491328480125177 0.1926985466178187
0.3565348163242043 14.018125794034333 432273.07980802987 5.714593024340671 0.19487135898953722
0.36777685007516114 13.924176111209606 375709.74942157307 5.943757856497157 0.19703575393906622
0.37923157417504977 13.838525494535165 327163.5544684743 6.1801923184770775 0.19921419079559197
0.3909043078735951 13.76024308852255 285394.69251953176 6.424420649071239 0.20141231209771251
0.4027959552986864 13.68878572626245 249396.6881492016 6.676722127528286 0.20363103003201205
0.4148948948281942 13.623660614019752 218341.72394153976 6.937385696213685 0.2058712325113126
0.4272125113632166 13.564151517234725 191416.91202880442 7.205168860065159 0.20810918748156843
0.43973943912651964 13.509955127750555 168098.45719238557 7.481093034603429 0.21035877950004533
0.45248713537786756 13.460707379116762 147818.46887478675 7.766159437589598 0.21263210530638396
0.46544657006227125 13.415797675343331 130181.59074988612 8.060695163697826 0.21493001015434735
0.47861657710036987 13.374910757408198 114820.91180191751 8.36503807293502 0.21725331691563202
0.4919991656961813 13.33787986899249 101399.27573506109 8.676991749476441 0.21956668393385842
0.5056012938489608 13.304346761832813 89653.70076515323 8.99909942586183 0.2219039250554672
0.5194167360758513 13.274015218519917 79376.49861257376 9.331938345687044 0.22426887727971248
0.5334366413901989 13.24667364759391 70357.29730948659 9.67588963492557 0.2266623252091383
0.5476715627789747 13.2221244895773 62438.270033227236 10.030070720511867 0.22906844631014048
0.5621082537637035 13.200055495185097 55474.739957054255 10.394121911896372 0.23147958207994204
0.5767599786257582 13.180345146062105 49338.58977131697 10.770340744458947 0.23392161453932467
0.591621068128955 13.162860634782325 43931.94574434216 11.15915644858474 0.23639529544084972
0.606683083114882 13.147370770615266 39155.384906943014 11.560951236686249 0.23890064242769046
0.6219524018593237 13.133738881592361 34936.49635471141 11.972566204921847 0.2413964272641219
0.637421402527568 13.121851173127906 31200.904521925073 12.39798302508561 0.24392637408632348
0.6530948007729795 13.111547732654964 27893.650661597097 12.837684692772056 0.24649121039043537
0.6689681441258848 13.102704711898753 24958.0184648053 13.292168541146536 0.24909164923072322
0.685033197344587 13.095212537106992 22353.959185553795 13.758981500381664 0.25169673840493756
0.7013019339273389 13.088979779029671 20036.96093349601 14.24027084148498 0.2543263948511234
0.7177558892798124 13.08389222119976 17978.60075354754 14.737765575994816 0.25699431395552397
0.7344009606034516 13.079855594914521 16142.88235290852 15.252025184262875 0.25970120232773736
0.751225372023732 13.076745821352059 14509.013229384787 15.781673960364516 0.262428590406317
0.7682410974283974 13.074587328199494 13049.313471186872 16.326507133204643 0.26517093231491207
0.7854364170179766 13.073168292971573 11747.099350257242 16.889734578657293 0.267955104817399
0.8028056653413692 13.072448396271453 10581.869528088262 17.471986826006372 0.27078182854631083
0.8203584191589511 13.072490511322558 9539.896382253222 18.073377983209642 0.27364698146360156
0.8380619737099794 13.072997581680548 8607.20161785494 18.690596584332955 0.2765164609741392
0.8559427465844873 13.074088746919246 7771.511221755909 19.32871151116226 0.2794316200644104
0.873984547044069 13.075668628357201 7022.26872738664 19.98843580059854 0.2823932212461556
0.8921834537459885 13.077601032607792 6349.636066107503 20.670503788236683 0.28540203597484826
0.9105355466020226 13.079866762181343 5745.317919351652 21.371921814473936 0.28842822183543043
0.9290265971623091 13.082445375139228 5202.240194662429 22.095523896591065 0.2914910838238578
0.947665106002648 13.085241721725136 4713.588871340204 22.84370525423683 0.2946047115890209
0.9664310177683075 13.088256551210732 4274.192434964096 23.61730171353032 0.29776996711062925
0.9853374155483942 13.091394542384412 3877.824507247647 24.41644345253878 0.300982201725793
1.0043645751289205 13.094688836987784 3520.8655945311557 25.23786947462339 0.3042120105610659
1.023510820160117 13.097977416807653 3198.374335718484 26.0873086158022 0.30749750155467315
1.0427599822532265 13.101303046581071 2907.8075298965423 26.965719505009968 0.3108396766020353
1.0621235101249793 13.104594998456394 2645.001756748884 27.874092958228555 0.3142395781493425
1.0815861041830348 13.107837927493966 2407.669620035255 28.81179042226283 0.3176868710032753
1.1011419943346368 13.110999246385344 2192.879010774832 29.777501818499548 0.32116748723903776
1.120771699505515 13.113984273032909 1998.4550797551876 30.776336047638175 0.32471070022862747
1.1404855289306248 13.116792829130947 1822.4415794140662 31.809442930341078 0.32831777244983085
1.160268361072315 13.119422880821597 1662.8548341040948 32.87801468310761 0.33199003142970535
1.180097994568779 13.121764601492492 1518.361902831497 33.983278336153894 0.335728812664766
1.1999945574227069 13.12389044934412 1387.0019657091527 35.12101411282953 0.33950180420138687
1.2199260093942013 13.12569734866754 1267.927386898589 36.29810955735988 0.343345990118457
1.2398946626468137 13.127135850218307 1159.701827945683 37.515967407289374 0.3472630203119136
1.2598841978142283 13.128225460616951 1061.358660642416 38.77604756365718 0.35125464006029694
1.2798988917803626 13.128961662882725 971.9264370653226 40.07987066711357 0.35532269709361053
1.2999056659978017 13.129230485705342 890.5206299356174 41.4290219459639 0.35946914892380616
1.319921361906594 13.129074543384695 816.456439219653 42.820935894150615 0.3636727439492389
1.3399202965598325 13.128445249686658 748.9055842615983 44.26097533081828 0.3679566964061511
1.3598838124392492 13.127304761584517 687.4351578628285 45.751670737938014 0.3723273327277549
1.379824051259011 13.125636477776299 631.3509486449914 47.294926639465594 0.37678712594895747
1.3997147007440311 13.123428809558916 580.1511180469032 48.89273626898541 0.3813387000145517
1.4195461192525503 13.120632635982513 533.4258607055033 50.547187410752336 0.3859848392421529
1.4393250381245595 13.117257378047317 490.7609257064428 52.26046865277614 0.390728498212188
1.4590052739571977 13.113205167731929 451.77257891348864 54.03487607802518 0.3955728121208694
1.4786071635988054 13.108542543407191 416.1032460825036 55.87155477379324 0.4005149664387265
1.4981003773677823 13.103192508950897 383.4475413611927 57.77253832270532 0.4055564039612285
1.5174906373977592 13.097166730183543 353.5693913952553 59.74253910367904 0.41071088494285674
1.5367423023255398 13.090420732450333 326.2315405936471 61.784379027723375 0.41598238355977646
1.5558614607751369 13.082973937805944 301.1807495234873 63.9010289324011 0.42137511644090225
1.5748361127802288 13.074757267634103 278.2083603232993 66.09561862316983 0.426893557026546
1.5936309959480388 13.065719379684156 257.1457032595796 68.37144761889681 0.4325424507769056
1.6122640736163165 13.055945928331122 237.81498177175516 70.73199665372212 0.43832683130730876
1.6307173816445624 13.045340444473334 220.04421252860163 73.18093999233392 0.44425203753396225
1.6489571396302831 13.03394176834059 203.75818696656046 75.72215862108506 0.4503237319212923
1.6669727631791063 13.021575359230082 188.7653709372652 78.35975438326713 0.45654791992985605
1.684775005800053 13.008457140987733 175.0013300250902 81.09806513331023 0.4629309707723214
1.7023415018908052 12.994442507727326 162.32448680283753 83.94168099176262 0.46947963959427297
1.7196550149292231 12.979533749317927 150.67061159590585 86.8954617906618 0.4762010912066195
1.7366908065400788 12.9636507695358 139.91707591930307 89.96455580743364 0.4831029255073389
1.753459949426947 12.94690344839235 130.02972878369957 93.1544198947986 0.49019320474222283
1.7699141300155385 12.929095250880211 120.90487294620051 96.47084112443471 0.497480482767367
1.7860888781370787 12.910445595377121 112.49288474949681 99.91996007342398 0.5049738364904759
1.8019362098076106 12.890771374814493 104.74660396674605 103.50372190359874 0.5126655366155898
1.8174393062166103 12.870088458922176 97.58107620037735 107.23278219064593 0.5205803807809017
1.8325944594517112 12.848403050729791 90.97180661764571 111.11462054179654 0.5287297547007004
1.8474148830428019 12.825730297403362 84.85846272842792 115.15702727073639 0.5371251228588723
1.8618476441855523 12.80200444420775 79.20843763441967 119.3682907378762 0.5457786632413094
1.8759029877177062 12.777251765898082 73.98885801677847 123.75723381031574 0.5547033161183563
1.8895492659573137 12.751417470969598 69.15887369022221 128.32868583070226 0.5638965438396086
1.9027886675951518 12.724539732624836 64.68579025149661 133.0920909255268 0.5733713971162102
1.9155991324765667 12.696544489790188 60.54782669084424 138.06233356220568 0.5831586430907143
1.927981373166814 12.667512431619368 56.708104257914364 143.25075478626056 0.5932747276603371
1.939914543891939 12.637383517346231 53.15545658879483 148.66428895471643 0.6037193352087954
1.951376315036958 12.60612212144462 49.857734364530025 154.31324069991584 0.6145025559215646
1.962374744142004 12.573770890325907 46.79868253196332 160.21812453089117 0.6256675999346475
1.9728878779143142 12.540295561313648 43.9644184771456 166.3898407763688 0.6372226486487722
1.9828977561045003 12.505694875489283 41.32790970035179 172.83617818924347 0.6491637665043068
1.9924043225827004 12.469961234906313 38.87916714002444 179.58450530337794 0.6615507261799998
2.0013955876309115 12.433131342533448 36.60265141333529 186.64209770399916 0.674373444385884
2.0098498264842553 12.39511946651218 34.489893687833316 194.03111042095622 0.6876692388124828
2.017761813179468 12.355982269071896 32.524401878040706 201.77241335885776 0.7014681885132478
2.025124627102513 12.315708893605029 30.694481888555966 209.88013275321464 0.7157754128701274
2.0319308564830454 12.274307178133695 28.99290312761786 218.38469846498873 0.7306464086587031
2.0381667583776535 12.231789094962647 27.408261774214736 227.30100252746598 0.7460824137523365
2.0438306903527725 12.188123981843765 25.93216570235373 236.66112851698838 0.7621371319712889
2.0488980595080624 12.143288726738835 24.55731835691153 246.4898029077326 0.778836346381583
2.0533588399510627 12.097319087052062 23.276265895765455 256.8127332144591 0.7962045681211569
2.057237531933504 12.050287935929207 22.082346084669474 267.66957685411916 0.8143071172547964
2.0604809827836106 12.002091206973653 20.97043443107576 279.0844942063222 0.8331536333880099
2.0626010279725118 11.956469130409898 20.03046390920499 291.7348917708841 2.057400035241236
