M[M_sun], R[km], Lambda[1], P_c[MeV/fm^3], rho_c[fm^-3]
0.23835315348680472 16.224115897624433 2803846.7813616297 3.45143464264431 0.16959267850507953
0.24903176280720504 15.858035971455664 2270265.0597246466 3.646056394107031 0.172130936277591
0.26003378313669895 15.536839275146857 1848535.6438575385 3.8484382921920357 0.17467912770369673
0.2713656609499918 15.25395787637463 1512245.8265472637 4.058456979122472 0.17722914861410613
0.2830182710183645 15.003839707383056 1242811.2626620997 4.2767395712002605 0.17979043724201782
0.2949980712771087 14.782184883656077 1025671.0471905739 4.503657923026725 0.18236563765970898
0.3072961511408277 14.585387651136656 850016.4168003559 4.739520707089187 0.18495559481955118
0.31992136758061035 14.41023085525529 706990.7907712067 4.984650660774678 0.1875611726971983
0.3328727956132791 14.254039145499041 590079.7202017315 5.239385088324353 0.19018325339656628
0.3461470787365234 14.114738291007049 494118.21937037475 5.504076387547984 0.19282273650677634
0.3597434212179503 13.990242861324168 415073.4200536644 5.77909260254929 0.1954805386791423
0.373664765719242 13.878944127054032 349713.3998145853 6.064818003646604 0.19815759339648756
0.38790872042405716 13.779445624441445 295457.655221209 6.361653695645411 0.200854850911291
0.4024782711236463 13.69066381139605 250294.90517671205 6.670018255630699 0.20357327833330785
0.41737063413596126 13.611157299227925 209913.64807475102 6.9903484014961235 0.20631385985135992
0.43258893671189586 13.540194256936442 180958.15702066902 7.323099692518203 0.20907759707787238
0.44812789426181954 13.476968850199201 154398.30662686256 7.668747263415215 0.2118655095084069
0.46399003532404126 13.420569577061844 132035.7152172458 8.027786593505866 0.2146786350919177
0.48017836639658407 13.370448177570209 113145.98050182678 8.400734312802042 0.2175180309106668
0.4966883989530341 13.325902282528661 97149.80719162208 8.788129047135842 0.22038477397171216
0.5135167718293475 13.28654975839921 83579.2650912338 9.190532304734809 0.22327996211457463
0.5306630698872117 13.251821578737049 72039.61024942105 9.608292085267095 0.22620154155751082
0.5481294889700186 13.22136660521573 62201.24076656754 10.041807834904104 0.22914818212821017
0.5659149395250642 13.194746894992388 53800.18046180008 10.492085593135124 0.23212620456214275
0.5840143335338338 13.171564613698218 46607.08708457699 10.959788272673746 0.2351368600199117
0.6024254354423623 13.151565122132881 40444.29851436855 11.445607252997048 0.23818142776751192
0.6211449000842183 13.134431849440183 35147.10476668776 11.95026362599013 0.24126121695662467
0.6401669522537697 13.11991129035502 30591.10392777896 12.474509513573564 0.24437756859709345
0.6594963589549696 13.107783394328985 26661.82356952852 13.019129463820004 0.24753185773972758
0.6791250883210533 13.09779298316743 23272.37950599362 13.584941932848833 0.25072549588843246
0.6990449616583067 13.08975947995878 20189.530607074565 14.1728008606303 0.25395993366133673
0.7192570103992811 13.083454618280419 17801.700646081197 14.78359734973279 0.25723666372113035
0.739759872310883 13.078765727577055 15599.81484338546 15.418261457003968 0.26055722399522546
0.7605369343704922 13.075443161329202 13687.607479730024 16.077764109194757 0.26392320120668483
0.7815860641732528 13.073438351604295 12025.202161640591 16.76311915460818 0.26733623473711987
0.8029062861808385 13.072450743733077 10575.244690985559 17.47538556398769 0.2707980208429977
0.824487704227785 13.07256488968683 9312.809617377347 18.21566979505014 0.27431031724704336
0.8463279945544676 13.073416404578914 8208.479150415917 18.985128336320496 0.2778749481267256
0.8684112921386644 13.075098474496697 7244.6749934898435 19.784970447238003 0.28149380952217773
0.8907314492607143 13.07738015428777 6400.3818348557825 20.61646111288673 0.28516887518642453
0.9132878816728774 13.080221080802719 5660.724025171193 21.479960630124825 0.2888943426422632
0.9360586656443453 13.083488324075383 5011.54028097495 22.377708434144232 0.29267973101867006
0.9590413917453837 13.087075357532727 4441.205141679166 23.311298957878176 0.29652843462756084
0.9822240066083074 13.090906148517922 3918.522195981979 24.28226828544835 0.3004428704717929
1.0055980915451854 13.094892427469235 3498.8930532822437 25.29222798224446 0.304425569664363
1.0291446251376968 13.098945667158825 3110.2236207001915 26.342869830369295 0.3084791864825179
1.0528603564655008 13.103028259823198 2767.2908833172437 27.43597095266088 0.3126065080762381
1.0767297683196646 13.107084547351434 2464.567380238948 28.57339935865646 0.31681046486853326
1.1007403040225727 13.110937073461676 2197.0494337187115 29.757119948432166 0.3210941416883496
1.1248754173500994 13.11461155573595 1960.3558142680172 30.989201013042653 0.32546078968077036
1.1491235263275785 13.117984705736387 1750.7774325285204 32.27182127333777 0.32991383904367133
1.173475560347342 13.121035298064603 1564.0820205532805 33.60727750228995 0.3344569126451254
1.1978949523965619 13.12370584540262 1400.3606138829261 34.99799277966149 0.3390938405816765
1.2223868917103087 13.125918340029633 1254.0411861336456 36.44652543192962 0.3438286757441886
1.2469283239517444 13.127602071801693 1123.9997356669087 37.955578714912285 0.34866571046535255
1.2715050625280102 13.128702263072668 1008.4097506792413 39.52801130157168 0.3536094943312238
1.2960934464511495 13.12925648942215 905.467882158812 41.16684864306238 0.35866485324836167
1.32067667896783 13.129060626351073 810.4465960796302 42.875295277318756 0.36383690986838124
1.3452418021315666 13.12820932043154 732.0170279244603 44.65674816642269 0.36913110548308864
1.3697627049809604 13.12652129744722 659.0316533894204 46.513378175287436 0.3745456155834362
1.394241219782828 13.12411237211191 593.7937681499435 48.448947678465274 0.3800867007061696
1.4186164138889934 13.120774369418056 535.5570734560443 50.4685304806765 0.3857664839115565
1.4429017168693874 13.116559199516018 483.41432110199315 52.57641199474612 0.391591851377979
1.467058543075927 13.111344401781064 436.7087192778479 54.77715359264537 0.39757014025037896
1.491078647651129 13.10522285842098 394.9210400931167 57.075614173409676 0.4037091720082735
1.5149305338136032 13.09800671121544 357.40098645596186 59.47697358517898 0.41001728849375674
1.5386014768526644 13.089763445339141 323.7121283219638 61.98675807484476 0.4165033908560488
1.5620581131845124 13.08038837726214 293.44889989320956 64.61046733160602 0.423175161333369
1.5852790201189628 13.069879476259494 266.30738045576675 67.3480260415518 0.43001433276791456
1.6082409560611042 13.058176749950478 241.8603880952632 70.21212809634909 0.43705939354321566
1.6309277581122124 13.045231000435681 219.86138155107622 73.20993057480953 0.44432181413392635
1.6532970275352006 13.031017779618942 200.03971052298024 76.34909847156025 0.4518138645375973
1.6753686354281945 13.015586686170241 182.15595919945804 79.63504231570221 0.4595369894822795
1.697058539393621 12.998764793051855 166.05234423937557 83.07125320698503 0.46748392692243007
1.7183839749464997 12.980622077923842 151.48317872170622 86.67421040337085 0.47569958970008197
1.7393203145157554 12.961134079765468 138.32421314802872 90.45399756255325 0.48419995719721376
1.7598190769163973 12.940197933239347 126.43232825138621 94.41178923637419 0.4929643178191467
1.7798586981769855 12.91777268947052 115.6704118953305 98.56390971555022 0.5020306034667863
1.7994451723081637 12.893968466370584 105.93048150208695 102.9265420387607 0.5114331208321149
1.8185214907524816 12.868619930730105 97.09878331996322 107.49970079112968 0.5211425243815844
1.8370747830045748 12.841754182511366 89.09123239684756 112.30688785067521 0.5312166970241357
1.85508434762143 12.813358725903091 81.82207128657932 117.36003979512994 0.5416670152186085
1.8725111084149866 12.783373898827682 75.2254423171055 122.66907704331803 0.5524954835640402
1.8893424054882353 12.751796963902134 69.229680003171 128.2598753336976 0.5637593555660358
1.9055650291598936 12.71865015904832 63.77498309468244 134.1374696326257 0.5754379270304758
1.9211281761698396 12.683810008681135 58.815464813547166 140.33354213500706 0.5876024294743467
1.936037464319736 12.647396423229143 54.292193753364174 146.8576167278648 0.6002423474713164
1.9502601500592052 12.609299115861681 50.174545382792225 153.73851055378023 0.6134111598379471
1.9637482823490162 12.569503797604465 46.41944007083856 161.00039503054697 0.6271418584748495
1.9765292190147792 12.528046956619947 42.99519752866184 168.65993712804587 0.6414379487868348
1.9885418142779296 12.484909528617134 39.8684719312177 176.75577833671343 0.6563727824673382
1.9997622363162155 12.439984425352 37.01218695635725 185.31621697079933 0.6719793642771321
2.0101986009467487 12.393406009643316 34.400757831803574 194.36336740634894 0.6882650147236727
2.019832708241198 12.34512138056066 32.01226699438373 203.9427166632437 0.7053086504739529
2.0286097671590064 12.295107717897167 29.826325590962806 214.09173969888056 0.7231557598263179
2.036540109334862 12.243364938286232 27.824649540643023 224.8514832167298 0.7418563407241846
2.043607826805778 12.189928702250082 25.99137457513484 236.26692791726182 0.7614652560491381
2.0497800163871247 12.134775334671144 24.311255185610154 248.38739346727488 0.7820426386567128
2.055037035960633 12.07787074455224 22.76969654370577 261.2669917933757 0.8036543513688162
2.059396321584683 12.019326792401 21.355863589464974 274.96513510516814 0.8263725079930052
2.062820771327141 11.959092991865809 20.05845180816849 289.5471059784258 0.8502760624105288
2.0652935563132466 11.8971666917861 18.868288201307813 305.0846978993974 0.8754514738830913
2.066820302748229 11.83362578694543 17.775221272023913 321.6569359135233 0.9019934579971208
2.0673876612154793 11.76848451570609 16.77214249081178 339.3508884647623 0.9300058341223815
