M[M_sun], R[km], Lambda[1], P_c[MeV/fm^3], rho_c[fm^-3]
0.23835315348680472 16.224115897624433 2803846.7813616297 3.45143464264431 0.16959267850507953
0.2480679028784179 15.888708689725515 2313134.7254670183 3.628207425157858 0.17189939939244916
0.25805464837210873 15.59105206638991 1916546.5320627284 3.811350593179293 0.17421341473499502
0.2683067990141732 15.326094583666453 1594820.644698233 4.001076986093308 0.17653574002378153
0.278833247771942 15.089317189232046 1332076.0405024602 4.197609293332149 0.17886738925186174
0.2896244443687161 14.877622477980744 1116738.398545512 4.401180295654481 0.1812093735896694
0.30068732196625 14.687613332400748 939338.9637307584 4.612033121631499 0.18356270038762132
0.3120141111674082 14.51704938169806 792667.438330055 4.830421519439367 0.18592837244834073
0.3236175905636371 14.363381895608859 670934.8142994477 5.056610143854254 0.1883073875183186
0.3354842788198804 14.22508882177399 569484.446006113 5.290874858182276 0.19070073795596726
0.3476201361170091 14.10037007129179 484748.5983747207 5.533503050730183 0.19310941053975939
0.3600252389352783 13.987823679650036 413624.2414320637 5.784793965331503 0.19553438638646778
0.3726994340902035 13.886252104621468 348831.47547709453 6.04505904538381 0.19797664095538178
0.3856483661334507 13.79451868882064 303355.57804247615 6.314622290826373 0.20043714411976296
0.398852809053884 13.711676890795308 260679.95040440696 6.593816670436964 0.2029167933874921
0.4123337704162436 13.63686691128308 224487.77021772965 6.881895885175887 0.20539853591737026
0.4260867666122314 13.569355147561117 193696.9807215894 7.180210432385778 0.20790060141338
0.44009857528150514 13.508527594088527 167472.78030108873 7.489135541046204 0.21042399691837896
0.4543880868830133 13.453731363293848 145057.01310168288 7.809061080522497 0.21296972449492393
0.46894301339144273 13.404521254735767 125874.10365471429 8.140392008056361 0.21553878164181137
0.4837644373756145 13.360180876876589 109411.05307161812 8.483548828932319 0.21813216174050723
0.4988563238038119 13.320557043553361 95259.9452534048 8.838968069480792 0.22075085453884566
0.5142128758083506 13.285104015374511 83070.4558471949 9.207102763323366 0.22339584668132415
0.529835188207717 13.253409214216598 72549.90610367602 9.587556241118731 0.2260565266019816
0.5457177882666459 13.225282735532145 63456.17440674218 9.980658782943504 0.2287327674428519
0.5618628885380771 13.200353758871943 55581.844561359096 10.387809913760607 0.23143791888547463
0.5782753341053501 13.178494339244425 48754.66872430921 10.809532862823684 0.2341730194806622
0.5949374973522233 13.159235776832142 42820.77129157289 11.24637037572878 0.23693910824293532
0.6118632704344958 13.142503546354783 37659.4391204171 11.698885338127322 0.23973722568619266
0.6290523122593269 13.128036030228605 33158.52795719084 12.16766142500484 0.24256841498325352
0.6464811739947508 13.115670079769686 29237.356014835455 12.652932252253187 0.24542953585548213
0.6641684603361305 13.105204993568002 25805.269326740417 13.15361124391458 0.2483031563953749
0.6821043985583929 13.096472414092688 22805.0456993565 13.672306441514166 0.2512130409131197
0.7002776670290054 13.089355784944091 20175.734804762356 14.209693512112699 0.2541603149981233
0.7186952951084423 13.08359737859244 17866.956445554315 14.766473207475267 0.25714611449023983
0.7373511176171668 13.079255654985722 15842.203419279354 15.343372280724326 0.26017158759651027
0.756234783369611 13.076004053326422 14059.438817278788 15.941144461082436 0.26323789722429847
0.7753538325528158 13.073869605064871 12490.378448890848 16.560308995031583 0.2663437163852357
0.7946929536319538 13.072705286130436 11108.828463398315 17.199275848637956 0.2694680787069649
0.8142570600836347 13.07240291921709 9887.693525647306 17.861445149118023 0.27263728923485125
0.834028757339914 13.072887375374728 8811.006198778117 18.547695241251535 0.2758526515012966
0.854013206957389 13.073977501335804 7857.211990889395 19.25893813759451 0.27911549791238555
0.8741981423756707 13.075684162818519 7014.340473351161 19.996121026554903 0.2824271935279835
0.8945729175012633 13.077835928513085 6266.595669724252 20.760227899538567 0.28578914013644446
0.915146226264085 13.080479513605066 5571.648519323972 21.552281309076818 0.28920278063279553
0.9358974372626068 13.083458239578121 5015.885702657887 22.37113898866009 0.29265205851395415
0.9568190919521519 13.086684419502442 4492.948150881503 23.219124706038077 0.29614922136946065
0.9779155367145583 13.09014589211009 4028.046051849835 24.098332414925856 0.299703520815253
0.9991615891877891 13.09375913940011 3614.4474174880843 25.009970469743784 0.3033166602423325
1.020565197432578 13.097434663036076 3246.0143124008455 25.955297732077806 0.3069904093690173
1.0421152227941364 13.101222586980258 2917.105145294283 26.935626399624386 0.3107266106114523
1.0637903512426767 13.104892550998658 2623.7838233912084 27.952325069036895 0.31452718583399736
1.0855767393084834 13.108445779187116 2362.0189538411255 29.006822051426354 0.3183941434912208
1.10749268207442 13.111935034201107 2127.7044445875836 30.10060896030017 0.32232958617457735
1.1295022634744165 13.115228874688691 1918.211149806194 31.23263326409209 0.32631859154345183
1.1516077491769037 13.11827841926743 1730.7121339343678 32.406997205613976 0.3303804478134485
1.1737934759557267 13.121086660432729 1562.7149685547358 33.62562441266495 0.3345189748363883
1.196031631978417 13.123460402418742 1412.0920966047531 34.89031912121378 0.3387367729551391
1.2183418325561244 13.125546909768033 1276.981461268865 36.20297235956242 0.34303658010431703
1.240689009791013 13.127184005686232 1155.5556330649827 37.565567648900426 0.3474212823249911
1.2630754796909465 13.128385328588287 1046.4801840419398 38.980187154812334 0.351893924860692
1.285473563146564 13.1290976872581 948.5103584494469 40.44901832280202 0.3564577238713097
1.307873534620237 13.129228402816361 860.2281761249028 41.97436103337697 0.3611160788062245
1.3302600362916077 13.128796427382555 780.7367535925564 43.55863531501203 0.3658725854832786
1.3526318452482664 13.127760467339156 709.1601441373683 45.20438965641051 0.3707310499259394
1.374959214203369 13.12607322340035 644.5346769617215 46.914309962941886 0.37569550301727495
1.3972295406038386 13.123706087758395 586.274175083736 48.6912292060006 0.3807702160361885
1.4194474615205614 13.120631242147796 533.6828949223222 50.538137818337226 0.38595971714875743
1.4415671196126087 13.116783301141043 486.0818266567314 52.45819489321892 0.3912688089355659
1.4635841243063379 13.11216611325607 443.12914533717714 54.45474025061482 0.3967025870446264
1.4854892095583185 13.106751719739547 404.23203809222423 56.53130743954464 0.4022664600689322
1.5072609091846902 13.10043937213427 369.05458464992734 58.69163775233105 0.4079661707579496
1.5288802710029519 13.093253494766696 337.1260039615968 60.9396953338133 0.4138078186834755
1.5503447372826842 13.085212512976923 308.2042196753374 63.279683476712 0.4197978844924309
1.5716044945266066 13.076148485878502 281.9748776300044 65.71606220333645 0.42594325589234977
1.5926850682039249 13.066217715530973 258.17221257183 68.2535672438093 0.43225125552974414
1.6135337807206669 13.055237420415546 236.54567890476272 70.89723053204698 0.43872967093730053
1.6341537048519177 13.043271079714954 216.89895586141517 73.65240235298958 0.4453867867431327
1.654503984084993 13.030181554002144 199.0252906790312 76.52477528816001 0.4522314193542923
1.674609077421792 13.016150441987294 182.7468882159089 79.5193860493576 0.4592686852567231
1.6943828733751938 13.000892490728946 167.9538215792091 82.63860134037282 0.4664919447869849
1.7138840281368695 12.984612570720818 154.46159487728409 85.89365361162483 0.47393033341748075
1.7330394147954906 12.967156457857516 142.1628770972546 89.29184021235518 0.48159510497843094
1.751854971345594 12.9485501391205 130.94777327169328 92.84095110571847 0.48949825685395393
1.7702885784463198 12.928676152156175 120.70313200001846 96.54930741041252 0.4976525846422177
1.7883504238976082 12.907652956685745 111.35384546439502 100.41931122685237 0.5060468496250631
1.8060240629523199 12.885450791205322 102.80499742053767 104.46280937891193 0.51470536187056
1.8232612101005916 12.861941629710724 94.99075780920563 108.69309974935807 0.5236558808363747
1.8400609980718365 12.83719110968255 87.84807472848756 113.12102222049934 0.5329148944050428
1.8564045559134237 12.811159386418966 81.31024743699865 117.74707330988544 0.5424594189724379
1.8722662303100976 12.783799749323945 75.31454258611193 122.59170849894171 0.5523385054556145
1.8876436335628701 12.755158050703354 69.81923770269621 127.67015149362206 0.5625792830296948
1.9024994694894772 12.725146154823282 64.7842967432022 132.98359763438546 0.5731569249539993
1.9168178535079137 12.693788749437926 60.16135056597129 138.55634793976313 0.5841271097347321
1.9306012093535247 12.66109106062263 55.91749415762739 144.40265182881038 0.5955070351698867
1.9438174286083791 12.627007702378625 52.02045510825579 150.53091794141906 0.6072915528228509
1.9564436581653744 12.591543240501627 48.43600642406429 156.97173643077167 0.6195494919611048
1.9684714632273215 12.554664935087592 45.14346494786561 163.72635503504517 0.6322461576558112
1.9798840577348114 12.516428043428657 42.1143613956397 170.83363535237893 0.6454720255666447
1.9906704272552498 12.47674116773193 39.32309671797286 178.2968141803071 0.6591936262431272
2.000791808706402 12.435601777047719 36.752216193554 186.15466550183174 0.6734934862779792
2.0102640129073546 12.393115895215807 34.384994700668145 194.42208050080322 0.6883702942178147
2.019065556407766 12.349210279816157 32.20077990785555 203.1290299832595 0.7038687905538686
2.0271598623878955 12.303831000763003 30.188725223414092 212.30951643590555 0.7200422881591356
2.034559167140184 12.257055386854246 28.33089385487353 221.98408510094205 0.7368949621921296
2.041235720134475 12.208839147539882 26.61536638201088 232.19338863308855 0.7544914634278219
2.0471747028487015 12.159179600863665 25.03078377679646 242.97566367067694 0.7728824854454157
2.052377186147231 12.108126188715502 23.56605527003564 254.36950479490582 0.7921133404659517
2.05682723853786 12.055685296394309 22.213385419484823 266.4139277325454 0.812223504941351
2.0604989093482446 12.001771895441646 20.963234855430645 279.15642575277695 0.8332720442437738
2.0634036897303742 11.946549467844543 19.806867757178537 292.65027575511766 0.8553280863485231
2.065529144268292 11.889911463436029 18.73643829519075 306.9502169113547 0.8784557805885078
2.066843574817577 11.831901629796393 17.74832042949854 322.1160736234306 0.9027250383281415
2.0673835330830204 11.772620104651404 16.831879802840405 338.2132694701301 0.9282120367452424
