M[M_sun], R[km], Lambda[1], P_c[MeV/fm^3], rho_c[fm^-3]
0.23835315348680472 16.224115897624433 2803846.7813616297 3.45143464264431 0.16959267850507953
0.24747051045011131 15.908000521818694 2339686.2321317447 3.617207420998147 0.17175670730155365
0.2568282993149917 15.625378737807145 1960335.9466110088 3.7886200428892467 0.17392798554047523
0.266423334010357 15.372064133136252 1648600.3347371025 3.9658624708126062 0.1761076146180426
0.2762581878097947 15.144369620678475 1390894.4549039106 4.149133055085849 0.17829667834481244
0.2863274845407993 14.93934695334186 1177633.135876665 4.338638702032218 0.18049624257231237
0.29663327913562415 14.754331376089485 999891.9405069808 4.534595055009078 0.18270735502753255
0.30717785962438454 14.587145083062936 851497.9023839353 4.737226687458176 0.18493104530322282
0.3179622166074843 14.43582452383677 727104.028584288 4.946767307008722 0.18716832496060967
0.32897917526997356 14.29873541480301 622519.3184208961 5.162946744968894 0.18941009065602116
0.34023106272564174 14.174384470643625 534290.6999450031 5.385881158611094 0.1916555741040678
0.35172779495796547 14.061503276981597 459631.3875981315 5.616366285757155 0.1939166627118499
0.36345419101541215 13.959071595030341 396306.3871087436 5.854671474843527 0.19619435906748636
0.3754240013225923 13.86600333777497 342388.5025954383 6.101076370653463 0.1984896473404829
0.3876305472515139 13.78132012096853 296410.0261034497 6.355871173216855 0.20080349376174667
0.4000698230256366 13.704519240571944 257135.8010377594 6.619356901811986 0.20313684707591192
0.41275267622266815 13.634640212338658 223458.76587108042 6.891027786435172 0.20547720430754526
0.4256692694505031 13.57136176121479 194562.20737760482 7.171046414370458 0.2078240145982497
0.4388234696343617 13.51381675586393 169683.4761442323 7.460591571250971 0.21019253126369988
0.45221327179495363 13.461620950544413 148229.42035591355 7.760007557679948 0.21258369241211927
0.46584222124886815 13.414456003101654 129692.83771139116 8.069650971693163 0.21499841989627183
0.47970325674316744 13.371802148886802 113647.386256099 8.389891007475013 0.21743761978940604
0.4938030499258886 13.333235503663463 99734.54087232654 8.719878698330037 0.21988472234933804
0.5081426367389231 13.298484825527167 87641.11008136043 9.060088513812177 0.22234309400239
0.5227082570903947 13.26730304153544 77140.58644845593 9.41193403051072 0.22482832258583235
0.5375105067014455 13.239337871131394 67972.94160842232 9.775836071943415 0.22734130904216973
0.5525434901177817 13.214331799637275 59972.24798720408 10.1522298178339 0.22988294070928758
0.5678098383995633 13.19203745041734 52985.5988576234 10.541350811249913 0.23245138627459702
0.5833069002416045 13.17235998797125 46864.207346998686 10.94123311819067 0.23501783462095485
0.5990327651773405 13.154960639926825 41502.33398837258 11.35485022331382 0.23761552234119748
0.6149804880164449 13.13971647624516 36793.73592046534 11.78269766147007 0.24024534136402192
0.631159968701575 13.126419397550466 32655.211408171297 12.225287430415193 0.24290817364502518
0.6475638138291784 13.114995796898317 29011.233346541856 12.683148391056095 0.2456048922462347
0.6641812762872117 13.105210612683281 25804.27331662876 13.154009587959669 0.24830544103368238
0.6810245566671628 13.096973101656745 22972.04206810082 13.640580833732328 0.2510359934774331
0.698077132144402 13.090134728652936 20472.43539083655 14.143966234932147 0.25380331925139404
0.7153445824704411 13.084542048676937 18263.929266959054 14.664768247457967 0.2566083178655202
0.7328215958834373 13.080140596032711 16307.378739523889 15.203608980114923 0.25945188658500096
0.7505080990183779 13.07684948348891 14573.746462870396 15.758539682021276 0.2623094621126121
0.7683935232734103 13.07457238525038 13036.960301215518 16.331480312216186 0.2651958785025858
0.7864834210714302 13.07308739573255 11672.107166418376 16.92431317177564 0.2681241178492614
0.8047618934614438 13.072446847305502 10459.087425227352 17.537749136123416 0.2710951339090898
0.823237987749451 13.072547704986558 9380.494543812529 18.172522553881265 0.2741098884281301
0.841901509872369 13.073195385242398 8419.582162822544 18.827439787201488 0.27715212899796243
0.8607366356038894 13.074438698692749 7564.268722705021 19.502911197162366 0.28022086640301463
0.8797551327079861 13.076206868091857 6800.316064523886 20.201959445449184 0.2833370953080204
0.8989450117411971 13.07836009602573 6118.515782957851 20.925428484262703 0.2865018786959793
0.9182959650010757 13.080926387731546 5509.71488826919 21.674191214318554 0.28971630227413675
0.9378155905860722 13.083720101155766 4964.591666832017 22.4489338074371 0.29297975397846127
0.9574785743270768 13.086764161230002 4477.7289700608935 23.246532210733157 0.29626197833731593
0.9772933001197621 13.090048265605946 4040.803071769282 24.072152533645845 0.2995982880176608
0.9972473250983318 13.093435460013087 3649.5901365565874 24.92680661790559 0.3029899331410459
1.017345683962593 13.096907640279559 3298.5669217945365 25.811543260649387 0.30643820664862165
1.0375549568130509 13.100412683335746 2983.336820824345 26.727450094635092 0.30994444938754606
1.0578908319534834 13.103894095936326 2700.1382907777024 27.67473841592623 0.3135036065779442
1.0783362694604237 13.107304712504348 2445.556578424378 28.651879441342917 0.31709898418163573
1.0988804431251322 13.11060285843839 2216.4808532046195 29.66369244092192 0.32075793642528466
1.1195177004808978 13.113775304352181 2010.272067814252 30.71145559519123 0.32448207574390664
1.1402379212795122 13.11677107531594 1824.5412472138476 31.796498566814325 0.3282730902831236
1.1610435483319075 13.119536987127484 1656.9809168588667 32.92020553996859 0.3321327506655078
1.1818980368393917 13.121941907689056 1505.8224886050145 34.08401850761735 0.336062917060177
1.2028214761996154 13.124140325061626 1369.4040062728443 35.287592393781146 0.34005421146858267
1.2237946851778327 13.126018362913873 1246.111676652349 36.53209278332358 0.34410696221906556
1.2447883139558935 13.12745216489436 1134.709405963087 37.821491173485185 0.3482378705285783
1.2658173448450158 13.128499318931553 1033.932785680156 39.15751572828607 0.35244924811306066
1.2868619865865092 13.129112793366073 942.7188227503673 40.54197361885106 0.35674353565561545
1.3079073048266152 13.129235576508579 860.0993569363654 41.976756164935985 0.36112331212917514
1.3289408171206745 13.12886549453177 785.2414339884989 43.46384436557987 0.36559130455288164
1.3499664504991082 13.12798121651026 714.4043976925021 45.00531484453062 0.3701503982111175
1.3709319847894768 13.126429595182723 655.7046370576385 46.60334623798777 0.3748036473682222
1.3918795192525777 13.124363170382432 599.7481666493801 48.260226054331525 0.3795542865163066
1.4127637396306039 13.121660492071282 548.948886415172 49.97647387809177 0.38439609888881887
1.4335708800263558 13.11827784632601 502.7660651707492 51.756171801740294 0.38934103666970915
1.4542976986973957 13.11424110328739 460.7714272454869 53.6025794638334 0.39439597735684634
1.4749284413342727 13.109477075746799 422.5618031425133 55.51852056238693 0.39956501827616925
1.495448552991898 13.103974114798413 387.7200201797473 57.506970777164746 0.4048525040371318
1.5158419406852663 13.097722352000744 356.01615605539484 59.57106827160478 0.41026304231282457
1.536099885917619 13.09066416126093 327.10116668982647 61.714124966335234 0.4158015205747164
1.556202589133585 13.08282408248659 300.7417691018666 63.93963864302928 0.42147312386747376
1.576150196727248 13.074152630113716 276.66645942986486 66.25130594287874 0.42728335371754733
1.5959005059968934 13.064616518816294 254.7101482604355 68.6530363300918 0.4332380482781303
1.6154652272398775 13.05417887873307 234.63227426900954 71.14896709755968 0.4393434038226786
1.634816938910872 13.042870849169383 216.27498772385528 73.74347949928406 0.44560599770959763
1.6539425048695784 13.030632965320287 199.51190682094668 76.44121610235352 0.45203281295199105
1.6728266630644233 13.017424688645102 184.1472584569782 79.24709946029482 0.45863126453865444
1.6914593567971878 13.003287976990768 170.0766462308816 82.16632292141195 0.46540910708138594
1.7098178547559562 12.988141497106797 157.1891411636519 85.20074798849863 0.47235975246817724
1.727881367345446 12.971997004662883 145.38324335875367 88.35934087170847 0.4795050067864063
1.7456601363196893 12.954830376449792 134.54487919212295 91.64832699236727 0.4868542564368657
1.7631079871693458 12.936594608995685 124.60508277818128 95.07432754566227 0.4944174780365312
1.7802359333881006 12.917343763221753 115.47895261936321 98.64438871043485 0.5022052787169217
1.7970168512180285 12.8969991152771 107.09315194058033 102.36601322344978 0.5102289396277789
1.8134270141847921 12.875587047157373 99.39008168641482 106.24719453432017 0.5185004629414058
1.8294635839749875 12.85305610384369 92.30655762129163 110.29066116008914 0.5270110633938936
1.8450967668632154 12.829376861655494 85.7888700009731 114.50786471934317 0.5357837290328691
1.8603254075770064 12.804563605311847 79.79269114766889 118.91100572557143 0.5448424281440748
1.8751408389847914 12.778643043559358 74.26678075943133 123.51039143925134 0.5542024814600155
1.8895019289453063 12.751502627572924 69.17328382867281 128.31264708251587 0.5638645672042152
1.9034133379011804 12.723226492306901 64.48163748115338 133.32586441134384 0.5738335261975875
1.916850583824954 12.693733738751527 60.15820866362901 138.56960430988576 0.5841530975457508
1.9298147092516709 12.663025651447585 56.15428926221441 144.05592599087623 0.5948382455158164
1.9422740691591311 12.631128436985112 52.46639063790228 149.78685496666293 0.6058676196881332
1.9542192563245953 12.597999458048196 49.058086349749814 155.79024935362727 0.6173073530441244
1.9656421609805481 12.56365687900055 45.90983755763796 162.07599855496736 0.629159059691085
1.9765247675993058 12.528064046347033 42.99628307365709 168.65682233457989 0.6414321649841704
1.9868342873701226 12.491203737459573 40.306465150986824 175.56086211668062 0.654185505645789
1.996603186335394 12.453152731799943 37.81217783190372 182.79020852439902 0.6673877243822853
2.005782061017928 12.413817334170268 35.504375177714294 190.38414423792315 0.6811289360687095
2.0143791631936785 12.373251175495415 33.36591749884676 198.34467673841644 0.6953720015930093
2.0223632942706065 12.331384925695923 31.383144954477388 206.7136230871947 0.7102082514144081
2.0297184598998967 12.288258569196426 29.547037597476102 215.49924693324164 0.7256146178081299
2.0364659242180005 12.243873851353312 27.845590766760555 224.74050606760576 0.7416648755928019
2.042569668506748 12.198294229816241 26.263965338315494 234.46211153131696 0.7583817204387019
2.048022071226169 12.151413324356675 24.797441657364086 244.6899580727382 0.7757869436313338
2.0528324205829716 12.103294035441968 23.435634937123694 255.46594707380464 0.7939493517606252
2.056959682472644 12.053909736206062 22.170217973545366 266.82410955006384 0.8129064182374399
2.0604069763267496 12.003283430359158 20.99652311977971 278.7944697354158 0.832676206619296
2.0631846350355194 11.951450344067965 19.905308077270046 291.4280242555461 0.853338235879991
2.065254539361591 11.898397356689477 18.891206455516052 304.7693619851208 0.8749436442680364
2.0663713159103594 11.846130592514642 17.995511823715315 319.2130425897415 1.331879794259051
