M[M_sun], R[km], Lambda[1], P_c[MeV/fm^3], rho_c[fm^-3]
0.23835315348680472 16.224115897624433 2803846.7813616297 3.45143464264431 0.16959267850507953
0.2479794677919866 15.89156723432181 2317055.975913856 3.6265628091507383 0.1718780654280825
0.2578725682469956 15.596103413191605 1923114.9493124944 3.8079460405551924 0.1741706635168856
0.2680253118479364 15.332973846215658 1602971.6910282252 3.9957933394656213 0.1764715033492674
0.2784442806087797 15.097621711772295 1340853.8238063846 4.190323326667397 0.17878161154314506
0.28913157818629853 14.886678309227579 1125580.6414371706 4.391764469505932 0.18110200955732436
0.3000776628159286 14.697502066844129 948102.6164950734 4.600355325086799 0.18343371280404341
0.3112916438044657 14.527232604500538 801087.6812821811 4.816344798243659 0.18577773001609116
0.3227686549168655 14.373980531596162 679014.8472780777 5.039992414028029 0.18813506281893203
0.3345091994837643 14.235790024292703 567816.3218077992 5.271568604317673 0.19050670546558374
0.34651122549428226 14.11113066281685 491810.22747657227 5.511355008019469 0.1928936446988535
0.3587761307213591 13.99843646882593 420143.7249664892 5.759644784256198 0.19529685971192545
0.3713049293626499 13.896774667398633 359852.73646388744 6.0167429378720305 0.1977173221841833
0.38410650365666305 13.804783848407098 308882.99735246494 6.282894208260987 0.20015473418939872
0.3971661397311318 13.721718797240642 265717.5728190644 6.55747582338099 0.20259403418683525
0.4104919648206877 13.646532251580329 229066.02928211432 6.84174110124894 0.20505261537797032
0.42407449516221374 13.578707801027203 195448.72724981737 7.136042973917198 0.20753147894211757
0.4379290490595852 13.517500485239815 171245.39384652008 7.440748106870405 0.21003161880103624
0.4520458576112329 13.4622977573247 148480.48280680308 7.756237305795805 0.21255402200104187
0.4664192130827607 13.412525179943835 127542.44873902544 8.08290593403489 0.21509966911392908
0.4810687166692689 13.36786420448526 112201.75571712975 8.421164340543626 0.21766953466238667
0.49596675621837977 13.327702704976984 97783.99079487138 8.771438298393866 0.22026458757780618
0.5111380719070551 13.291744680564824 85353.1826135417 9.132762121315935 0.2228664005929475
0.5265605277759169 13.259650281070838 74609.34824935277 9.50650156514146 0.2254896753010083
0.5422493554320217 13.231071886724225 64702.51969213796 9.893498397092598 0.22814064535586864
0.5581902806921465 13.205773648139083 57267.96920597773 10.294243330790565 0.23082032004306616
0.5743930246262506 13.183363375564745 50272.022158449196 10.709245181761453 0.23352970598738057
0.5908466402143082 13.163721664077432 44195.306159635904 11.139031416651731 0.236269808028851
0.6075579774559907 13.146536148340722 38899.17014814141 11.584148721784272 0.23904163020261954
0.6245205840641929 13.13163340113633 34283.03771742884 12.04342655869258 0.2418260210905595
0.6417307149374896 13.118847913506485 30248.96491496462 12.518411059544752 0.24463640886205126
0.6591884738210902 13.107966405411846 26722.91097417166 13.010354564373403 0.24748153071295975
0.6768882662401042 13.09883497907488 23632.09644346692 13.519887896082304 0.25036245633786575
0.6948255001374194 13.091295940254218 20925.77993203517 14.047664832228092 0.2532802610532737
0.7130115125910319 13.085258238543584 18546.62851213855 14.594362888188261 0.25623602761958736
0.7314239285930381 13.080487984205982 16454.472151917278 15.160638121620863 0.2592303841303279
0.7500663295991119 13.076952612279605 14614.72379900426 15.744373844559615 0.26223651615680266
0.7689368665661429 13.074521522111857 12994.015761637711 16.349094770929238 0.26528423518385696
0.7880297849673523 13.073008112940325 11562.931824222944 16.97558626187329 0.26837473013937685
0.8073334235739631 13.0723883912369 10300.575011164381 17.624662782216657 0.2715092086484233
0.8268497406059768 13.07260176881221 9185.575801684265 18.297169080994614 0.27468890009919344
0.846581354705646 13.073490970921853 8197.26660973598 18.993981461089607 0.27791505897003227
0.8665065488703646 13.07494476892024 7321.939463413877 19.71536374342689 0.28118342493636533
0.88663145489325 13.07693911482471 6546.356687685898 20.460246236345082 0.2844788433454308
0.9069388687260156 13.07935441113461 5858.0241563921845 21.232187487036956 0.2878253544580461
0.9274280584348459 13.082222257362899 5246.986689089008 22.032213209918005 0.2912243999340597
0.9481003154498466 13.085328264431338 4703.135115596859 22.86138942521211 0.29467746587732224
0.9689327596700358 13.088668278031735 4219.040694548786 23.72082449060319 0.29818608784583694
0.9899226826851664 13.092165731988949 3788.180301116999 24.611671301696504 0.30175185618691
1.011070558137742 13.095816301435558 3403.751086411321 25.535129676054932 0.3053764217048165
1.032352029290573 13.099489589220957 3061.0501168709616 26.490148644788444 0.3090449272290198
1.0537751887890152 13.103202319178635 2754.9375708061475 27.479322112208123 0.3127693873050291
1.0753202842021525 13.106785182365208 2481.474473556632 28.50501854511566 0.31655907388273374
1.0969773412576096 13.110289004209555 2225.4343468914094 29.56866732479363 0.3204159820585562
1.1187408996370283 13.113659761957322 2017.6804728287088 30.671760678150168 0.3243421995622174
1.1406013952601002 13.11679899567268 1821.3537736877274 31.815857504898503 0.3283399146810142
1.1625453244523654 13.119691677497554 1645.5512529422374 33.00258751532353 0.33241142461150736
1.1845701529172536 13.122279520354523 1487.6227785629897 34.23365570155335 0.33655914425678884
1.2066371349936922 13.124506710077213 1346.0226186548725 35.510847166637944 0.3407856154901888
1.2287658243202406 13.126370776491624 1218.647227280737 36.836032337275014 0.3450935169093645
1.2509287582020163 13.127815974675073 1104.2608240946977 38.20952308599262 0.3494759836832134
1.2731161902560346 13.12875596540632 1001.2700179793018 39.634474164292676 0.35394289408753243
1.2953225824953332 13.129249682585694 908.5191432609311 41.113771840850504 0.3585016567852208
1.317516689544302 13.129117346469426 824.9490931261133 42.64970937458086 0.3631556380269775
1.3396974749173536 13.128454486629526 749.6586636360753 44.244698872277866 0.367908397940641
1.3618320503646424 13.127102316619126 681.6741347262314 45.90127946691168 0.37276370418133337
1.3839532035954685 13.125255143245159 620.3579025100657 47.62212612687407 0.3777255463748624
1.4060023298471689 13.12258163035302 564.8655621848818 49.41005914347464 0.38279815141755347
1.427973466866294 13.119236136023247 514.7948695645282 51.26805434813688 0.3879859997028626
1.449861891704842 13.115145345082766 469.44052018179156 53.19925411536456 0.39329384235291454
1.4716413058629918 13.110286379165808 428.42276259297324 55.206979212686 0.3987267195415222
1.4933069059730533 13.104555960740237 391.2094049889653 57.294741564506644 0.4042899800043963
1.5148249907394589 13.0980283635568 357.5309657460966 59.46625800314166 0.40998930184212706
1.53620240535774 13.090631904340553 326.9545178115056 61.72546508734299 0.4158307147322623
1.5574047372435396 13.082311046558027 299.2296708542716 64.07653507645084 0.4218206236784844
1.5784188387115328 13.073069916644211 274.05212398329104 66.52389315694379 0.4279658344375602
1.5992389617702905 13.06289373742123 251.16068573973482 69.07223602775375 0.4342735807786
1.6198308262621677 13.051714385176467 230.36388095685214 71.72653082174394 0.4407514618913127
1.6401803079535215 13.039518060928726 211.44059514632474 74.48807380511396 0.44739051586528394
1.6602808216429152 13.026306851884312 194.2089323605107 77.36589140457197 0.4542144882896146
1.6801022721683327 13.012032948331367 178.53011695817943 80.36594517479415 0.46123256838832283
1.6996442193291752 12.996672412264434 164.2208208120927 83.49458404321014 0.46845453784387736
1.7188692372881804 12.980216724396819 151.16830749008142 86.75857377733158 0.4758908127231596
1.7377688458766525 12.962623427607856 139.27170199520796 90.16512890855472 0.48355248880218393
1.756313418289693 12.943850410691024 128.39905671294431 93.72187877491041 0.49145112164301336
1.7745225521994463 12.923978384531575 118.46342856674151 97.42851361278025 0.4995662884173948
1.7923250974539706 12.902853911295818 109.3834608256482 101.3014933534853 0.5079420370029025
1.809732186873106 12.880512079858706 101.0860309860331 105.35015036585474 0.5165925938504639
1.8267354304260357 12.856998628110338 93.47959506895164 109.58446765656612 0.5255331451558443
1.8432932973703942 12.83219928234488 86.52330622488279 114.00627738598942 0.5347472765284568
1.859389635036856 12.806141683766324 80.15031385905358 118.63180078663751 0.5442707902024906
1.8750339823367943 12.778825299437472 74.30793535990331 123.47620720178185 0.5541331228210595
1.890174501906612 12.750175805474342 68.94018965112743 128.54558524932983 0.5643289786871354
1.9048112519171938 12.720236073293638 64.01217006563186 133.852296951558 0.574874190776661
1.9189297791442406 12.688972106002314 59.50013865753858 139.418748653736 0.5858177615926584
1.9324992706306494 12.656369429119978 55.35027091925392 145.24749898264037 0.5971366369299362
1.94551130779427 12.622423804837243 51.529445143434884 151.36416675774603 0.6088861632782644
1.9579566417228353 12.58707745102924 48.01801791356424 157.78241617500296 0.6210772902569982
1.9698051978034454 12.550395080980557 44.785287346839695 164.5188231556778 0.633728520255557
1.9810501056531264 12.51231255574423 41.808304879241085 171.59707342461513 0.6468794439413034
1.9916704520387583 12.47287302903398 39.068082297288754 179.0338131235051 0.6605426921265235
2.0016503987479193 12.43202319046233 36.53865201640329 186.85440998651464 0.6747567303353483
2.010978686028779 12.389745882467023 34.211848182948124 195.0851702862867 0.6895592923081945
2.019646537859525 12.346143146078415 32.058275599558336 203.7444792058142 0.7049578592214555
2.027616456302703 12.301064028392846 30.073959616913125 212.87149385495871 0.7210240398892177
2.0349116380756325 12.254615761984754 28.239561325776148 222.4895218350009 0.7377724029368887
2.041498084755126 12.206776026180352 26.54725751338104 232.63075579719123 0.7552414319135315
2.047348128667109 12.157508285959125 24.98088736801395 243.33666846096602 0.773494120948075
2.0524957343803374 12.106921926968871 23.533264205062526 254.6448439050556 0.7925744005015134
2.0568793137422854 12.054888788213319 22.194089041054472 266.59423631979104 0.8125237014063577
2.060515054639538 12.001470686299303 20.95722288866227 279.2283086928858 0.8333903750857008
2.0633890789950877 11.946727900081385 19.81142430769749 292.60066027714964 0.8552473113344481
2.0654941962748534 11.890613571490618 18.75048534866234 306.7644736665144 0.8781566522106233
2.066835707238173 11.833198714808015 17.76790278548772 321.7778345143185 0.9021860952745241
2.067383459276329 11.77445803479814 16.8591443848868 337.7042216810097 0.9274093703048337
