M[M_sun], R[km], Lambda[1], P_c[MeV/fm^3], rho_c[fm^-3]
0.23835315348680472 16.224115897624433 2803846.7813616297 3.45143464264431 0.16959267850507953
0.24846645413249843 15.875906848813969 2295286.3215099126 3.6355827487794032 0.17199507211523266
0.25887097452027336 15.568520294142406 1888213.0892559055 3.8266447983565333 0.17440546519610825
0.26957027538046235 15.295935210715664 1560178.5343064875 4.024852866596969 0.17682479862380174
0.2805563052400255 15.053572224483284 1294450.7351010926 4.230449989551767 0.17925402287290304
0.2918383275346949 14.837535542313184 1078015.5132241503 4.4436904723320225 0.1816940962164253
0.303410825784243 14.644584696112451 901187.5153003884 4.664840214596716 0.18414598331186852
0.31526984468466307 14.47188361427225 755958.5663260474 4.894177054110534 0.1866106541159754
0.3274287362558337 14.317029217316907 636058.4392704016 5.13199112895988 0.18908908307683536
0.33987103608496727 14.17821620239723 536883.8499192782 5.3785852588309595 0.19158224855816666
0.3526022267381905 14.053395034805996 454458.70356465 5.6342753456105195 0.194091132456629
0.3656336985393322 13.94127139385768 385740.6623831309 5.899390793463179 0.19661671997887026
0.3789521704105572 13.840487395437487 328244.4956274878 6.174274948468923 0.19915999955060523
0.39255968470909947 13.749819650811096 280025.1879342484 6.459285557870657 0.20172196283529006
0.40646066745006637 13.668296901712141 239449.38396119047 6.754795248982199 0.20430360484489377
0.4206487156645842 13.5950170257278 205221.1548210124 7.0611920278429405 0.20690592412983613
0.43512613793487226 13.529272143199126 176254.76991995433 7.378879797777089 0.20952992303934292
0.44990629165781426 13.470237332615923 151683.7090755783 7.708278898122333 0.21217660804727528
0.46496836195526575 13.41733467221597 130784.43806600975 8.049826663536935 0.21484699014191522
0.4803186720400589 13.370035362184748 112996.6368979515 8.403978004475741 0.21754208528123367
0.4959574112168154 13.327729891043276 97795.67360880443 8.771206009645402 0.2202629149178522
0.5118899143695541 13.290106575151372 84789.85736270851 9.15115649236867 0.22299885439470157
0.5281073021816269 13.256682233663073 73631.01837175459 9.544716206980628 0.22575692724152355
0.5446097045608915 13.22711381004199 64044.277834728324 9.95277649122254 0.22854334973201323
0.5613966659989136 13.20105418204248 55794.27819527936 10.37588860187655 0.2313592306595517
0.5784688267551756 13.178274662011876 48680.42582742284 10.814625699722322 0.2342056884053125
0.5958169068799294 13.158318617795423 42534.276974208675 11.26958365037225 0.237083852050981
0.6134529033113107 13.141102783385545 37215.49250215721 11.741381862631075 0.23999486262420364
0.6313534152580618 13.12630227054727 32606.22266818858 12.230664168082214 0.2429398744922631
0.6495418754232188 13.113720723757849 28605.005278459077 12.738099746172617 0.24592005691982516
0.6679909690463188 13.103195994478321 25128.236025948725 13.264384099672053 0.24893659580672367
0.6867083360056591 13.094534835532363 22101.524607482315 13.808685785828857 0.25197411737090003
0.7056867757271382 13.08751405631 19463.469961157723 14.372846764561242 0.2550464770253313
0.7249344699971798 13.081988142336424 17157.24143444757 14.958011050365716 0.2581589304374174
0.744428635666428 13.077899884912119 15144.304846514793 15.564993796130606 0.2613128115667132
0.7641750891814135 13.074996155177965 13382.214165125939 16.194642958213343 0.2645094824758572
0.7841679933578134 13.073252181722983 11836.942269430352 16.847840740625465 0.26775033637705553
0.8043977550503167 13.072466544279536 10481.47188814692 17.52550514119779 0.2710368009632853
0.8248628368583469 13.072515354779506 9291.486473727351 18.22859161036931 0.2743703420391847
0.8455629030336825 13.073400089407869 8244.74802900875 18.958094834135903 0.2777524674661185
0.8664797713600991 13.074900781244656 7323.176095767286 19.714379232263905 0.28117896441264945
0.8876145239973632 13.077071017241877 6510.7429227045395 20.497559334492294 0.28464378463581386
0.9089474859540193 13.079650097359995 5795.092032014247 21.31034994106474 0.28816257720448185
0.9304888357433783 13.082613115126613 5161.493685493722 22.153932999116492 0.29173712074873814
0.9522254749252435 13.08598189735481 4576.134770936845 23.0295417398718 0.29536925979836015
0.9741344227661929 13.089509143674041 4107.102310112411 23.938463508691264 0.2990609108633159
0.9962213414912143 13.093222318895165 3668.725022350729 24.882042824709064 0.3028140689395879
1.018471173503258 13.097110408693768 3279.8697686731903 25.86168468997498 0.3066308144569423
1.0408765773908113 13.100977667144445 2934.9672750965715 26.878858169299637 0.3105133206862993
1.0634208088240047 13.104796752704688 2628.423505135051 27.935100263354798 0.3144638616256938
1.0860996892898094 13.1085470892403 2355.914506251545 29.03202009902864 0.31848482038551684
1.1088994835980899 13.11217660386928 2113.7055536817015 30.171303462594047 0.32257869809581047
1.1318129981347471 13.115575547380471 1897.6769036679511 31.354717702932685 0.32674812336086334
1.1548191305063726 13.118709889322163 1705.248824986599 32.58275727664034 0.33098714746135616
1.1779108846757844 13.121535875433766 1533.594582409542 33.858632242228325 0.33530717166018936
1.2010749491460742 13.123970421874427 1380.2452643081517 35.184628147684656 0.33971276120579863
1.2242988832534327 13.126047040725354 1243.2999926771085 36.56291673240765 0.34420720942775734
1.2475652522618088 13.127634494512275 1120.8302038625852 37.99578336193515 0.3487939934770121
1.2708574853886347 13.128720421971789 1011.2956748279497 39.48563485381893 0.35347678798656146
1.2941664736004888 13.129229181927347 909.2564980942018 41.03500793222932 0.3582594795858706
1.31747017623922 13.129139633257044 825.1890958132726 42.64657836074237 0.3631461823316644
1.3407619465353873 13.128424689560848 746.2541055049212 44.32317080697919 0.3681412541250665
1.3640182318770193 13.127031300150895 675.3769366132963 46.06776949745933 0.373249314193094
1.3872235341964763 13.1249009900023 611.7997018933451 47.88352972626494 0.37847526172135126
1.4103556731419464 13.122030815218357 554.6206521493635 49.773790286949094 0.3838242957344529
1.433409293728923 13.118335742809435 503.12184787853204 51.742086903617334 0.3893019363312763
1.4563623007124542 13.113792939075305 456.8263697953355 53.79216674435716 0.39491404739375013
1.479186641693467 13.108358467412781 415.0495655611869 55.92800410824597 0.40066686090053333
1.5018755364968521 13.102056970871615 377.45547460364077 58.15126708825354 0.40655484606520015
1.524411678709626 13.09482387455893 343.4720435767375 60.46822782224667 0.41259406648444347
1.5467730155901447 13.086599198767868 312.8433379403473 62.88384602309973 0.4187930851935506
1.5689400567438037 13.077382617239792 285.1418104592077 65.403149899494 0.4251598126367305
1.590875801350765 13.067101477878314 260.13329517128074 68.03149277790364 0.4317026737243364
1.6125976062286247 13.055794429795787 237.48508670811407 70.7745781596075 0.43843064487296046
1.634044949437884 13.043285160598376 216.98009407651722 73.63848688806127 0.4453532940104346
1.6552321913848558 13.029756897789662 198.4123150378991 76.62970662380185 0.45248082383160193
1.6761185104454617 13.015018563605496 181.5813200072436 79.75057813878148 0.45980501429853066
1.6966851499627256 12.999104260255246 166.30992158766108 83.00946563645208 0.46734226067552076
1.716900275475756 12.981903097016172 152.45718653670878 86.41700381148151 0.4751165899959749
1.7367026503095067 12.963609783630629 139.90128867816347 89.9949946236158 0.5204406704346257
1.753310948893591 12.943527847725882 129.75794790984693 93.92080311041023 0.7091828848614252
1.7657539600036078 12.91918436768085 121.79349799470964 98.30635607805452 0.8879217708826239
1.7746834845343902 12.889620712852388 115.32966653516377 103.1516721652935 1.0576276413338925
1.7806952156280225 12.854721873207287 109.89540680937759 108.4605576070446 1.219079584548899
1.7842782674160804 12.814477295407322 105.20334959067823 114.23891480098125 1.3728491377175125
1.7858245236946484 12.769064403881863 101.04139424331866 120.49271154030168 1.519639098293402
