M[M_sun], R[km], Lambda[1], P_c[MeV/fm^3], rho_c[fm^-3]
0.23835315348680472 16.224115897624433 2803846.7813616297 3.45143464264431 0.16959267850507953
0.24620275910384948 15.94938517638851 2398202.259752564 3.5938848670474264 0.1714541670533926
0.25422578210780816 15.700063159975075 2057480.3460362416 3.740742405727898 0.1733267825235619
0.2624326250093109 15.47333605413186 1769950.5552240058 3.8921655251378784 0.17521163367049272
0.2708100561806634 15.266783552715488 1526887.269777752 4.048318284443898 0.1771097857294098
0.2793707982898841 15.078151509166878 1293469.0711801306 4.207812689406664 0.17898751386629824
0.28810163138949274 14.905880713305816 1144369.3481869965 4.372236725417237 0.18087934430045918
0.2970145173883011 14.747908691426307 994034.8080324751 4.541797607329342 0.18278691111637413
0.3061013538921621 14.603307498002284 865397.9046613865 4.716681197649596 0.18471117715967622
0.3153592108589007 14.470775745228295 754988.0528403132 4.895897768060259 0.18662906838524937
0.32480323875136347 14.348769921987524 659824.0258700651 5.079946593144832 0.18854938486999073
0.3344146865103176 14.236946549873165 577883.8440346217 5.269784357152621 0.19048877335284334
0.34420888552939777 14.133902813536102 506859.9119584491 5.465620230919586 0.1924480973081206
0.3541786427402335 14.039103699265286 445410.9675204009 5.666336593745651 0.19440347256969112
0.36432284539762805 13.951876265822385 392004.75152178307 5.872367649960104 0.19636149427618255
0.3746431856655956 13.871770342321602 345625.1548042666 6.0849270373324265 0.19834175182656935
0.3851351392944937 13.797812802304263 305167.0628965954 6.304248994442815 0.20034501426809007
0.39581482493425013 13.72981441577189 269809.4936280716 6.528479379597941 0.2023365038930891
0.406664530205707 13.667172049565403 238914.88468444624 6.759177729577623 0.20434135850468776
0.41768960563874186 13.609552849823864 211840.88997865343 6.997238583930027 0.2063714434492312
0.4288927905822626 13.556571620817072 188067.12097026806 7.242563696973896 0.20842170885116518
0.4402750327747917 13.507794795009422 167165.5110725714 7.492957208318096 0.21045498716687625
0.45182895688647146 13.463038686010469 148794.04694095172 7.751368332852382 0.21251570508397757
0.4635621113597422 13.42195939465023 132578.7377608236 8.018079267963824 0.21460448481586736
0.4754643279113554 13.384264602920009 118281.87957408653 8.291298349851218 0.21669149325670195
0.4875480779799179 13.349763287310646 105642.88612616087 8.571828798861787 0.21878682294876434
0.49980714618418054 13.318142029728055 93473.8173183432 8.861395770937696 0.22091235146168448
0.5122424715127609 13.28930076474549 84523.71739819196 9.159727926102255 0.2230605753951773
0.5248501135980644 13.263040820263534 75718.58964321348 9.464319157156627 0.22519467501193066
0.5376291086086618 13.239138819331753 67906.9297382222 9.778748996462971 0.22736109792824347
0.5505821160591783 13.217417447189778 60954.94018899685 10.103354229582287 0.22956033080126204
0.563706486989998 13.197847807971891 54765.17833671526 10.435100923913602 0.23175006957218047
0.5770003893123977 13.18002623470292 49247.196225812106 10.776594662286271 0.23396173142787546
0.5904704901388343 13.16412451903372 44323.43763622874 11.129161941551413 0.236208268007834
0.6041064547263413 13.14986730499817 39927.5167135708 11.491058907340769 0.23846483653394965
0.6179097008299267 13.137163024102003 35999.01624675643 11.862031061558714 0.2407263033843169
0.6318836077027916 13.125888318929487 32216.155694551235 12.245053026219171 0.24302471013461277
0.6460224113714351 13.115985741947727 29095.61822976751 12.639770604473515 0.24535193575454703
0.6603245224064063 13.10735238973395 26511.73293758246 13.042871083733308 0.2476680239884874
0.674785461679334 13.099829236435776 23975.147600967583 13.45908257459155 0.25002312710199853
0.689415335247543 13.093398905805287 21699.517312699747 13.888833149424896 0.252417571502772
0.70420281536971 13.087962446956503 19653.827029345674 14.327724669018211 0.2548013977084424
0.7191441448720813 13.083529885111687 17815.224558051308 14.780128752556177 0.25721832243419823
0.734241361282633 13.079862004504909 16159.498178482314 15.24725731217122 0.2596766505151217
0.7494960766724938 13.077021997042316 14667.812710175916 15.726093617404716 0.26214238344874097
0.7648990127242892 13.074909441324293 13321.02019961859 16.21799162086206 0.26462660275626815
0.7804448368025526 13.07347844948758 12107.795774863702 16.72590379680405 0.26715433374326525
0.7961520722295854 13.072625403487484 11010.95115796432 17.2484810812565 0.26970858373618606
0.811992402888455 13.072379623701517 10021.332451868451 17.783507483485934 0.2722659779387373
0.8279750775721378 13.072620916184608 9124.919545838055 18.33595312143556 0.2748690608512526
0.8440932771127256 13.073328247275354 8314.34812824491 18.906360482286157 0.2775180746912805
0.8603444053640167 13.074397083390052 7580.3938997706555 19.48868176227243 0.28015639711696044
0.8767379279702835 13.07591601483844 6915.483468247342 20.089797745968678 0.2828412883029069
0.8932472185594881 13.077708478860258 6312.402298653464 20.71045093244182 0.2855743832462931
0.9098921316836556 13.079786074441044 5764.956600274651 21.34684399932975 0.2883200265413763
0.926652015081439 13.082091345912904 5268.605026320426 22.001204678924896 0.2910937825596996
0.9435269710162497 13.084566542912635 4817.596768403197 22.67682710128271 0.29391815968516316
0.9605150412485627 13.087291385092527 4407.175133415773 23.37282930034459 0.29678157605450933
0.97761100612147 13.090114817455792 4034.3177435982457 24.085506104129994 0.29965196410445666
0.9948161133242657 13.093018995577552 3694.839093348762 24.821338144560148 0.3025755775308665
1.0121125707476002 13.095986450973708 3386.279402051009 25.581026296155127 0.3055527239667528
1.029517114756648 13.09901506953605 3104.2652877276773 26.359823481482536 0.3085443103856031
1.046997874739471 13.102030900884083 2847.801865576912 27.161697200132938 0.31157600513800193
1.0645777737237472 13.105017176875185 2613.7415715473808 27.989576437919553 0.3146641344583393
1.0822272497318817 13.10792856992659 2400.383707056569 28.84333162957003 0.3178028271434218
1.099945548621913 13.110772137598781 2205.1612391709996 29.717759596682434 0.32095250077587106
1.1177472165380196 13.11351243487879 2027.0551280799177 30.620574079994928 0.3241618292166588
1.1356101908696534 13.116085363779225 1864.1861515426906 31.552635385403065 0.3274313080430741
1.1535248406848129 13.11853198193322 1715.3898993050543 32.511851616876264 0.3307423908533148
1.1714968464412192 13.120776564955927 1579.1560050090736 33.49716861608285 0.33408444673038196
1.1895122042801827 13.12284890565722 1454.5644052646214 34.51447128622608 0.3374903855256318
1.2075695684418826 13.124609568674115 1340.4113485470998 35.56473871274403 0.3409608843064746
1.225650848816141 13.126142516262151 1235.7869244789817 36.64550301065086 0.34447580070551814
1.2437615172629675 13.127400018884952 1139.9201956655627 37.756899364031085 0.3480317741576638
1.2618934670760749 13.128372616956025 1052.0085185545838 38.904438767866836 0.35165671074580773
1.2800446058473363 13.12899920631878 971.2883584099857 40.089248521629806 0.3553515313983373
1.2981765696217504 13.12920271045747 897.2196235809739 41.31071550630847 0.3591072039979645
1.3163360849227905 13.129167057498655 829.2218716756462 42.565956764580044 0.3629027042481149
1.3344650394064574 13.128684024626912 766.7501964100458 43.86219086994515 0.366773350687449
1.3525799697636542 13.12776661341587 709.2666251798238 45.20073157380005 0.37072038020875786
1.370664285133065 13.126442889693344 656.47208087189 46.582943247035374 0.374745130823435
1.3887366264220924 13.124718792579872 607.8134700260467 48.005832059766206 0.3788260294099025
1.4067448245078642 13.12249255460014 563.1432423063286 49.47257653637308 0.38297452308267216
1.424723016978448 13.119794217408858 521.8819232286178 50.987577719945605 0.38720738341547123
1.4426218601090972 13.116576992261066 483.93557449103025 52.55244991637028 0.3915263721180088
1.460479728705321 13.11288835127008 448.9584705442963 54.168876455459134 0.3959333817433383
1.4782494683617955 13.108643236403564 416.68837556778396 55.83671189110332 0.40042121084416915
1.4959350844499155 13.103843171958868 386.96753210607426 57.555320640275134 0.40498065774245073
1.5135214700439368 13.098471588167978 359.4892958305181 59.33121543465992 0.40963660151226
1.531013493784109 13.092527136769732 334.13868596460435 61.1664160085953 0.4143914913880236
1.548397191577121 13.08596242990503 310.7291818227873 63.063036168248956 0.4192479439507731
1.5656471711519444 13.078769411130658 289.0995223229933 65.02328979147913 0.4242087511538529
1.5827871563970213 13.071030250362966 269.0910643597984 67.04949720240579 0.4292768887358998
1.5997867080862658 13.062620055056692 250.60145334830943 69.14180302370114 0.43444542938838043
1.6166295391810501 13.053521782064145 233.48145014687208 71.30286491953575 0.4397186061860795
1.633322539123424 13.043792272442875 217.65701075925824 73.53787146599002 0.4451111256420692
1.6498459900576188 13.033354238038855 202.98396795286664 75.84965477660214 0.45062676925357464
1.666194270522849 13.022192869434425 189.39979448257742 78.24119189136849 0.45626955412302683
1.682348206651887 13.01035628766031 176.8247246218978 80.7156139976326 0.46204374469271225
1.6983216157116565 12.997777723676647 165.15464973951995 83.27621624293828 0.4679538651933181
1.7140705239186087 12.984436847370645 154.32595673273477 85.92646818235535 0.47400471286820073
1.7296089769558687 12.970346376951783 144.29211777370537 88.67002490662989 0.48020137203984425
1.7449252979396506 12.955518580705224 134.97930096154528 91.510738901669 0.4865492290899253
1.7600121380727005 12.939952268954327 126.32427125050329 94.4526726944009 0.49305398842976744
1.7748589090071152 12.923587878030158 118.28285196093367 97.50011234495963 0.49972168954374757
1.7894457400055621 12.906399739335095 110.8213751757793 100.65758185047297 0.5065587251944755
1.803757215777597 12.888411220615726 103.87619032119395 103.92985853155238 0.5135718608854212
1.8178023254884006 12.86961937839959 97.42072586886114 107.3219894788826 0.520768255684058
1.831555061000809 12.849953388325373 91.41306351295776 110.83930914420067 0.5281554845167353
1.8450319419320786 12.82951566479383 85.82059982202537 114.48745816744938 0.5357415620553353
1.8581868888892252 12.80816442238536 80.61803343153885 118.27240354008251 0.5435349683254989
1.8710288821796308 12.78598950447695 75.76732820684417 122.20046021343241 0.5515446761768138
1.883553645518529 12.762961716532443 71.25192428223842 126.27831427083763 0.5597801807670427
1.8957423775779274 12.739087468913606 67.04097944043201 130.5130477929204 0.5682515312252455
1.9075864688528519 12.714266913809738 63.111272888834634 134.91216555712586 0.576969364672708
1.9190824649637546 12.688596555253042 59.4522144247457 139.48362372548246 0.5859449427960179
1.9302091744111851 12.662023089663089 56.03348300551748 144.2326968576479 0.5951792138369035
1.9409791347805547 12.634583507187367 52.84518931623848 149.16762204081223 0.6046825771431578
1.9513570632516142 12.606197862528829 49.86383485017749 154.3010233508945 0.6144793555257548
1.9613526216942438 12.57691984168459 47.08161046276934 159.64296336632728 0.6245836574119217
1.9709433583191156 12.546709427408965 44.481678220781546 165.2041337723789 0.6350104378506717
1.9797700469329105 12.516315515962354 42.127429283110914 171.13848008801634 1.0201092391172224
