M[M_sun], R[km], Lambda[1], P_c[MeV/fm^3], rho_c[fm^-3]
0.23835315348680472 16.224115897624433 2803846.7813616297 3.45143464264431 0.16959267850507953
0.24845727549468224 15.876391619374795 2295837.4945285283 3.635445286530569 0.1719932889544792
0.2588543495848089 15.568976264479183 1888761.2861739376 3.8263593478514197 0.1744018807730868
0.2695464619383744 15.296502348839576 1560657.3309355832 4.024408511289005 0.17681939631185742
0.28052561805979515 15.054172709949746 1295055.5598302581 4.229835400476186 0.17924678731376156
0.29179842729715705 14.83823133147909 1078719.8375218487 4.442893884837585 0.18168501312120144
0.30335974766418483 14.645352115650269 901861.8214004163 4.6638494036442415 0.1841350392686106
0.3152122080200299 14.472699689677832 756518.2150486655 4.89297930808051 0.1865978364027685
0.32735639090311536 14.317881443221557 636662.1347215745 5.130573221897439 0.1890743794794819
0.3397903610323158 14.1790024385866 537461.9815049903 5.376933421043363 0.19156564719148597
0.3525083232169263 14.054250551646744 454999.4334465282 5.632375232518593 0.19407262158844754
0.3655283040048507 13.942128235088024 386269.5924935216 5.897227452595172 0.19659628785582256
0.3788330369660892 13.841468772180605 328729.3656922329 6.171832784472431 0.19913763422492012
0.39243075236417385 13.750638287966698 280432.8089012949 6.456548295404689 0.20169765199178816
0.4063152441205231 13.66913832181739 239832.55305261095 6.751745893338883 0.20427733562748554
0.4204931293335637 13.595814988984849 205555.99690413172 7.057812823135019 0.2068776829668637
0.4349607088614815 13.529946134801014 176562.86751793118 7.375152182513997 0.20949969546716382
0.44972017925170216 13.470875657225756 151965.52555640347 7.704183457983948 0.21214437853153392
0.4647712228749319 13.417959204135657 131040.82563472165 8.045302238747311 0.21481175740440295
0.4800979254523012 13.370566485023264 113221.74028012293 8.39958889341359 0.21856792232670588
0.4953946633280225 13.328728081922902 98272.07371727952 8.767598455160252 0.2369515788012825
0.5104927864284499 13.291129175223253 85731.11927477509 9.153969150049653 0.25454936951212676
0.5254345269102706 13.256749059122685 75119.37650035278 9.559656605318585 0.271943867132142
0.5402920466160824 13.224867282066064 66027.9087278871 9.986119955145098 0.2891595878088682
0.5551035563543965 13.19482662688506 58199.27074561075 10.428726924794665 0.3053848991484272
0.5699300544036832 13.166363990759512 51398.862835007116 10.894988761646598 0.3217464767724411
0.5848116211136052 13.139140561359254 45069.96156647591 11.37957796976413 0.33734336793488107
0.5997812407309746 13.113104254688938 40275.79238102315 11.884666031751635 0.35250924607430456
0.6148706814480985 13.088006084797408 35713.905044327614 12.414293393432255 0.36760265510776735
0.6301220809123109 13.063827660706615 31692.444408186588 12.963471515533344 0.3820330171427327
0.6455510912147843 13.040498839852509 28139.019889658222 13.53447790049453 0.3960575748095462
0.6611732274613276 13.018060605599066 25000.693826928768 14.13100244639146 0.4099382435491101
0.6770343745040872 12.996383315283085 22217.20833228068 14.75322532510049 0.42360948824670114
0.6931323213162628 12.975501437317947 19749.521206055113 15.394724265488538 0.43660845384558594
0.7094859181309524 12.955456379981431 17561.054667189957 16.063152341038972 0.44946530534088214
0.7261057362044063 12.936207742385275 15619.125410190787 16.75887007862987 0.46214808099528454
0.7429980955030941 12.917737448498457 13891.905136814154 17.48229652281728 0.47464082766436616
0.7601866322310229 12.900092660932271 12359.91078670741 18.233934077497175 0.4869397631595646
0.7776644078257654 12.883237992296923 10996.90004261928 19.011112980965418 0.49890644635014064
0.7954341859263546 12.86718107738582 9787.452700033109 19.818087259099844 0.510728927140228
0.8135113160945182 12.851981938741822 8712.22466474773 20.65604867962177 0.5224308974582587
0.8318728632795389 12.837438638055158 7757.03438828119 21.525863681385314 0.534021154316233
0.8505396855492863 12.823763745304662 6909.09328459869 22.428504462627323 0.5455124124344599
0.8694983184187063 12.810743900757435 6154.6773722480375 23.365051925594766 0.5569201519779504
0.8887514056862073 12.79850877398578 5485.286842607042 24.336698498403717 0.5682617933191664
0.9082779251305809 12.786825864753428 4861.9445176035115 25.344751142223533 0.5795561092581565
0.9280931944295682 12.77594024754277 4360.661894840257 26.39063474468242 0.5908228154610984
0.9481749025339624 12.76558437569271 3890.4504399243538 27.4758960376635 0.6020822985556976
0.9685024364190729 12.75575129422656 3473.045179629113 28.60220813250273 0.6133554369216078
0.9890891529860992 12.746485332677668 3101.488947207739 29.771375739921616 0.6246634950482961
1.0099018314802313 12.737578631395282 2771.2545356024248 30.982779035280075 0.635973835998588
1.0309329229369228 12.72911175903247 2477.7546237676265 32.23942022750188 0.6473340994236952
1.052187274762892 12.721074519273465 2216.500186874318 33.544627497511804 0.6587913396094965
1.0736284066494912 12.713300704116085 1984.07293523443 34.90079156649633 0.6703685602414996
1.095245604027101 12.705814148958202 1777.2432086881158 36.30865454171165 0.6820576142582772
1.1170298772894207 12.698533972147278 1593.023285423712 37.7681908949456 0.6938396437902242
1.1389501211353388 12.691207770598924 1428.9384877942073 39.286329683485306 0.705811403894597
1.1610000884892782 12.684171647947238 1282.6367710332167 40.863004984806956 0.7179495688401827
1.1831542639824897 12.677074892434998 1152.2981356431524 42.499934068395696 0.7302608593318349
1.2053848266187592 12.669872147215354 1035.9792028814943 44.20356637587055 0.7428196611096454
1.2276931431967377 12.662566989951111 932.1271331826237 45.97128700419346 0.7555685327073771
1.250043314531494 12.655054943783444 839.3721963386165 47.81197800033641 0.7686087937209917
1.272409567749488 12.647319748402765 756.5151893763152 49.724315672109825 0.7819019140527251
1.294776631141451 12.639340478882499 682.3716362295631 51.71431970233886 0.7955049201884501
1.317137269545104 12.630860346957004 616.0395734188326 53.78680428545063 0.8094543113606517
1.339439725808786 12.622178664185281 556.7085336203638 55.94099215313558 0.8237221903840273
1.3616746402448083 12.61287755941129 503.5029680586186 58.18486786777514 0.8383803154210792
1.3838096462547054 12.603101105514991 455.79667381543345 60.52257395151768 0.853453489873617
1.405820013031036 12.59270084852369 413.0652977320157 62.958342379922335 0.8689667858706711
1.4277184413998585 12.581704704559254 374.6164853324575 65.49682902593055 0.884948904793399
1.4494269166210738 12.569976036229132 340.0899578492479 68.14312556063865 0.9014319304685641
1.4709565567935161 12.557408073615838 309.0468572771416 70.90277601110584 0.918451197395942
1.492268912955414 12.54416339035657 281.0784874412824 73.78179773743074 0.9360452457441079
1.5133300512673744 12.529905421303987 255.9432653965469 76.786706707258 0.9542558474597003
1.5341309239819974 12.514873784018299 233.27236277473003 79.92454705128563 0.9731280927108044
1.5546474921506706 12.498835512912175 212.81094480439685 83.20292497258146 0.9927105284644571
1.5748307234524836 12.481782380715497 194.3469275931131 86.62954796611888 1.0130514403806754
1.5946631764300823 12.463651718465208 177.67684075166574 90.21004491253065 1.0341826520396409
1.614140716542539 12.444412305128443 162.595092103736 93.95707216940163 1.056189443629252
1.6332127208723026 12.424064649462697 148.94929682291374 97.8768146006988 1.0791070857676794
1.6518614395510456 12.402499032737767 136.59846270521183 101.98247586823693 1.1030218631495015
1.6700748162303056 12.379695613792572 125.40863272938337 106.28092600187694 1.1279745230238607
1.6877986059865362 12.355643941732103 115.25237517410201 110.78691487583023 1.1540605692403194
1.7050437331545854 12.33029048386808 106.03875791569497 115.5121919165177 1.1813538814462887
1.721736467554932 12.303545532962737 97.66854695632732 120.46965091033736 1.2099361551288057
1.7379097142870332 12.27543728346919 90.0571060524221 125.67339528434093 1.2398970743346551
1.753488818112499 12.245957636397096 83.13951344894242 131.13881637019932 1.271334583848368
1.7684857071966273 12.215077751510403 76.83422014286164 136.8826847778689 1.3043553421362142
1.7828646402009132 12.182662121172134 71.08829321778553 142.92325533308357 1.3390751947857773
1.7965899959618277 12.14874510692962 65.85311041808853 149.28038629082198 1.3756198115720144
1.809666786578059 12.113314914640736 61.072177541278194 155.97261387208013 1.414108717888864
1.822038826143389 12.07635208039102 56.70735709352888 163.0253836623573 1.4547008679330689
1.8337205518489614 12.037818690456561 52.72177669935418 170.46011858581537 1.4975347526867953
1.8446665632515986 11.997725814828119 49.07447069878838 178.30535840349452 1.54278858693626
1.854845303891625 11.956014563361716 45.74138966667804 186.58914370687376 1.5906395055504838
1.8642644006059825 11.912704567369827 42.68553413361444 195.34227032069825 1.6412809510264486
1.8729039235775222 11.867768670655064 39.88866594818261 204.59851518012695 1.694923440267753
1.880726472152735 11.821222487199293 37.32529541955538 214.39489541612608 1.7517951839124717
1.8877247749132278 11.773002401050672 34.974068175763385 224.77099350247502 1.8121370182492615
1.8938783730213737 11.723135503638506 32.81451747154827 235.7700391473706 1.876198990003007
1.899190707470662 11.671652680463128 30.8338909438856 247.43995196776325 1.9442141766909165
1.9036320390473138 11.618556485482067 29.01139617823622 259.8327523521646 2.0166123080814766
1.9071879359528994 11.56382392654781 27.341619264870385 273.00474116701065 2.09375944408337
1.9098559931103196 11.507516508175382 25.80596864006798 287.017982593814 2.1760451917232495
1.9116342636885595 11.449551797595472 24.389524529269423 301.9408639927002 2.2638963838027117
1.9124723079837649 11.390067950254075 23.094574319961353 317.84743999232114 2.3577750560813375
