M[M_sun], R[km], Lambda[1], P_c[MeV/fm^3], rho_c[fm^-3]
0.23835315348680472 16.224115897624433 2803846.7813616297 3.45143464264431 0.16959267850507953
0.24817463813916382 15.88529906226682 2308147.8355282475 3.630181835652849 0.17192501145201985
0.2582725967142826 15.585014986379477 1908858.9751991292 3.815440694372631 0.1742647744369918
0.26864616537716307 15.317906137628384 1585402.322248982 4.007428875109737 0.17661296400487825
0.2792925274710353 15.079807430761248 1321894.1248027468 4.206374169724609 0.1789705781695063
0.2902176080431474 14.866761539059029 1106169.9561771369 4.412514763351512 0.18133861494748965
0.30141506846943267 14.67589116675129 928919.0814755902 4.626099507820645 0.18371807123667372
0.31288452726699323 14.504856326705694 782655.6842986125 4.8473882110660735 0.1861099419813549
0.324632502614839 14.350874691815864 661427.9520513029 5.076651942591685 0.18851521957352171
0.3366575400032817 14.212309167526577 560521.4543782087 5.314173354897308 0.19093489344628214
0.34895236923320244 14.08766253760452 476446.60855672555 5.560247020634472 0.19336994982221117
0.36152169182637844 13.9751769404683 405934.4579299511 5.815179785164441 0.19582137158557023
0.3743648858642864 13.873874184949479 346783.93867414194 6.079291134128978 0.19829013825317465
0.3874889567549486 13.782253392278989 296887.4068005411 6.352913575613609 0.20077722602404596
0.4008823451064828 13.699763091098486 254792.04040317103 6.636393036487073 0.20328360789292485
0.4145491562908465 13.62539541248452 216399.9053787835 6.9300892725347945 0.20581025381719903
0.42849481120095323 13.558348278732332 188852.25133518752 7.233737327987112 0.20834794388379688
0.4427175012165588 13.49796108851772 163068.4537847736 7.547809106674945 0.2108997862139127
0.4572097098160342 13.443723452280462 141076.56575570136 7.873149061375559 0.21347407189543305
0.4719755730866325 13.394929033198977 122284.02325886146 8.210174145192026 0.21607181874967207
0.48701397633688637 13.3511872927582 106160.1884020057 8.559317564870993 0.21869404290400735
0.5023326134780235 13.312117009728539 92322.34647762253 8.92102929766924 0.22134175931177902
0.5179172335614589 13.27715218437235 80414.90235058806 9.295776624574124 0.22401598232441045
0.5337724214933767 13.246072989438568 70160.71707174918 9.684044680746585 0.2267177263263298
0.549897394754386 13.218488669838266 61294.15030536826 10.086337024380564 0.2294480064446381
0.566292512450457 13.194192782018662 53634.75914184534 10.501779414193997 0.2321901899346383
0.5829473762314018 13.172781656030008 46997.31500913205 10.931751495248509 0.23495701303337507
0.5998710787027319 13.154119981848698 41235.02016619461 11.377248607341793 0.2377551849888882
0.6170609199352568 13.137923989497288 36229.60343548785 11.838853958317225 0.24058579123701
0.634504556797932 13.123908227910444 31868.12679615907 12.317172782821471 0.24344992288042097
0.652208901235445 13.112061773017956 28071.088141717486 12.812833100734741 0.24634867807478938
0.6701722940926891 13.102083720348974 24750.99543820424 13.326486513592812 0.2492831635765273
0.6883819026559296 13.093821543434194 21851.353601095398 13.858678629523187 0.2522531066605498
0.7068427320646314 13.087117914828506 19170.918437404063 14.40791469692517 0.2552369474546193
0.7255487959363345 13.08186170758018 17089.514589687235 14.977131761310638 0.2582600371465363
0.7444971063749396 13.077873509536246 15137.006368482698 15.567087647147227 0.2613235937011365
0.7636790146565646 13.07506104000729 13422.902598881024 16.17856909698888 0.264428853655174
0.7830932631655542 13.073320830452122 11914.3995675024 16.81239293951859 0.2675770748358059
0.8027263654151171 13.072463943794027 10587.172531169135 17.469407339349083 0.2707695393338196
0.8225922407160356 13.072490157738223 9416.575438087 18.150493137716076 0.2740075567437924
0.8426766012101388 13.073236615998773 8382.088076594995 18.855357051258697 0.2772818110844804
0.8629616006916206 13.074648871371174 7469.598463295447 19.584481427951797 0.28059043656394833
0.8834488452756957 13.076572690683939 6663.13201012269 20.340454278140086 0.28394930703928173
0.9041455447672616 13.079023063189712 5947.588043522974 21.124310712881677 0.2873599327602531
0.9250245702874894 13.081861125432974 5314.755225521987 21.93712768760471 0.29082387076139493
0.9460900893508102 13.08500781702133 4753.177256905391 22.780026126392283 0.2943427298635299
0.9673195017673749 13.088390597449793 4254.481018494674 23.65417321949825 0.2979181760227684
0.9887232326747674 13.09197201262422 3811.300407639013 24.560784909616288 0.3015519380372354
1.010290770977783 13.095655805327745 3417.2499251889008 25.501128583324707 0.3052458136220522
1.0319986008790876 13.09941174496975 3050.3364985606845 26.47382853164543 0.3089822369294751
1.0538518768767782 13.103216512732626 2753.964332247343 27.482831743489896 0.3127825737120938
1.0758228569647 13.106886879889714 2475.263157572697 28.52972765974126 0.3166499129406846
1.0979242166766714 13.110465940273007 2226.546419247932 29.616035620380387 0.3205864401035483
1.1201345542922245 13.113842017557703 2004.3669856401873 30.743344327730266 0.3245944446434777
1.142437809630058 13.117065367123763 1805.9315301891718 31.913316160889643 0.32867632858850804
1.1648302888742261 13.119994461820843 1628.3699028164895 33.127691839887845 0.33283461567530176
1.1872916568170069 13.122536562849517 1469.2639092235831 34.38829546602302 0.3370719609889732
1.2098257929674487 13.124852309534779 1326.820805914246 35.69703996657717 0.34139116114631174
1.2324028679021857 13.126657487001982 1199.0959381555072 37.0559329740297 0.3457951650529908
1.255016782546025 13.128037296661438 1084.450964141534 38.46708317202211 0.35028708526939173
1.2776454802949537 13.128901027085355 981.5876818322747 39.9327071427074 0.35487021002420177
1.300282274590723 13.12919707134872 889.073941500218 41.45513675276784 0.3595480159199407
1.3229363158029666 13.129020840580939 805.843890137278 43.03682711834667 0.3643241813800805
1.3455510461487892 13.128188643970882 730.9977405488642 44.679787298213014 0.3691994713815668
1.368136699512439 13.126697895851065 663.5963329798128 46.38737037374973 0.37418151046204523
1.3906677223165098 13.124476910759224 602.8585713239535 48.16270279910929 0.37927594058547404
1.4131359925816092 13.121573780475941 548.068371543704 50.00885137539413 0.3844874410393284
1.4355222630951645 13.117898518158242 498.6403364125192 51.92905725911191 0.38982097481582395
1.4578147464998181 13.11346324607456 454.03920304290716 53.926748510639015 0.39528180825002485
1.4799924372526563 13.108163542808747 413.63868012942584 56.00456216746656 0.40087029565328663
1.501477693064145 13.101907871970845 377.99116503912325 58.19617416397826 0.4976513039332565
1.51707210418472 13.091096318993099 352.5720027370111 60.70937510806131 0.7293802954155534
1.5269174469576676 13.072857430591068 334.6389624713753 63.60428834334832 0.9458309166675921
1.532413664143817 13.04697968555823 321.35690032502345 66.8764653432167 1.1476139149104452
1.5345889822188574 13.013950175793767 310.9754909010534 70.52002341039787 1.3358311995873895
1.5342036069410885 12.974204728497043 302.4578761256695 74.52951812203324 1.5119237774135579
1.5317936594625106 12.928176249578696 295.16409055972645 78.90093101279672 1.6775032350976478
1.5277993819051314 12.876264229822002 288.596478518783 83.63197264647329 1.833496785462061
1.5225250271451105 12.818740253971532 282.46567588998516 88.72259754080008 1.9840236745957884
1.5163334129900707 12.756240536119213 276.44392806082595 94.17859952516629 2.137059751068453
1.5093860473015377 12.689103933731518 270.4700459932245 100.01775520487053 2.3013231978663806
1.5017688157674316 12.61786519006861 264.5537805526451 106.27327045922428 2.4967844224449096
1.493598673681309 12.543787466219284 258.8182969586114 113.01497504496918 2.7838324154710863
1.484703799968796 12.465681100167059 253.17509624073273 120.23992326374885 2.8819101056143044
1.475425885188537 12.380337562452171 246.76526162729073 127.75461823590041 2.9151867215526615
1.4662522035947552 12.28922527392068 239.4136132302192 135.57454531467346 2.9489963728802118
1.4575533324065244 12.193582179372415 231.07729667863225 143.7080936606834 2.98374544931113
1.449457955529626 12.094279443627473 221.8488992585853 152.16508173800023 3.019683335501178
1.4421487619572337 11.992275720148307 211.84965515532699 160.97013861285632 3.057008672429839
1.4356222741116798 11.88786201415981 201.29724778637893 170.14029372281436 3.095753673145552
1.4300364667899212 11.782263328234121 190.29066566527578 179.69474378536972 3.1359928904420817
1.425322638523878 11.675562097605145 179.04284961856476 189.65472705753743 3.177795806672857
1.4214884935712258 11.568362098243703 167.7118602572442 200.0401622021498 3.2212306683762955
1.418520200347032 11.461103739870325 156.48778662177045 210.8735760712401 3.2663858383748803
1.416406669976849 11.354213971124912 145.4631532919041 222.18710448142872 3.3133736193242678
1.4150611901214984 11.247890074887021 134.76627909001462 233.9993547263681 3.362254652187604
1.414465735063617 11.142523022561162 124.48679249334651 246.34775198469785 3.4131631341838733
1.4145430666682792 11.038300762631028 114.71445365738293 259.25585235038443 3.4661810353541105
1.4152473234300191 10.935389876459888 105.48002942149692 272.76035448794056 3.5214140692054903
1.416489616343658 10.833959794117064 96.81480542382198 286.8977695938773 3.57900945484057
1.4182299306127377 10.734147474930744 88.7374554285601 301.7063650889733 3.6390870253820715
1.4203846918376877 10.636012698561604 81.24953505746653 317.22818898972537 3.7017994655863204
1.4228933383574254 10.539632735286464 74.3428416954998 333.5023829799826 3.767273214858462
1.4256772140819884 10.444959890643037 67.98442080114185 350.58432135173604 3.8356820790455064
1.4286707161438643 10.352042452164842 62.171410145834784 368.5203449084686 3.9071800031162343
1.4318096499932655 10.260840558152633 56.85433816665387 387.3700100781679 3.9819862862605384
1.4350701422342693 10.171380366981104 52.00798743180911 407.1918689069521 4.060255846754604
1.4383256215274287 10.083544524204235 47.607739551243405 428.0506919523163 4.142230403609797
1.4415735442330724 9.997404686841298 43.61318685976564 450.0177808866523 4.228112669316572
1.4447414645645538 9.912755518990854 39.98681357586153 473.1715873379286 4.3181873818599765
1.4477709786794128 9.829590605426766 36.70555414354416 497.590521480634 4.412647078255513
1.4506126771451568 9.747766840153115 33.73806464102709 523.3693125991533 4.51184884652061
1.4532202754177703 9.667305182403544 30.988578331485183 550.6043718547413 4.616061693580611
1.45556586094718 9.588111502291076 28.62104324272596 579.4023236402383 4.72561161597397
1.4575951136963976 9.50998658830461 26.42377687870746 609.8807769354222 4.840869648027352
1.459281678072741 9.433112505749303 24.441157314182327 642.1649475252767 4.9622178103804195
1.4605566267786239 9.357132887493798 22.64392275727081 676.3956083136059 5.090077976411069
1.461445604651968 9.282278455094941 21.02346249566707 712.723237819369 5.224896988036921
1.4618889011397247 9.208155393164468 19.553763793554506 751.3145157748085 5.367169659208361
