M[M_sun], R[km], Lambda[1], P_c[MeV/fm^3], rho_c[fm^-3]
0.23835315348680472 16.224115897624433 2803846.7813616297 3.45143464264431 0.16959267850507953
0.24691714753734703 15.92586783987118 2364977.596484483 3.607012254060851 0.17162445556180977
0.2556921748293305 15.657639818620998 2002151.995388436 3.7676381146709277 0.17366451392212862
0.2646783846032932 15.41569684931727 1700358.9606325487 3.933486045746182 0.1757139936919146
0.27387084128397027 15.196828909378175 1448431.0314307644 4.104737052073328 0.17777400406014737
0.28328025398165396 14.99861641885806 1237501.3934551398 4.281579448207071 0.17984562397797782
0.2928958784487698 14.818776429657975 1060130.245833997 4.464027622267535 0.181925990729879
0.3027190718612766 14.655365322061266 910670.4137512334 4.65136047264359 0.1839970922659309
0.3127545091312757 14.506587753616623 784156.8315285625 4.8447774074586345 0.18608200239229275
0.3229969118859951 14.371200259507305 676835.1705354487 5.0444945604924305 0.18818174976379062
0.33344912286822104 14.247619202435688 585452.3421458653 5.250736097968135 0.1902973337709878
0.34411412020060356 14.134779003957805 507506.67232038005 5.463734393811399 0.19242972551632057
0.3549873025381919 14.031837110672 440816.3524736211 5.682938652090399 0.19456520952885772
0.36606560267062993 13.93785937845898 383687.8510719504 5.908337582943314 0.19670121979406038
0.3773558774676274 13.851859901343085 334553.5208945821 6.141108092917377 0.1988562576530804
0.3888597354084862 13.773329222259513 292203.7312501594 6.381514321929647 0.2010312419528694
0.40057049106329456 13.701635288356545 255714.28070323556 6.629829530544278 0.2032270654017433
0.41249188322547403 13.636003958433577 224113.01591813358 6.885337332541743 0.20542818287877038
0.42461842160701696 13.576212333999761 196734.82007408512 7.147989833097637 0.2076313229072768
0.4369610138225787 13.521565043385873 172956.41651867446 7.4192823548209486 0.2098575510596902
0.4495103801970618 13.471744703184887 152281.6568171647 7.6995239178969435 0.21210770976932347
0.4622674628919914 13.426319451942764 134270.3046711465 7.989033671712316 0.2143826174260525
0.47523250676922324 13.384960903776676 118538.4836246388 8.28589256496988 0.2166502006844601
0.48841022909505316 13.347414240376585 104797.67415007339 8.592056947653589 0.21893682961890057
0.5017982390997592 13.313343486527536 92765.6289540967 8.908354149138193 0.2212504883677537
0.5153876431502381 13.282546131614117 82213.09228650911 9.235143655605324 0.22359194907861132
0.5291865754002262 13.254633331337661 72952.13340440585 9.571441216008783 0.22594382708355587
0.5431879278773385 13.229495148356436 64806.89072375248 9.917038988130743 0.22830056782245994
0.5573930932387933 13.206952355614215 57642.81076570106 10.274114583676603 0.23068745753465655
0.5718134643161923 13.186727153923822 51315.1351687112 10.643072084036449 0.23310522666740985
0.586419798330961 13.16868911140537 45737.535372085484 11.023691653278458 0.2355467798283457
0.601244143185105 13.152743590808809 40806.45646025179 11.413941408057259 0.23798397889173
0.6162600684692178 13.138608296038614 36443.25665999837 11.817195652144534 0.24045448685976983
0.6314736452988546 13.126172445798614 32578.278715635006 12.233907962366603 0.24295899966322154
0.6468924900591008 13.115408511564521 29150.686034758106 12.664509467568186 0.24549779425990315
0.6625007782606498 13.106117154875024 26107.07951006955 13.10538331684184 0.24802655286373143
0.678303439073345 13.098181974005067 23402.07065902002 13.560994169663406 0.25059185337190243
0.6942921644926694 13.091483994349124 20998.309660640865 14.03185089398514 0.25319436811910784
0.7104751649978254 13.085989704081832 18856.342677098983 14.518476887521528 0.25583475677679757
0.7268418633933403 13.08154847749223 16948.72435382257 15.017365354920624 0.2584727847926699
0.7433945079690273 13.078069366260168 15243.654987789585 15.532409562521767 0.2611450214116061
0.7601236382910146 13.075541108548281 13723.653744846439 16.064729583262615 0.2638578181329232
0.7770401591286614 13.073744286304724 12362.194978519314 16.61491283653168 0.2666118328196229
0.7941183360601507 13.072752140455657 11146.514862348928 17.179848893173723 0.2693731237551648
0.811373821939041 13.072419906593279 10057.18224337258 17.762450499500392 0.2721656580747472
0.8287990074321534 13.072632506777628 9081.719338807134 18.36463789420749 0.27500230819156274
0.8463848001326538 13.07347737824242 8206.358496311077 18.98707201498989 0.2778837543496785
0.8641306398694493 13.07475136887891 7420.507551172401 19.62746953138949 0.2807852027200809
0.8820287302731908 13.076415637206855 6714.916451445931 20.286984765330438 0.28371294686344795
0.9000826979365696 13.078524088641744 6044.604386231837 20.968723819918758 0.28668867134699566
0.9182775237341637 13.08091570701039 5510.21457469246 21.673433558943955 0.28971311079899975
0.9366190754440711 13.083561977158961 4996.767983767747 22.40042537426977 0.2927754216875815
0.9550963700898886 13.08641626452719 4533.821601333389 23.14767581520108 0.29585527413212426
0.9736953131208007 13.089469965781955 4116.56760400708 23.92017790305452 0.29898740994036516
0.9924301591840102 13.09262479740892 3740.327226243207 24.71878084448064 0.3021726590917837
1.0112766830004671 13.095832177429822 3400.256768470575 25.544360329343107 0.3054118793278463
1.030244592438915 13.099124217054904 3093.035377479994 26.393162746946455 0.30867237619741567
1.0493081186595907 13.102414865990378 2815.8188787782497 27.269481637336924 0.31198097345236336
1.068476972711461 13.105630174501199 2564.672009389076 28.175523221002354 0.3153477376897859
1.0877453769356784 13.108844696657355 2337.4551373090917 29.11229337560722 0.31877368925067656
1.1070926130447107 13.111886939411203 2131.679709952559 30.08055712651784 0.3222580524512622
1.126531519157959 13.114817173795906 1945.1450097642119 31.075993974034226 0.3257666290397101
1.1460326046530374 13.11756305084357 1776.1582230231643 32.10537840220997 0.329339301091335
1.165596525135403 13.120048194003095 1622.5079573832634 33.16987752487891 0.33297731741619235
1.1852238342721633 13.122349959532652 1483.2244061765 34.27070147921873 0.3366819955473915
1.2048888394189925 13.12436308597508 1356.6812359583002 35.4091059631902 0.34045472759432704
1.2246001565784812 13.126048434977674 1241.650145580347 36.58152243628514 0.344267719840436
1.2443448127869374 13.127432863224056 1136.9951086189765 37.79335825935888 0.34814810540891866
1.2641123268955208 13.128423686334738 1041.7439606523926 39.04690807010043 0.3521028684897586
1.2838838477674568 13.129032114097283 955.0344667105007 40.343654060903745 0.3561337579546252
1.3036737988826972 13.129260285159232 876.0753687176408 41.685140246055205 0.3602426289320988
1.323437399010332 13.12895469280843 804.0743049904992 43.0729764012147 0.36443145010118955
1.343202484038968 13.128260274604791 738.428674766666 44.50472497726571 0.3686799946508399
1.3629469663754565 13.127088921726173 678.5306494824167 45.98541199017361 0.3730090978272849
1.3826437126702136 13.125377171579391 623.7541708337166 47.51787034853598 0.37742653688470096
1.4022963717717076 13.123105195999312 573.8067741300883 49.10403454003962 0.38193480657265894
1.4218883623379637 13.12023015335958 528.1887867695907 50.74592937007261 0.38653655625156197
1.4414179584242015 13.116811684400366 486.4173326622368 52.445675902178664 0.39123459928746973
1.4608783299656471 13.112797688707987 448.16534487272213 54.20549781113448 0.39603192287167704
1.4802322980249278 13.10810140798725 413.2597277927573 56.02772817464163 0.4009316983019385
1.4995035205603864 13.102776048526092 381.1952194801269 57.9130381580324 0.4059288057290011
1.5186558736645057 13.096801941705005 351.8701399424595 59.86443344686388 0.41102924511279104
1.5376766939765247 13.090082813451088 324.9711271892827 61.886261420676476 0.41624467094004275
1.5565784455275953 13.0827043328329 300.28785293454683 63.98138914497316 0.4215791039224137
1.575306661367113 13.074500977454244 277.65920525293825 66.15283500246576 0.42703681053853615
1.593894771133769 13.065600506983673 256.8572515913786 68.40377883985629 0.43262231731848505
1.612313777558594 13.055945064152901 237.77212682965745 70.73757281934638 0.4383404259800213
1.6305456623512418 13.045464219531475 220.22137911302468 73.15775302711569 0.4441962294936176
1.6485717441586598 13.034153048711348 204.07385436993098 75.66805189590208 0.450195129159966
1.6663999005911527 13.02203089736292 189.23849598295328 78.27241150416862 0.45634285279081654
1.6840013048757463 13.009058043284284 175.56567858871378 80.97499782020883 0.4626454740917127
1.7013787166545822 12.995283215468909 163.00401360795314 83.78021596597088 0.46910943335354
1.7184924881306594 12.980542275656672 151.41545354489418 86.69272658241904 0.47574155956884384
1.735360304047104 12.964942668563507 140.73744243315434 89.71746338596229 0.48254909409870533
1.7519489875424465 12.948446355006512 130.8929055852811 92.85965201393685 0.48953971602669394
1.7682563207665951 12.930991040119876 121.81002529282131 96.12483026639644 0.4967215693481195
1.784270604792762 12.91262598258908 113.41977922949486 99.51886986163892 0.5041032921556361
1.7999650187798077 12.893297128648566 105.68310366187316 103.0479998340627 0.5116940479962994
1.8153430665578763 12.87299485689814 98.52684744514009 106.71545412079229 0.5194908626154585
1.8303808517074263 12.851722807941673 91.9141366662805 110.52960385380801 0.5275094723441851
1.8450643840786654 12.829422008408558 85.80054974050063 114.49921598947003 0.5357658577726897
1.8593907742292253 12.80614195343862 80.14736604338677 118.6321865376146 0.5442715799804055
1.8733504594520343 12.781844309177684 74.9171748025774 122.93691393351118 0.5530389153776811
1.8869208994562765 12.756539452499839 70.07277456232599 127.42233559399496 0.5620809043155663
1.9000863767713152 12.730148095562686 65.57998248199887 132.0946346247236 0.5713996013738778
1.9128473299927926 12.702760881462869 61.42326348918524 136.9609337207261 0.5809994569280094
1.9251767656667842 12.674303025097833 57.568087884642324 142.03746458368246 0.5909155771156531
1.9370554666850508 12.644717945359133 53.99064583821853 147.3357026711188 0.6011645139141456
1.9485158043509692 12.614108317019905 50.670996939195156 152.86396649141133 0.6117504257159633
1.959516024390909 12.582425363533186 47.58440725139107 158.6302627759304 0.62267513280986
1.9700349253349994 12.549653541106865 44.72315952628989 164.6564651773977 0.6339859885118044
1.9800688740711359 12.515766272378565 42.064862571743035 170.95488238079756 0.645695547685694
1.9896098602295036 12.480762316324522 39.59220160482108 177.531030880783 0.6577918710126789
1.9986553253919388 12.444700580891658 37.292256607082045 184.41364066065944 0.6703387104623407
2.0071813076546436 12.40750331723118 35.15612468780989 191.61147439682836 0.6833305464135279
2.0151755274301486 12.369177149613718 33.16583957736414 199.14434254050892 0.6967963721024524
2.0226455275424695 12.329774534186894 31.311973368352273 207.0358526583545 0.7107747755174937
2.029568034559866 12.289258159389718 29.589190950816512 215.29779212143248 0.7252626844326568
2.0359455790521226 12.247635277389888 27.98047351951493 223.96338231188977 0.7403241301946445
2.0417350131327527 12.204828874556393 26.482186819646312 233.0451145553324 0.755951947095944
2.046980983436147 12.16100926038277 25.084969307309038 242.5779938441791 0.7722087298865832
2.0516313389482788 12.116024553574615 23.783258668971573 252.58419512778423 0.7891113105439701
2.0557029355237972 12.069975804685651 22.567265135856317 263.0925740355713 0.8066937703119613
2.059160769364339 12.022780890887928 21.435914280770852 274.1396479698825 0.8250062466215737
