M[M_sun], R[km], Lambda[1], P_c[MeV/fm^3], rho_c[fm^-3]
0.23835315348680472 16.224115897624433 2803846.7813616297 3.45143464264431 0.16959267850507953
0.24780455942746657 15.897298856153686 2324917.4686933802 3.6233446165696406 0.1718363190231145
0.2575108128799543 15.606161960623403 1935841.1899987767 3.8012901997755364 0.17408708563388903
0.2674742268315512 15.346271521328019 1618403.1618286541 3.9854733285721697 0.17634603637021712
0.2776923975133488 15.113581774217597 1357861.2759425815 4.176105118156744 0.17861422052912904
0.28816432840962425 14.904664228250956 1143199.0735326032 4.37340606780608 0.18089267773632317
0.29889326615499745 14.716720492294414 965531.3848174982 4.577606280172106 0.18318243728977845
0.30987511471272106 14.547528788607043 818070.86563317 4.788945694350127 0.18548451772648222
0.3211088510791528 14.394999451373447 695148.6978749398 5.007674332208738 0.18779992656431127
0.3325983434341318 14.25714130323928 592269.1028448951 5.234052557327354 0.1901296601787079
0.34434824287530597 14.132485512862479 505972.4402612393 5.468351345778585 0.1924747037808396
0.3563515774713555 14.0196318630515 433240.0089142354 5.710852567917452 0.1948360314704098
0.36860305211521716 13.917730066814704 371902.4732079168 5.9609129440166155 0.19719777873334393
0.3811109401838692 13.825383366885454 319955.9221832974 6.2195322305145355 0.19957446551359007
0.3938717884763863 13.74165846555028 275846.4931815918 6.4871510106606545 0.20196944829578548
0.4068940140158875 13.665944181253506 238318.12960387734 6.764094702587799 0.20438371664460428
0.420164962458564 13.59740994085836 206271.6748694429 7.050701235107236 0.20681824900714688
0.433693739926065 13.535392685526867 178887.27195107064 7.347321396162317 0.20927401308208085
0.44747842928062087 13.479451302101927 155416.09888595546 7.654319188823622 0.21175196619158274
0.4615131295726881 13.428822654604087 135255.64030362215 7.972002662106423 0.21425201115792727
0.47580562663816234 13.383298491338998 117898.67516125807 8.299131655410017 0.2167513286631747
0.4903487823849105 13.342213863836342 102940.53724239775 8.637679973845218 0.21927515806956518
0.5051428405403438 13.3053917361983 90020.05736395792 8.988065992493956 0.22182447573959846
0.5201903033631237 13.272420433763209 78842.49656579366 9.350723392172794 0.22440024944190926
0.5354921123041126 13.242912109906365 69143.35056109185 9.726101584978032 0.2270034389429327
0.5510385489072432 13.21664998882763 60725.23328163904 10.11466614890239 0.2296349966494287
0.5668350566590041 13.193451003161384 53400.728855824076 10.515924656343747 0.23228355751203578
0.582878084906388 13.172856674248212 47022.348811856085 10.929892524707611 0.2349450883301622
0.5991627951100024 13.15482978430227 41458.22631795539 11.358403464146633 0.23763767818163553
0.6156964497460438 13.139082834519261 36595.92126783026 11.801991918061296 0.24036231359286672
0.6324701894099395 13.125474389036368 32344.043992198556 12.261211246906006 0.24311997780756836
0.6494867512599182 13.113775629491908 28615.671675463353 12.736634282257652 0.2459116519868542
0.6667352657815414 13.103846315753342 25349.096196153598 13.228161648687191 0.24873072827119808
0.6842172991896743 13.095566957645527 22475.599598818142 13.734835137438676 0.2515619875856747
0.701936539047625 13.08878013237562 19953.131404012733 14.259416419665959 0.2544303834882992
0.7198794648337831 13.083325346211506 17729.931502227817 14.802564326286243 0.2573369575118152
0.7380481275938386 13.079077435480993 15771.482869372421 15.364960908919835 0.260282756676531
0.7564300889300543 13.076008484318146 14043.395946797622 15.94731222651697 0.2632688356308389
0.775037708824492 13.073896578571695 12514.828325225115 16.549797543198338 0.26629098941732504
0.793851674172804 13.072753183452576 11164.954208423065 17.1708711979647 0.26932924263249386
0.812879196525359 13.07237740082338 9968.842528565938 17.814052491778362 0.27241150072963555
0.8321088710159665 13.072769846537042 8909.239191924584 18.480157702678635 0.2755389241638872
0.8515294074002713 13.073774594157921 7968.8209200759275 19.17003261876505 0.27871269376945607
0.8711474394319504 13.07537662919208 7134.464790438953 19.884553761419333 0.2819340141998191
0.8909529407020028 13.077451069962004 6392.544900701951 20.62462970746485 0.2852041176302861
0.9109401795736722 13.079925456993639 5732.628910355713 21.387862763025073 0.2884969971895064
0.9310969117637609 13.082709383575402 5145.187115432469 22.178140355400664 0.291839089504328
0.9514264272853349 13.085845812131613 4621.46996401209 22.99683426281071 0.29523469826199866
0.9719095833583753 13.08913607339853 4154.843649850592 23.845006329553545 0.2986852498620094
0.9925480453364292 13.092635799513733 3737.7333747092684 24.7237596003143 0.30219221920625156
1.0133243065348825 13.096217824147114 3365.598453667602 25.634240464279888 0.30575713505817903
1.0342462579832803 13.099851894620457 3032.4902864631326 26.577469779872775 0.30938035309690737
1.0552999010029982 13.103431941408823 2734.5169887979328 27.55131740702003 0.31303988844543734
1.0764655600828092 13.1069799012052 2467.7567157223943 28.560607599133057 0.31676343803644125
1.0977374056629476 13.110396695558778 2228.539397884207 29.606698688560584 0.320552840517063
1.1191166236161254 13.1137287167246 2014.0457229367548 30.691006727999028 0.32441001842080514
1.1405867846955837 13.116797148893323 1821.525041122943 31.815008940898604 0.32833698555452395
1.162145746106007 13.119668926761095 1648.5904736204684 32.98024745280519 0.3323358547632603
1.183765603156707 13.122205279939688 1493.1116493592197 34.188333323913 0.33640884608687077
1.2054354239632925 13.12442640522976 1353.3554083810307 35.4409509042311 0.34055829532478227
1.2271674045460557 13.126278989550908 1227.430840664827 36.73841379979881 0.3447779698806627
1.2489221358081137 13.127646085003136 1114.004402583202 38.08253324755517 0.349070790748286
1.270727397529949 13.128697521547828 1011.8575826985673 39.47685725318614 0.3534492999983827
1.2925290803904539 13.129215299109925 919.6972040280335 40.92343304029947 0.3579164177023458
1.3143210525922586 13.12919070490732 836.5266106336044 42.42440915078662 0.36247522893904205
1.3361028040968346 13.128559501987299 761.2998457814407 43.98204226440583 0.36712899552427386
1.3578673947341575 13.127421137388673 693.4150752790897 45.5987045398996 0.3718811683719429
1.3795929367576432 13.125680447505935 631.9514875372333 47.276891515007286 0.3767354005342588
1.4012590870471704 13.123206116158348 576.3565142937138 49.01923060582291 0.3816955609740667
1.4228599625304519 13.120079392799862 525.9942236661236 50.828490249397426 0.38676574912855216
1.4443808546099446 13.116241145162993 480.38368099138063 52.707589737336264 0.391950310330272
1.4657996686287864 13.111667177259505 439.03850208214806 54.659609792422756 0.3972538521586479
1.4871070242445552 13.106296436406298 401.5110309518797 56.68780394507074 0.40268126180284514
1.5082874124105479 13.100099192927914 367.471585739896 58.79561077169239 0.40823772452531576
1.5293310763154644 13.093117659121106 336.4956907156389 60.9866670629407 0.4139287433243511
1.5502102988483095 13.085268978191714 308.37099665657735 63.264821996282194 0.4197601599037647
1.5709134265576268 13.076511927690941 282.80322250712294 65.63415239455533 0.42573817706844086
1.591439361588678 13.066841692491005 259.5270660922473 68.09897916012385 0.43186938267598385
1.6117481735236876 13.056259716555896 238.32772142421183 70.66388498304406 0.43816077528724656
1.631835017736959 13.044696550767721 219.02291981790998 73.33373343138908 0.4446197916721572
1.6516803569872982 13.032119736811508 201.41334771988517 76.11368954263389 0.45125433634219436
1.6712763813869285 13.01858432620854 185.34814052408808 79.009242046898 0.4580728132972018
1.6905924763044164 13.00395933747013 170.7066774748807 82.02622736599304 0.4650841601921552
1.7096066688618952 12.988269689740502 157.32526965394274 85.16757554931337 0.4722845618516092
1.7283393514770529 12.971578570891984 145.0973691993614 88.44041086703064 0.4796867165670618
1.7467327572877487 12.953699475273309 133.91707409359074 91.85378374875386 0.4873097459272243
1.7647807283794061 12.93473976706487 123.6833353881968 95.41515925688037 0.4951650319162418
1.782490508764939 12.914697982400263 114.323082486428 99.13250040677306 0.5032646984173555
1.7998203814751292 12.89346920084942 105.74628137419202 103.01430654124772 0.5116216648666337
1.816753154146015 12.871060617351322 97.88998203185722 107.06185257414543 0.5202203946656263
1.833274058085211 12.847467179253593 90.69141921377094 111.28990560538877 0.5290953806304456
1.8493607952379467 12.822613201524328 84.07775369462627 115.71055405410546 0.5382689001888263
1.8650143315749423 12.796571057948638 78.0114220458341 120.33483704888278 0.547757548520987
1.8802050993086834 12.769268251682872 72.4382038039528 125.16281247397228 0.5575368123957387
1.8949145496313053 12.74073525852817 67.32191082611293 130.21659121732523 0.5676604823654701
1.9091244845623203 12.710897266784167 62.615315323410044 135.51082978827247 0.5781528186055881
1.9228464039290691 12.679845126261316 58.28080861259792 141.04685246758365 0.5889894071784862
1.9360248283240091 12.647459493383097 54.29988896261148 146.84957357353787 0.6002268332586117
1.9486539056509309 12.613725589595091 50.63050561642432 152.93347898964646 0.6118824279588356
1.9607303884744092 12.578703278509307 47.24858220194233 159.30687946081744 0.623950277311125
1.9722440641472736 12.542400429558699 44.13383807305457 166.00134341090092 0.6365012550404859
1.9831697069685255 12.504738756771005 41.25623052235512 173.01727364391985 0.649497620787644
1.993476184248094 12.465720066970988 38.605245575976355 180.39530935252841 0.663034407750519
2.003169552526368 12.425327111656683 36.15506312118062 188.13699124297943 0.6770721657346805
2.0122451958427052 12.383666921252413 33.89399133793911 196.28379230781024 0.691701139341998
2.02066576511124 12.34063669639502 31.804792933407455 204.84788148136852 0.7069103856070801
2.028418749379808 12.296220339042636 29.8731553930546 213.86303884068903 0.7227562287142332
2.035518287961762 12.25048337592651 28.08534644350623 223.36182182547304 0.7392862781820863
2.0419364287625963 12.203398777944074 26.43185712443833 233.36229131063678 0.7564958209630323
2.04763548892965 12.154913368363163 24.904347373103448 243.9106125466093 0.7744665307020832
2.0526428509541303 12.105120123618217 23.487151030089997 255.04268225712238 0.7932405876067593
2.0569520489664854 12.054030623823438 22.173695605386012 266.79645447492345 0.8128603751957664
2.0605111606220294 12.001549672107423 20.95863573298727 279.20928038727567 0.8333590514445158
2.063352254594353 11.947804773571786 19.83148220039025 292.33453161251754 0.8548140484190877
2.065426669730509 11.892708132266723 18.789049471907163 306.222370250609 0.8772836271076924
2.066782022324765 11.836397548539336 17.82002913592867 320.9275144182369 0.9008312131902568
2.067370839057018 11.778776098892534 16.922380471580603 336.5096837288655 0.9255258231281781
