M[M_sun], R[km], Lambda[1], P_c[MeV/fm^3], rho_c[fm^-3]
0.23835315348680472 16.224115897624433 2803846.7813616297 3.45143464264431 0.16959267850507953
0.2471295820567951 15.918988191690511 2355250.6478144997 3.6109044790462943 0.17167494551739024
0.25612402422243086 15.645391310645612 1986199.831387695 3.7756387254403836 0.17376497818095443
0.26534350685543295 15.39891117917921 1680379.5733085407 3.9458168694775755 0.17586390740990893
0.2747829196615583 15.176648607180068 1426217.7136541442 4.121626027840639 0.17797283802557026
0.28443863416986415 14.975896348363037 1214300.5503068194 4.303261085749532 0.1800928490220342
0.29432204931529754 14.793867722060526 1036713.7914271266 4.4909248480353385 0.18222499395450584
0.3044209719079017 14.62889067560707 887497.1157799186 4.684469583014827 0.18436280031066793
0.314734255048479 14.479164626624708 761763.4532086198 4.883599922146957 0.1864974626374297
0.3252736105258394 14.342954940874655 655438.1156623004 5.08929940708293 0.18864637289826866
0.33603360923750497 14.219098623366264 565295.5036454635 5.3018012183933205 0.19081055050155196
0.34701245741444675 14.106251275558156 488555.82141233596 5.521347317953713 0.19299098960574732
0.3582084352848124 14.003431761008176 423182.86382200813 5.748188649864711 0.19518865986649225
0.3696295188537893 13.909737016956903 367270.2627656716 5.9823458077711384 0.19740020587553544
0.38126733118693246 13.824242281243222 319375.3162455895 6.222797849803636 0.19960437203873302
0.39312360018582126 13.746306065838347 278230.89876546786 6.471220650277488 0.2018279636909955
0.40520012438172553 13.675299653707693 242824.86134806563 6.727900263934227 0.20407191320506643
0.41749913842743885 13.61051889108987 212267.0870837591 6.993132804089015 0.20633713005077173
0.43001346275634433 13.551489613976932 185868.0206271251 7.267224666254695 0.20862450139331726
0.4427577683993285 13.497773792801611 162994.69695824734 7.548686507704211 0.21090690113889027
0.45571001212291007 13.449010852017905 143174.65611402175 7.839070079717837 0.21320588360829576
0.46889297144394293 13.404616037377615 125934.84885635179 8.13914847935074 0.2155292828363578
0.48228596196911216 13.364323994452526 110931.28044635685 8.449269031721009 0.21787795171439267
0.495898004377282 13.327868563291307 97849.80589168897 8.769790566202799 0.22025272262236117
0.5097308894565787 13.294890135286535 86426.27441093943 9.0986380211754 0.22262068048748193
0.523785051228174 13.265116831873215 76420.63662157976 9.4381690121788 0.22501179544918368
0.5380500501123926 13.238409514338299 67665.95906116939 9.789092565951435 0.22743136673089473
0.5525275543875205 13.214369814974209 59981.75059962901 10.151814227715802 0.22988019755069714
0.5672205675908892 13.192904347075556 53235.59933146142 10.526081268412414 0.23235059759896948
0.5821366994294294 13.173777641097582 47293.92267737622 10.91035653430458 0.23481977118155756
0.5972575445629543 13.156810273206448 42069.559782547614 11.307564956694474 0.23732068028810244
0.6125876911223799 13.141885225931498 37456.950823470266 11.718164368255518 0.23985410560397538
0.6281255200083774 13.128755094262702 33385.044326500836 12.142626747014896 0.24242081237517443
0.6438744849667671 13.117400289061218 29786.094123126855 12.57892720318207 0.24499320756484844
0.6598308935891133 13.107601123702375 26390.328852605067 13.028719933373502 0.24758686233788532
0.6759875729893782 13.099260455813768 23778.87144350392 13.493720290134808 0.2502164258011801
0.6923458109217435 13.092265167074977 21275.788761976153 13.974460705751634 0.2528826550224726
0.7088963029023991 13.086482726672164 19053.696898157035 14.470670725262394 0.2555778049518266
0.7256489931607919 13.081825812904892 17079.519789843765 14.980298313871442 0.2582767812785718
0.7425953066887356 13.078221431282717 15321.61932168348 15.507208034988729 0.2610152479676618
0.7597265040717028 13.075541103548048 13756.176320037754 16.052001255308127 0.26379397099265567
0.7770522104310909 13.073754879237068 12361.658125646736 16.6152973857921 0.2666137124171005
0.7945544182115881 13.072723050379004 11117.26519727376 17.194414261642212 0.26944431627235677
0.8122366798785806 13.0723761222079 10006.089400779309 17.79189942943009 0.27230595891969395
0.8300948370754175 13.072721653099322 9013.339387165552 18.409722503117006 0.2752117365274216
0.8481174922485004 13.073563296511107 8125.6294766905685 19.048585256982655 0.2781624523320528
0.8663166520360154 13.074899723915077 7329.695371283273 19.70838094011661 0.2811517879565729
0.8846781931534065 13.076724769564787 6617.866080771238 20.38648104519024 0.28415276680880996
0.9031987899600699 13.078917841027604 5978.673252484049 21.087741107573013 0.2872021574844938
0.9218637404787515 13.081389294019601 5405.307665388047 21.81296011329694 0.2903008391305078
0.9406728453843497 13.084159149418808 4890.728028305511 22.562962328859765 0.29344970965197764
0.9596403423537911 13.08713289584006 4427.532574195513 23.336144584413436 0.2966306517955865
0.9787299970954327 13.090320455589751 4011.351039742637 24.132968147526256 0.29984274280022727
0.9979505692007001 13.09357483305856 3636.6324575989856 24.957130050420115 0.30310906527583215
1.0173008451306793 13.09690654051204 3299.2138966743532 25.809576650807063 0.3064306523284388
1.0367583675415286 13.100269984451359 2995.1102987736476 26.691286356816235 0.30980857478147655
1.0563299304211564 13.103592496006053 2720.75839997485 27.60056958952242 0.3132249390319971
1.076001208069445 13.106915584299722 2473.2209552767454 28.53845172152311 0.31668198554084764
1.095777022018247 13.11011741603172 2249.5939056994293 29.508708898406528 0.32020021756848643
1.1156360781534005 13.113200295716762 2047.3452457461017 30.512477198814047 0.3237809195153876
1.1355755047408838 13.116098835072595 1864.527588389473 31.550934740011527 0.32742543764854
1.155587551774391 13.11880700572979 1699.1489903314837 32.62490725607939 0.3311326434066847
1.1756595960276202 13.121268589100278 1549.4749590945669 33.731180094269064 0.3348760386017151
1.1957944760945656 13.123490268090604 1413.7695414667448 34.87598100043031 0.33868922484698555
1.215967371901938 13.125374312732433 1290.669763304854 36.06069646749053 0.3425738632407043
1.2361742709997248 13.126901599077991 1179.0726709746366 37.28676952366574 0.3465317069699381
1.2564253672117847 13.128129200388432 1077.7503191141222 38.55570324044375 0.3505646084212279
1.2766624594767886 13.128849458869718 985.7786732107879 39.869064511778625 0.35467452656476695
1.296937680590242 13.129206721259287 902.1025630705058 41.22491805891664 0.35884340061536857
1.3172044144149138 13.129140267094128 826.09330066735 42.627504678276594 0.3630885796064139
1.3374492477184836 13.128551382100726 756.9333061126323 44.07977551379887 0.36741900738178424
1.3576738991795674 13.127469379004841 693.9756099325882 45.583613232875784 0.37183715078267815
1.3778629775926503 13.125804117574443 636.6117801221799 47.14098815509606 0.37634562459084303
1.3980092577079077 13.123644811356282 584.3794359386299 48.75396402742353 0.38094720110230057
1.418102642198054 13.120868685370377 536.7080789808341 50.424704213345436 0.3856448201359343
1.438109805521423 13.117432942275578 493.26095893552707 52.15547832243748 0.3904415995122182
1.4580613192561747 13.113432693428122 453.53638221496794 53.94866930898604 0.3953408460416543
1.477910204994175 13.10872389643256 417.29209859939584 55.80428679498501 0.400333961055103
1.4976453218018613 13.103325306650813 384.1517686155019 57.72734150726476 0.40543660756482297
1.5172837954728706 13.097247003023694 353.89931980023266 59.72101588563004 0.4106546712156518
1.536778999804073 13.09042017842532 326.1902871197609 61.788247823605055 0.4159923434390763
1.556139816538458 13.082877109524757 300.8273516633074 63.93213266657105 0.42145407059241397
1.5753387803229761 13.07453369588091 277.62012018952 66.15593391998911 0.42704456934508855
1.5943746058966446 13.065359787595673 256.34004379122916 68.46309471934562 0.4327688429990801
1.6132300522602783 13.055402711263843 236.8506095747982 70.8572501193904 0.4386321988280408
1.631896076862068 13.044645198207256 218.95876110279244 73.34224026565238 0.4446402665271157
1.6503477865297962 13.033001356435186 202.5498991841003 75.92212451718699 0.45079901787369153
1.6685817541097177 13.020472436913565 187.49060942256438 78.60119659605411 0.45711478770809516
1.686586668580439 13.007103891926999 173.6598038645393 81.38400084621244 0.46359429635280114
1.7043416403626415 12.992790794246755 160.93750736296107 84.27534969241546 0.47024467359908745
1.7218344534905174 12.97757390834244 149.2479708991621 87.28034239836079 0.4770734844013537
1.7390527738310892 12.961373816178485 138.4880919075982 90.40438523287081 0.48408875643164595
1.7559684328128957 12.944193375715797 128.58596171128573 93.65321316334871 0.49129900966040574
1.7725990104714329 12.926109638074273 119.4725958533135 97.02961574499098 0.49870050244511155
1.7889214353467993 12.907040365001588 111.0755925356488 100.54182149035178 0.5063100378013256
1.8049026646724904 12.886940666086856 103.33616978712237 104.19753662427087 0.5141411692621688
1.820534198701808 12.865780784245306 96.19720520971195 108.00402860360606 0.5222046633704599
1.8357995320328242 12.843588657147375 89.6148039818408 111.9690281239811 0.5305119577031439
1.8507311069656416 12.820442854029707 83.5336772508929 116.1007630378238 0.5390752065915716
1.865254347557586 12.796175114373225 77.9209218658214 120.40799501753146 0.5479073305082559
1.8793852649471625 12.770837550604352 72.73337091885423 124.89141377662683 0.5569910066826965
1.8930917756805148 12.74440092651418 67.94448160639502 129.56840922597797 0.5663681945282254
1.906379782346545 12.71687550612188 63.506674531928994 134.44985933486439 0.5760554665500786
1.9192377858835061 12.688247940790573 59.40330474705099 139.54704232684512 0.5860692687323069
1.9316409755234512 12.658527411405492 55.60759384412799 144.86239531666726 0.5963938213697176
1.943577806743301 12.627661094243859 52.08932978136591 150.41483795316583 0.6070694074572578
1.9550303316625604 12.59563025983512 48.832385165850404 156.220563934913 0.6181245081070639
1.9660057605259182 12.562509898672918 45.810077051722615 162.2857097921181 0.6295513380510656
1.9764761891533131 12.528224785247872 43.00895589264619 168.62717996805017 0.64137712261928
1.9864290712474735 12.492802671210644 40.41288217580242 175.26779942594413 0.6536465248748953
1.9958604799797675 12.456192555026924 38.00061971475377 182.20971548821495 0.6663325359139246
2.004758769787184 12.418452138804067 35.76133748095049 189.48489814644984 0.6795055330894335
2.013102810564158 12.379521971403186 33.683749668052755 197.1041091279435 0.6931622935941124
2.02089644207462 12.339436698186212 31.748659146803316 205.09162322606272 0.7073416990077657
2.028111982031598 12.298172863696067 29.951969987228164 213.46739168763986 0.7220650492044541
2.03475122426077 12.255729384264079 28.279991743452822 222.2569075866634 0.7373685834169583
2.040804872687142 12.21213670393893 26.728607137980557 231.4812841944446 0.7532703935091127
2.0462628094896678 12.167409021483481 25.281506995114952 241.17644953380278 0.7698330499229183
2.051093200093313 12.121462728886112 23.93457381120367 251.35650102602645 0.787043505704655
2.055336777386097 12.074412098437977 22.681550954086287 262.06687972280264 0.8049860878794483
2.058934931156763 12.026178536517884 21.512905929496636 273.3362170665419 0.8236831888010863
