M[M_sun], R[km], Lambda[1], P_c[MeV/fm^3], rho_c[fm^-3]
0.23835315348680472 16.224115897624433 2803846.7813616297 3.45143464264431 0.16959267850507953
0.24711389314888552 15.919557461198949 2356145.4177197246 3.610634924399594 0.17167144885360813
0.2560942536444449 15.64620803303331 1987179.9093890102 3.7750842603771666 0.17375801572230895
0.2652981314482277 15.400056801832791 1681732.2303554602 3.94496172725317 0.17585351089844567
0.27471973901575814 15.178023598184442 1427737.5150567973 4.120453999346581 0.17795903973038213
0.2843631847797942 14.977224477094772 1215680.422749297 4.301755487099847 0.18007568142148878
0.2942231229444777 14.795549134575584 1038188.349230735 4.4890684870714574 0.18220448944288306
0.3043028284579362 14.630742458471866 889074.6379854155 4.682167294903518 0.18433737029233863
0.3145978506643379 14.481079150303374 763251.1580416033 4.880898661339104 0.1864685550180645
0.3251186844948601 14.344900445070595 656942.2337768438 5.0861799928242695 0.1886140247899526
0.33585500302082216 14.220973450752815 566650.7972444731 5.298243820971036 0.19077479780266118
0.3468124417281058 14.108150480529407 489842.25938707736 5.517331417683759 0.19295186677624682
0.3579830261181735 14.00537581421896 424401.5300834877 5.7436929944294794 0.19514619971312894
0.3693833051112787 13.911591857574164 368373.4235095379 5.977180208292623 0.19735141829623115
0.38099427781443435 13.826082660170082 320396.9803672249 6.217092869495188 0.19955212585755563
0.39282837621151945 13.748161630141718 279166.158580245 6.464952330929449 0.20177229196328045
0.40487951609462774 13.677079716925336 243693.68673399815 6.7210437267942345 0.20401284634443542
0.417151905021013 13.61224516686689 213071.18722656372 6.985662196097144 0.20627469563911652
0.4296366890333128 13.553218127280687 186612.86493558524 7.259113103642588 0.20855872399220765
0.44235254709020744 13.49941113476882 163671.85442691183 7.539622655051916 0.21083340153098262
0.4552823728967057 13.450524000212779 143777.56648262273 7.829290755537408 0.21312892414314358
0.46842935011882075 13.406112566942218 126491.02031284613 8.12862310702327 0.21544888383662977
0.4817962732245503 13.365744086976726 111441.90810676437 8.437965747747917 0.21779412951158708
0.4953780950507806 13.329191502040507 98309.57940521733 8.757606399594863 0.22016450113171104
0.5091771909709248 13.29609453125278 86838.29399978415 9.085272161306465 0.2225244358837237
0.5231963103634244 13.266331660722846 76809.1513422409 9.42390113614644 0.2249120138635619
0.5374298695174924 13.239470691111546 68017.53316479966 9.773884644814894 0.22732805206662224
0.5518812797702783 13.21537281877271 60300.43789066003 10.135626535940855 0.22977334850925385
0.5665459762869798 13.193811149124485 53528.83334928355 10.508342424052255 0.23223350996581305
0.5814156412446333 13.174609249929132 47561.22852028367 10.891530333018908 0.23469900710379618
0.5964999707187778 13.15759486740198 42312.2163928623 11.287605716525709 0.23719622665232304
0.6117992215598466 13.142565310703471 37679.83346503531 11.697024289022009 0.23972594299899458
0.6273014173005856 13.129411903352022 33588.948966544434 12.120255790306508 0.24228891487057266
0.6430162492953903 13.118000305123244 29972.193313304033 12.554571434226329 0.2448496077541745
0.6589312199883807 13.108117942708517 26770.369993155484 13.003000125052536 0.24743935050715615
0.675043798226367 13.099676135597395 23931.55278468301 13.466578587157263 0.2500649592336872
0.691364403584855 13.092621456928482 21417.419854501306 13.945836454350294 0.252727183254252
0.7078836711943096 13.086777162887786 19180.96467274502 14.439624512853761 0.2554091783745915
0.7245932336198041 13.082082336344062 17196.280824201745 14.94761004245401 0.2581039318714905
0.7415030666360021 13.07843384210224 15426.807522687992 15.47280729407373 0.2608381038395162
0.7585875238040407 13.075680790086253 13854.361505986706 16.01581413009713 0.2636124511208008
0.7758731612225539 13.073849994935609 12451.238408070309 16.57724625711518 0.2664277263475845
0.7933348650288755 13.072749852724167 11198.7105039149 17.1533056201097 0.2692433857105674
0.8109708038894271 13.072377295045182 10081.482894737457 17.748726164841905 0.27210027248167074
0.8287919485125198 13.072630985303828 9081.980134895091 18.364394091236576 0.2750011756709152
0.8467743491368726 13.073460768747752 8137.007779073624 19.001006525853967 0.27794688742375134
0.8649350686930083 13.07479481516252 7387.140955854664 19.657098758938673 0.2809194438309337
0.8832432496517301 13.076577633057143 6670.043370437589 20.332705210754668 0.2839150525485725
0.9017238132484662 13.078755045293967 5991.39583339905 21.03136023768264 0.28695890882978664
0.9203500127134006 13.081189253044753 5449.265749308424 21.75385698280513 0.29005187874850785
0.9391218754305056 13.083946549677732 4930.926245563215 22.501013531957955 0.2931948466654109
0.9580345800912484 13.086872983607106 4464.345045163985 23.269542897772546 0.2963566463973124
0.9770820661724435 13.09000569992474 4045.2651716165515 24.06320978887789 0.29956234171064666
0.99626953337122 13.093269046078134 3667.869360567341 24.884070008972245 0.30282203316952006
1.0155699727858358 13.096575708169254 3327.7404067333764 25.733062123223913 0.3061367377819112
1.0349905780388884 13.099944109658207 3021.410968956299 26.611156291695533 0.3095075096347505
1.0545214157569327 13.103311926105564 2744.960317230894 27.514591544378177 0.3129019018207134
1.0741572360113878 13.106620079861715 2495.3219324723586 28.448457136519743 0.31635113502490403
1.0938816892960301 13.109784114767482 2269.872240038391 29.41450779006136 0.3198612284500117
1.1137016262755999 13.112900208191258 2066.1923739523427 30.413869145200366 0.3234334463613558
1.1335952911808416 13.11582806719467 1881.8850640439325 31.447708260615418 0.3270691140060958
1.1535706895129183 13.1185397569573 1715.069092004327 32.51431522452986 0.3307508948888861
1.1736112036528872 13.121060627952277 1563.9875113446824 33.615448132889895 0.3344845514806932
1.193694990175842 13.123259807243006 1427.195291494651 34.75485866690837 0.33828755869414134
1.2138339459308582 13.125152225249552 1303.0833721892354 35.93391925628659 0.34216155197214304
1.234015248625005 13.126763763607723 1190.4730751451434 37.15405801245321 0.34610825760274055
1.2542059059220976 13.127968623957617 1088.324133808516 38.41676218039083 0.35012949974221086
1.2744379120931908 13.128828541414098 995.4626277245461 39.721574772519084 0.354215658888467
1.2946693030308374 13.129244393268571 911.109777451549 41.06932701238104 0.35836500125005555
1.3148935884286947 13.129160252443723 834.433412002384 42.46461174220912 0.3625966411955492
1.335104675725482 13.128630111438786 764.6502053954671 43.90920909059971 0.3669128716958422
1.3553088536614584 13.127605019647715 701.0292486524874 45.404980182089204 0.37131612260094277
1.3754681407901939 13.12604977117779 640.6220537010347 46.953872435156 0.37580896967432587
1.3955939948650185 13.12395518432008 590.3738416373886 48.55792524286724 0.38039414402079047
1.415646642987991 13.121201618870517 542.3003084255824 50.21927606008824 0.38507454193825963
1.435643926467203 13.117883131304618 498.3965682359185 51.93953566509075 0.38985006336275085
1.455567557093698 13.11395342991558 458.3273282662909 53.71906720385606 0.39471429411103814
1.4754000068170738 13.10933584237291 421.71393122120816 55.56321684579648 0.3996852875048338
1.495119091680238 13.104052689103716 388.26270232439595 57.474603331184014 0.4047667125194873
1.5147294125913215 13.09809481940093 357.68505489459534 59.455981298065375 0.4099624614368304
1.5342093140487214 13.09134913675903 329.71088115493586 61.510250457383 0.4152766633417226
1.5535612900811941 13.083914258461101 304.0950276215152 63.64046541565838 0.4207136983852139
1.5727526083362087 13.075697373610662 280.62574655387283 65.84984619219473 0.4262782128834741
1.5917841094547769 13.066666930738604 259.1589519266988 68.14178948211541 0.43197513532806137
1.6106360769646582 13.056847170249329 239.44132735017172 70.51988072137458 0.43780969339002135
1.6292856596629908 13.046187353153723 221.39612096226355 72.98790701514109 0.44378743200764037
1.6477395870165448 13.03468259428914 204.79751627240452 75.54987099677581 0.4499142326556541
1.6659854700031131 13.022340078388234 189.57379328754294 78.21000569099533 0.45619633390228254
1.6839893230317402 13.009072096970046 175.5879983695776 80.97279046180242 0.46264035336971054
1.7017550698965473 12.99495112137043 162.73848403201166 83.84296813346229 0.46925331122375324
1.7192480059956345 12.97986412114514 150.92525718349154 86.82556338122183 0.47604265532936724
1.736481265868556 12.96385171529838 140.04961474979302 89.92590249774344 0.48301628822066456
1.75343464271017 12.946894531063057 130.03991363742762 93.14963465139833 0.4901825960471574
1.7700721746614911 12.928949935873304 120.82167900068701 96.50275476375253 0.4975504796722984
1.7864119212622382 12.910065679726841 112.33546007356287 99.99084219225986 0.5051263717762837
1.802417381494378 12.890137010391802 104.50634972738644 103.61696516937764 0.512906386881532
1.8180873029426858 12.869205164659057 97.29314969348525 107.39207525349589 0.5209158597462191
1.8333997935851527 12.847258397164087 90.63236547577623 111.32378112325007 0.5291660413442555
1.8483392025737466 12.824245198109523 84.48567150374167 115.42017928486183 0.5376688857211794
1.862915120873967 12.800213833475768 78.80442188950714 119.68988993870349 0.5464370982456399
1.8770799862518237 12.775080200089143 73.56221707483505 124.14201830362981 0.5554839090639888
1.8908396340984062 12.748882451754795 68.71687370874169 128.77699442269727 0.5647903417983628
1.9041677284974179 12.721561709671231 64.22835128733514 133.61376593875752 0.5744026569008657
1.917081768779758 12.69319275725361 60.080850277715456 138.6634208769519 0.5843370157068154
1.9295457063132324 12.663703602275769 56.237160324492685 143.93764162795807 0.594610090156443
1.9415375295886181 12.633054778767555 52.677221801293506 149.43663033961747 0.6051973854902716
1.9530518087146327 12.601300184369471 49.383412603515474 155.1854095184113 0.6161587795234748
1.9640945596446593 12.568423521987874 46.327902906645996 161.19837163394877 0.6275149630447568
1.9746503958044503 12.534434672132123 43.49468584016489 167.4771746948165 0.6392416989913564
1.9846792314510004 12.4992477947215 40.86579633317193 174.04922067108757 0.6514000425563882
1.9941974741803663 12.462939141325453 38.42453206775426 180.92885465932207 0.6640042572060397
2.003161060557028 12.425427488361628 36.15934460962525 188.12637158970134 0.6770529941453525
2.0115994542857996 12.38678515841087 34.0578292201437 195.67391391335522 0.6906148195354798
2.0194748061626435 12.346941501226109 32.09831510743347 203.57323859509435 0.7046548402608022
2.0268011418775553 12.306030058329991 30.280341659738728 211.86604744296346 0.7192669252548071
2.0335414890283743 12.263896324530052 28.588222037781684 220.5555797590173 0.7344150696424818
2.039684763533131 12.220560823437896 27.015510488946077 229.68478185547718 0.7501898692967076
2.045257778032659 12.176142356073248 25.5516527421681 239.2653338482822 0.7665757423124364
2.0500156301347454 12.131390967962417 24.222039230930406 249.4666700989578 1.0581534561436656
