M[M_sun], R[km], Lambda[1], P_c[MeV/fm^3], rho_c[fm^-3]
0.23835315348680472 16.224115897624433 2803846.7813616297 3.45143464264431 0.16959267850507953
0.24440239840156802 16.009475800191534 2484390.607073253 3.561018190049242 0.17102782040901263
0.2505524700378654 15.810591470829792 2205380.081552678 3.6739981978037712 0.17248867058770662
0.25681443370487606 15.625753018807053 1960879.6226601817 3.7883647985157403 0.1739247804180736
0.2631748952681093 15.454095892036941 1746673.1327113668 3.9058808013192703 0.1753783790632143
0.26964879383203105 15.294018395091655 1557877.9378170562 4.026365843951911 0.17684319285807687
0.276228605969793 15.145002475025384 1391652.4866396245 4.148590957940362 0.17829029623339454
0.28290992813799143 15.005975986735288 1244944.8105383944 4.274689940401226 0.17976706631057415
0.28969641733447826 14.876313625181808 1115496.9146325134 4.4025536784063934 0.18122503359739175
0.2965868214142331 14.75509376029005 1000573.9524789059 4.533732527239311 0.1826978279414624
0.3035838766315645 14.64182942274486 898824.1337457979 4.66821491960116 0.1841832587552405
0.3106893494443157 14.535877473727172 808326.9224659182 4.804677122831317 0.185652868055811
0.3178983466771949 14.43662810645918 727777.671794451 4.945548533523696 0.18715568636456653
0.32521146208694174 14.343726383663256 656027.8622346917 5.088003067096594 0.1886329299430164
0.33262504075837945 14.256754027518575 592060.5596035802 5.234583338757059 0.19013499465961636
0.3401483099902756 14.175249210842544 534854.1620613196 5.384213185586035 0.1916388105743735
0.3477819492985396 14.098820861849488 483672.66287934955 5.536738759438087 0.19314093275684224
0.3555159571594308 14.027131136646622 437863.49120115594 5.69383495018321 0.19467136107242594
0.36335664920747096 13.959910113027165 396772.7174076358 5.852554852331177 0.19617436818567138
0.371294706472693 13.896822627508392 359874.33356077975 6.016515680247514 0.19771524095999277
0.37934901401847115 13.837600708882656 326710.66213989 6.182598063467702 0.1992362225962032
0.38750629459281055 13.782111895885299 296847.9063593405 6.3532609034384375 0.2007803107966968
0.3957666143273582 13.730077489580243 269953.0379821275 6.527462562848913 0.20232747309200114
0.4041338195210361 13.6812701748042 245709.5024896336 6.705113726513326 0.20387561451921035
0.4126037749700606 13.63543557997597 223830.03909275826 6.8877716625494285 0.20544915384827847
0.42118126353025276 13.592509957646506 204055.723720246 7.072711974180221 0.20700220023917695
0.42985703761060856 13.552241011828274 186182.16099646818 7.263852957344497 0.20859715989821742
0.43864917177633134 13.514516578120194 169976.0546928457 7.45672474495544 0.21016117481656077
0.4475433268875964 13.479184210954102 155303.15098325565 7.655754440652963 0.2117632610634069
0.4565392597627949 13.446075208661853 142010.46428486696 7.8578540536605335 0.2133537061532274
0.46564416368463757 13.415100098072346 129944.04289135076 8.06511575255801 0.21496377721849577
0.4748430560300015 13.386106367970124 118987.61729335137 8.276836581523082 0.21658102574337265
0.48416235295256815 13.359061267678403 109007.80219250286 8.492690400313215 0.21819995324712382
0.49357430765684424 13.333835798662797 99945.54887167922 8.714445542439012 0.21984443148377578
0.5030983249674672 13.3102860788885 91685.91282633696 8.939269178644109 0.22147310066461665
0.5127188533579695 13.288298309071543 84167.23221915906 9.171492674690915 0.22314529075036837
0.5224505082718776 13.26780270607003 77306.3801414713 9.405682207575165 0.22478460081504312
0.5322848870011128 13.24881912400516 71050.20280302266 9.647833435527945 0.22647172606047739
0.5422210156476915 13.231126465447872 65334.2351406758 9.892801109626602 0.22813590834942285
0.5522579772394237 13.214804905602646 60118.99564186923 10.145084042530144 0.2298357740562409
0.5623978865968121 13.199612379163286 55343.99392111095 10.401541337945758 0.2315285550016197
0.572644211393486 13.18558557867259 50978.881069985015 10.664404764639565 0.2332420690107016
0.58299018358375 13.17272109995894 46980.32491395271 10.932864668061953 0.2349641536819937
0.5934380060589813 13.16088190545519 42941.9803516236 11.206778876602844 0.23669223982657694
0.6039851477540809 13.14997832745829 39967.2942850233 11.487781867207465 0.2384444029124422
0.6146278193159538 13.140000405395002 36888.91119766363 11.773239693901617 0.24018800204433408
0.6253803309783993 13.130964419667992 34066.0948348715 12.067355556538766 0.24197109163001546
0.6362323165044788 13.122722269538933 31472.5817944603 12.364873508677826 0.24373116282872356
0.6471789348379817 13.115264295067607 29090.994751337348 12.672501090987192 0.24554382636635383
0.658222011275942 13.108531512039209 26903.78206922048 12.982822742978502 0.24732362637220465
0.6693638636781786 13.10250338101245 24889.343438535576 13.303478980012784 0.24915476809077877
0.6806078136322599 13.09713807729858 23038.503605021273 13.628289338818593 0.25096739975118537
0.691937999224878 13.092434077867363 21334.34975448459 13.96255734354922 0.2528180022654998
0.7033650319504181 13.088267075618232 19764.291099462254 14.302538406517938 0.2546645992744543
0.7148925784165936 13.084698092404176 18317.86547057244 14.651029396238252 0.25653566941442957
0.7265070455129671 13.081620218593986 16984.135344334387 15.00690215491364 0.2584174573666863
0.7382157030733335 13.07909061809919 15753.860086779845 15.370256999720695 0.2603100285131992
0.7500153353546213 13.076979228269199 14620.155473649576 15.742784129400915 0.26222833003353035
0.7619079544200724 13.07525374982745 13571.036413574042 16.12167502923307 0.26414346475433914
0.7738859367751953 13.074006172866897 12603.051795010511 16.51166378632618 0.2660997049585453
0.7859533013086669 13.073151724690238 11709.366787117746 16.90679609049089 0.26803849796856866
0.7981101761518186 13.072579484969014 10882.951494935214 17.31510143506871 0.2700342102862025
0.8103488439262819 13.072377744540502 10118.299003086944 17.727215619648486 0.2719977917574778
0.822666676595833 13.072487595122185 9411.40051059638 18.15307880685575 0.27401956776924213
0.8350770465406396 13.07290197910384 8757.338067457074 18.58461740231129 0.27602416339713176
0.8475551467846176 13.073495696131653 8151.507676952959 19.028795464042112 0.27807279073748453
0.8601276091291011 13.074376204783995 7589.37621804431 19.480779551058127 0.2801205945767207
0.8727779662321857 13.075519237910317 7070.037714803608 19.94411062044886 0.28219728328406235
0.8855006511029805 13.07685259422606 6587.512828744555 20.417580984739825 0.28429024304141615
0.8982998056421277 13.07832166064837 6140.164778739136 20.900946469099658 0.2863962539111097
0.9111735662259225 13.079922880645691 5725.302599484858 21.39700845699076 0.28853645521414917
0.9241181777948383 13.081729610236765 5340.265349656054 21.90133595528547 0.2906731050866077
0.9371319705374996 13.083605739257441 4982.719993505775 22.42116418595745 0.29286277987719056
0.950207729064993 13.085648503011962 4651.117657787485 22.94743068143568 0.29503144743347504
0.9633576334340301 13.087746527522693 4342.746796111329 23.49077759678297 0.2972613900614901
0.9765770231444483 13.089925348516392 4055.925827275465 24.041509498245937 0.29947511510074193
0.9898487066000715 13.092150941934696 3789.413507942392 24.60850387705288 0.30173941227709244
1.003179153251221 13.094439622307892 3541.719790040327 25.1859878471826 0.3040081824149533
1.016577544191463 13.096755804235706 3311.054421013358 25.777744396087027 0.3063083753830466
1.0300312163295235 13.099099651931086 3096.41152099825 26.383427925807776 0.30863498191908867
1.0435321249520164 13.101434744191126 2896.674566537495 27.00112421644485 0.31097269938976024
1.0570902815352874 13.103752514777133 2710.680658329869 27.636549754365564 0.31336012391661455
1.0706884234333913 13.106010077218393 2537.396557454953 28.281431040636395 0.315737090635489
1.084340137162515 13.108287613386208 2375.8820218135725 28.94665706644602 0.3181776356859538
1.0980437711979896 13.110479936463623 2225.2824609867635 29.621627730354046 0.3206065636930016
1.1117744255393829 13.112616345672254 2085.164927040483 30.316171582486962 0.323089181577566
1.1255583509017595 13.1146857964066 1954.0290941864982 31.02486595336371 0.32558646510836037
1.1393625405384509 13.116622001760405 1831.8974183225048 31.750163133099583 0.3281131467239511
1.1532075089206288 13.11849756974582 1717.9089938036068 32.49450106678882 0.3306824991352039
1.1670865124078675 13.120257291258493 1611.611531383205 33.252075316510684 0.33325536832293234
1.1809873135125746 13.121892609234143 1512.287052835112 34.03297123946107 0.33589363399554856
1.1949219697462714 13.123364378344217 1419.2956246889212 34.82557895843474 0.3385220814827918
1.208877350610559 13.124748037102352 1332.4751689285438 35.641326838424085 0.3412099680886149
1.2228464314700038 13.125965688678637 1251.4831805307488 36.47459054661116 0.3439199505318794
1.2368317631656986 13.126953258081704 1175.6099741488222 37.32696398301791 0.3466599574752788
1.2508327383650226 13.127829203360207 1104.7010475403983 38.203292369596944 0.34945610301957825
1.2648404951706398 13.128467978669747 1038.4171257983041 39.0941817253855 0.35225091095967753
1.27886478407452 13.128939799475738 976.3227757442745 40.011892128734736 0.35511368191992637
1.2928845550733852 13.129226241501769 918.2034805025148 40.94757701420013 0.3579906537335789
1.3068911125865952 13.129222951247506 863.8750855078092 41.906965502163125 0.36091254358041835
1.3209109260962053 13.129057884708455 812.9306489298194 42.892069747687735 0.363887568948484
1.3349173773762817 13.128637584595827 765.245118651347 43.89535965421143 0.36687177513149605
1.34892674216046 13.128014688576352 720.5166498377647 44.928365955218545 0.3699259574387728
1.3629110585690716 13.127095662325628 678.6252659737476 45.98250112642942 0.37300060756169723
1.3768645433093984 13.125894606260898 639.3183002745051 47.06310687805186 0.37612225816153505
1.3908105336680856 13.124485561950848 602.5183406853946 48.17421081187364 0.3793089459985484
1.4047304844887785 13.12275878358683 567.9266709319435 49.305050658972824 0.3825019055185401
1.4186181378644491 13.12073173995611 535.516837659563 50.46894793120741 0.38576764277382836
1.4324785247749068 13.11844343672318 505.07061556928403 51.66064025540126 0.3890758366121538
1.4462981905710257 13.115852796444246 476.5333520040618 52.879136228326345 0.39241908174084567
1.460084753517061 13.112981501518606 449.6732716373703 54.13290657831389 0.39583659362026824
1.473820658678896 13.109728141064183 424.51317612154526 55.41304219523333 0.39928119597841527
1.4875040672198958 13.10619524619197 400.8567297592163 56.72624650855908 0.40278315572014
1.501140973803669 13.102308034500522 378.60112518519884 58.077168197823745 0.4063613166959709
1.5147160710107892 13.098102598184797 357.7218304707731 59.45450485101164 0.40995860529451367
1.5282314638227437 13.093500652197584 338.04450101537975 60.87023457880241 0.413628997996848
1.5416814245792092 13.08856007525448 319.56831792765234 62.326246547268305 0.41737737447070106
1.555069097974375 13.083291707976779 302.1709062068597 63.81070388245795 0.42114583407758377
1.5683795408404042 13.077654817787996 285.8212439691027 65.33765607560892 0.4249958347618518
1.5816068797007559 13.071607719768398 270.4314857477649 66.90803208176192 0.4289274028555258
1.5947532105320088 13.065166740690456 255.9307426659643 68.50734375594998 0.4328689407557451
1.607052863057045 13.0584811114168 243.03191228145985 70.26321581651693 0.7822121479860005
