M[M_sun], R[km], Lambda[1], P_c[MeV/fm^3], rho_c[fm^-3]
0.23835315348680472 16.224115897624433 2803846.7813616297 3.45143464264431 0.16959267850507953
0.24906260946315 15.857165039914566 2269209.28264224 3.646645526718172 0.1721385785078009
0.2600989426043979 15.535218467660192 1846364.9392416638 3.849666749644428 0.17469455353442515
0.2714661423419164 15.251652563414737 1509663.3550629674 4.0603108678143744 0.17725097445157206
0.28315801938221663 15.001092882659043 1239999.0515435634 4.279314320816693 0.17981979584494207
0.29517636174992323 14.779132965362365 1022941.2989426847 4.507008805252332 0.18240264996759437
0.30751573712994384 14.582079406310394 847227.8455013533 4.743705474256833 0.18500037822441995
0.3201843474993802 14.406881777900212 704357.0441750523 4.989729682325945 0.18761384179647675
0.3331772374061027 14.250578722171799 587631.3667951056 5.24542149626796 0.19024392074687066
0.34650038136897 14.111228440162607 491866.7410475673 5.511136231448764 0.19289151338136576
0.360146795546396 13.98680881242303 412994.33415142423 5.787245014649711 0.19555753583184932
0.37411718391701915 13.875586663991584 347804.11948546505 6.074135374793691 0.198242921834927
0.38841623668153413 13.776270710054558 293755.62718345044 6.372211862768654 0.20094862268209895
0.4030389846334467 13.687437145923198 248730.31340403284 6.681896701591425 0.20367560732208892
0.4179900013649466 13.608080411569187 211154.0508101055 7.003630468206457 0.20642486259993503
0.4332640237399942 13.537294346465668 179693.331202412 7.3378728083079094 0.20919739362132603
0.44886320168299537 13.474140784225046 153260.65501894377 7.685103185708396 0.21199422423434605
0.4647920999708818 13.417872752342214 131010.98071018042 8.045821667956854 0.2148163976242792
0.48104173801159944 13.367960297040447 112238.1673574448 8.420549750131586 0.21766497702035245
0.4976156344464428 13.323606594725605 96337.96838167442 8.809831219005165 0.22054104651629503
0.514510749488405 13.284387364948081 82849.29097098317 9.214233060097385 0.22344571200931349
0.531730586070219 13.249840336826626 71385.72503719089 9.634346410500653 0.2263801022645477
0.5492621613444175 13.219498871901454 61619.00575591806 10.070736746166208 0.22934471002495413
0.5671176031989609 13.193061068041388 53278.78709962129 10.523449205284225 0.23233322431152523
0.5852957346666271 13.170022740888502 46142.107702994486 10.993726573960618 0.2353545634000841
0.603781861241259 13.150146948577778 40027.50669902449 11.482267735410629 0.23841002015315477
0.6225762762574768 13.133230879008455 34777.353124117675 11.98980176591971 0.2415009185657576
0.6416860139098495 13.118847156689087 30256.082811679255 12.517089286905758 0.24462861578842432
0.6610936948708622 13.10691575061575 26365.72843711814 13.0649238980756 0.24779450436407052
0.6808034166401608 13.097089980754115 23008.750564578753 13.634133699162662 0.2510000146980529
0.7008088559758346 13.089156931395086 20103.836479557154 14.225582908594243 0.2542466177814628
0.7211101661932937 13.083002742435308 17590.003346343907 14.840173588355336 0.2575358281882848
0.7416938459987198 13.07838963944034 15408.359668438645 15.478847485298033 0.26086920736751595
0.7625595874863906 13.075202910829741 13516.950324994374 16.142588000184666 0.2642483672517082
0.783699418102495 13.073254483630558 11870.413980996394 16.83242229685465 0.2676749742037194
0.805108014495575 13.072436524927866 10437.86416819533 17.549423565064952 0.27115075332374017
0.8267797695384486 13.072580107257172 9189.149813958998 18.294713451779405 0.27467749313898093
0.8487070813707416 13.073595108672027 8098.409977202099 19.069464676967588 0.2782570506987529
0.870880217085091 13.075339192924256 7145.011429877561 19.87490385132853 0.28189135709811775
0.8932959940914942 13.077678527377254 6311.175921632783 20.712314514780395 0.2855824234538613
0.9159404240963943 13.080546823061562 5579.6522278929615 21.583040416057056 0.28933234735726604
0.9388068621255067 13.083859169270209 4938.6624258430675 22.488489055341095 0.29314331982913
0.9618808080545252 13.087512119151883 4376.43255011943 23.430054744059955 0.2970170067363356
0.9851548657040893 13.09139821519938 3881.3501889946965 24.408598545881127 0.300950668295003
1.0086160637542008 13.095387269077849 3446.247071693417 25.426576042874647 0.3049533849524113
1.032255851410308 13.0994930284279 3062.472870668262 26.48570729532157 0.3090278667144252
1.0560635881786296 13.103550497157618 2724.2265282830176 27.5877997440474 0.31317696009430607
1.0800200299579765 13.107573293141757 2425.752758350471 28.73475391601234 0.31740365876513327
1.1041200486534533 13.111419145717322 2162.014173313325 29.9285696014191 0.3217111149676436
1.1283459918175434 13.11509457779521 1928.6915917157191 31.171352542363817 0.32610265172028396
1.1526708820992455 13.118412672418396 1722.1738512225372 32.465321676247825 0.3305817758829658
1.1771050840885786 13.121408632313392 1539.1180685117483 33.81281698067249 0.3351521921313572
1.2016156402372342 13.124018753188894 1376.8195014699743 35.21630797040608 0.33981781790463605
1.226186245106101 13.126191419275507 1232.8672609674513 36.67840290128429 0.34458279939647984
1.2508100801431272 13.127822200897814 1104.8352410651103 38.20185874064211 0.3494515286667721
1.2754585395899616 13.128841565277478 991.0174545968081 39.789591969137035 0.3544286619601264
1.3001101096183758 13.129226509028676 889.733347768483 41.44366770645789 0.3595133792772963
1.324774217825512 13.128935017871123 799.4614482585796 43.16745067721396 0.3647117913406311
1.3494224126509908 13.127985248197232 718.9713268272551 44.964941164861436 0.37003263822876614
1.3740016054758648 13.126178829084902 647.2038502835117 46.839786848474446 0.37548176792443544
1.3985287866520633 13.123575180186027 583.0521482538041 48.7958623777113 0.381065403117186
1.4229607883934972 13.120048312161698 525.7736439339235 50.83728679329732 0.3867901687473895
1.4472989967978678 13.115659951720392 474.53051236296284 52.968442425591704 0.3926631216615892
1.471506013476518 13.110324404392129 428.6714317793692 55.19399540537598 0.39869178257649546
1.4955667961669976 13.103934137477937 387.54522830230763 57.51891793496534 0.40488417057022374
1.519458771993039 13.096527840150827 350.6821321378737 59.948512483332586 0.41124884034287895
1.5431537486753983 13.088047254312084 317.634310110799 62.48576550982105 0.41778259208080915
1.5666294185251013 13.078410474201645 287.9192228386846 65.13521957726107 0.42448899144705
1.5898579695303676 13.067615713531483 261.2422167373468 67.90670888696964 0.4313944249939152
1.612846252117482 13.05560514826052 237.23110439508375 70.80708853346316 0.43850990505318305
1.6355352962047955 13.042412171087085 215.623560494585 73.84369727376966 0.44584720899141494
1.657915409994646 13.027894630255009 196.16270766435903 77.02107842340364 0.45340492244656394
1.6799621733927168 13.012118966814855 178.63674327212394 80.34384585730336 0.46118130147082587
1.7016586083240093 12.99502186906977 162.80538950322486 83.82711050840047 0.46921695293667337
1.7229618265647804 12.976520400298265 148.51897294094252 87.48051124694992 0.47752719897624735
1.7438582860017633 12.95665759361666 135.61829702580795 91.30609523455652 0.4860955421862793
1.764315781410534 12.935311389381447 123.94517270478892 95.3175611460046 0.4949509677783221
1.7843253854047392 12.91255405778512 113.39123964966447 99.53131564033164 0.5041303050365673
1.8038414484555354 12.888284593069697 103.83337518689407 103.94977238379434 0.513614214455635
1.822856231737779 12.862527567373046 95.17682067837148 108.59046101853859 0.5234397186595621
1.8413477448009128 12.83523895171385 87.32958222977537 113.47110982673756 0.5336414356904156
1.8592649101879386 12.806371039129846 80.19946183457621 118.59330602049732 0.5441919768800538
1.8766101978551586 12.775933616984837 73.73202945865071 123.9893060757169 0.5551741827416649
1.893331376432835 12.743847720970326 67.85514038686046 129.65813867061766 0.5665470891465556
1.9094601518515237 12.710218237891876 62.5100279829779 135.63586045475256 0.5783999822513818
1.9249026329754026 12.674902489452196 57.64941807215275 141.9232979486712 0.5906935887746946
1.9396927379115931 12.637969693505982 53.21773536809079 148.55891629874935 0.6035176807502142
1.9537664875889758 12.59931979589402 49.185384518034006 155.55107354286594 0.6168531650309914
1.967122815696676 12.558998305648165 45.50868000303993 162.9324391140577 0.6307610868523635
1.979727655375304 12.516962047306782 42.155206466815315 170.73187006793052 0.645284418560335
1.9915758651005724 12.473228665067332 39.09300479067967 178.9647709472498 0.6604163114235916
2.00263014126227 12.427762757457124 36.29339074426715 187.67355571875942 0.6762355286696381
2.0128871204847454 12.380601556196025 33.73681390751781 196.89115477356037 0.692782977758113
2.0223067114852435 12.331697225613349 31.39821112331062 206.65298711798673 0.7101016450034986
2.0308839889072963 12.281045706405386 29.256873169317505 216.9937676320201 0.7282254847788014
2.0385940720419953 12.228668831892548 27.298383339693135 227.9598486160532 0.7472190986816931
2.0454286275229427 12.174568294324894 25.504486872429986 239.59976340786088 0.7671457444100797
2.051367574738864 12.118780526420508 23.859195860989765 251.9646020951588 0.7880677301688307
2.0563813408230804 12.061257754434397 22.34721713285733 265.1104460460211 0.8100533332347617
2.0604868402358205 12.002021644434285 20.96806700618401 279.0989007627878 0.8331773488892577
2.063649635568205 11.941123199787635 19.69916701419867 293.9976942381404 0.8575217112290747
2.0658555632394915 11.878568110781918 18.53493810833931 309.87847700022553 0.8831667521014845
2.0670944210607427 11.814355088574853 17.46658403099209 326.82085920502715 0.9102026292820163
2.067373216064775 11.748516802215542 16.48463586862438 344.9187515436147 0.938748368149735
