M[M_sun], R[km], Lambda[1], P_c[MeV/fm^3], rho_c[fm^-3]
0.23835315348680472 16.224115897624433 2803846.7813616297 3.45143464264431 0.16959267850507953
0.24791675964964946 15.89357199250125 2319912.0917275785 3.625401370263292 0.1718629992389347
0.2577393348027702 15.599759561407438 1927637.0737514049 3.8055430148718616 0.17414048854635247
0.26782634410578643 15.33770414864187 1608389.5370874037 3.9920659627251966 0.17642618724405862
0.2781739704933403 15.103242418709963 1346776.6170343563 4.185186057585739 0.17872113045790794
0.288781538671059 14.893215532181923 1131871.1472459042 4.385128820427633 0.18102634651607516
0.29965175359312635 14.704399946247635 954340.7797972528 4.592129683694158 0.1833428561426387
0.31077965167656507 14.534572863981834 807231.844669046 4.806434239955651 0.1856716718946934
0.322169454855615 14.381569191913925 684797.767123894 5.028298504624291 0.1880137977939421
0.3338202765190333 14.243423652589586 582524.3831946043 5.257989192229762 0.19037022911114232
0.34572636568836407 14.11880684949234 496886.4645732518 5.495784005643193 0.1927419522687211
0.3578948393635549 14.006195519608026 424869.06107663485 5.741971937554049 0.1951299448332943
0.3703326329997604 13.904305746376592 364141.8575120261 5.996853583453193 0.1975351755757316
0.38302568368936496 13.812105701118561 312806.4443107431 6.25992674398008 0.19994439826620053
0.3959785405338974 13.728795916078575 269320.00540667487 6.531976198873747 0.20236756069791706
0.4091894761640841 13.653488653867575 232365.11611407492 6.813577685468324 0.2048099966156356
0.42265841056262 13.585386582823883 200858.71136685731 7.105078597317317 0.2072726991162469
0.43639972049433573 13.523911626862123 173954.120212846 7.406839738474387 0.20975665274879518
0.4503960788130957 13.468435355340096 150930.74252674027 7.719235711343028 0.21226283389168737
0.46465121674262005 13.418359984497462 131186.88511087417 8.042655313829721 0.21479221114453428
0.47915950169453425 13.37337399186897 114237.11300425942 8.37750194554523 0.21734574574075602
0.4939368614630336 13.3328827207269 99613.20677437952 8.723060725344824 0.21990831943089426
0.5089670893244599 13.29660568797329 87004.4234449016 9.080159115272178 0.2224876179689473
0.524259400004601 13.264235104227126 76106.83221231562 9.449853143104887 0.2250935077592551
0.5398021108100661 13.23529340636104 66669.70319795755 9.832607181606722 0.22772698227670193
0.555604208100516 13.209667714615778 58491.24445043505 10.228902652915362 0.23038903009170789
0.571662047322059 13.186941097512667 51376.3148982844 10.639238527907837 0.23308063562732728
0.5879644748841167 13.166950141832165 45195.718445484694 11.064131840627098 0.235802780001943
0.6045246766799092 13.149452617531367 39801.66551122402 11.502333724164934 0.23853513940793933
0.6213327774039432 13.134297616137133 35097.16079869802 11.955462899429836 0.2412927377669622
0.6383818233072537 13.121162211377499 30986.659072474824 12.42467734105542 0.2440837617970667
0.655679104047136 13.110007982196224 27388.701416186334 12.910572411924912 0.24690924619986815
0.6732177581199588 13.100618439613495 24236.46227234733 13.41376488238829 0.24977022789039022
0.6909922408342536 13.092772107644263 21470.24505932614 13.934893621268522 0.25266774758256527
0.7090040380172763 13.086434661436828 19039.635313336956 14.473892415161338 0.2555953034644767
0.7272459490229365 13.0814219068151 16903.194046879704 15.02993465277857 0.2585392488664176
0.7457160254568987 13.077680749861496 15022.144799211 15.605843274223277 0.2615231630007072
0.7644145384917679 13.074980201225703 13361.664666054543 16.20235660424718 0.2645481752438356
0.7833308193728977 13.073271159074377 11897.86029799157 16.820239792775673 0.2676154286362344
0.8024556842575608 13.07246483341489 10604.174663056743 17.46028583915101 0.2707260826042193
0.8217992692346198 13.072490210256676 9459.35747018193 18.123316691259323 0.27388131592472664
0.8413496414536022 13.073168231105676 8446.471884705765 18.807706891708982 0.2770604651782104
0.8610913760146568 13.074473709335386 7548.458341298098 19.515881508562405 0.2802796309795652
0.8810346745973842 13.076354207586629 6752.203399116576 20.249600277288575 0.2835476899964462
0.9011621946944615 13.078643597318708 6044.916772011248 21.00982119925042 0.28686598117307416
0.9214692742917905 13.081363576971873 5416.673477813769 21.797538853802955 0.29023588008988516
0.9419489096063903 13.084348724733307 4857.607353686061 22.613786152340797 0.29365880348573925
0.9625978142062876 13.087629534685584 4359.890980586618 23.45963623839078 0.2971362140826772
0.9834120487965456 13.091114457649539 3916.287154201894 24.333400103789547 0.30064840021550976
1.004374192942492 13.094688248520507 3520.7551492811695 25.238315412963516 0.3042137625258679
1.0254729473730138 13.098290352101941 3167.249098748858 26.17628644793998 0.3078392912776165
1.04671416723643 13.101957732050096 2851.7868273273 27.148581716733112 0.31152672756748945
1.0680849437651554 13.105585327187743 2569.561297744648 28.156522814295663 0.31527788577189764
1.0895711991535606 13.109145008440459 2317.1735679113626 29.20148748868071 0.3190946603548926
1.1111570084146618 13.112475957818713 2091.036832766947 30.28491296009409 0.32297903304795306
1.1328386218368771 13.11571958010209 1888.683053004115 31.40829951199906 0.32693308041342367
1.154616486147608 13.118680443008481 1706.8235842387985 32.571599926452095 0.3309486338194848
1.1764654851831682 13.121369935656407 1543.7413154118585 33.77663962534172 0.33502981479915056
1.198386637160724 13.123758099821199 1397.2175024240696 35.02664306561813 0.3391888507239308
1.2203465713437123 13.12574961761293 1265.507825360852 36.323422226501584 0.3434283132633296
1.2423460318614854 13.12729698249376 1147.0794437805062 37.66887555685326 0.3477509121200966
1.2643824123263356 13.128427641266683 1040.4875778362384 39.06499365685202 0.35215950542456914
1.2864447251345361 13.129108381344759 944.4232815037464 40.5138654040343 0.35665711068176364
1.308500270769486 13.129232648863587 857.8673647833034 42.017684555498974 0.361246916306857
1.3305448703245613 13.128807745891166 779.8174964292014 43.57875686047419 0.3659322937894252
1.3525639662743272 13.12778240316669 709.2589461137107 45.199507720124664 0.3707168105319686
1.3745484015933602 13.126110533709017 645.6842439494229 46.88249043447318 0.3756042434138624
1.3964870834124083 13.123809268937901 588.165694652648 48.63039507966167 0.38059859313796773
1.4183517860219022 13.1207951293995 536.1082068637116 50.44605806251665 0.38570409942373246
1.4401426501214996 13.117070532958099 489.0218944906829 52.33247240355293 0.3909252571177385
1.4618342194570568 13.112574843949952 446.40331682804776 54.292798804189665 0.3962668333003628
1.4834138884614059 13.10731001832087 407.78202699492425 56.33037755911238 0.40173388547553773
1.5048650384214803 13.101216636336957 372.7629702288633 58.44874138044773 0.4073317809396137
1.5261593615226572 13.094211533104795 340.98281720644275 60.651629206770096 0.41306621743505967
1.5473091782584247 13.086411727829343 312.1440821439925 62.943001077007196 0.4189432452053156
1.5682819020114966 13.077670595540827 285.9244068970974 65.32705415711492 0.42496929057858146
1.5890538629322044 13.068002060461914 262.1196735391735 67.80824001603028 0.4311511812208138
1.6096275073177768 13.05734353700576 240.45231060668544 70.39128325696781 0.4374961732118068
1.6299782401580183 13.045754613606311 220.7315416622622 73.08120162071118 0.4440119801131207
1.6500792638058825 13.033203505361874 202.7865152993399 75.88332768924688 0.4507068042128772
1.6699166385245288 13.019518793491981 186.43743640984678 78.80333233105141 0.45758937015032014
1.6894794985428472 13.004814371333952 171.52259587095645 81.84725004367844 0.46466896114264844
1.7087469142258318 12.989047797872523 157.92287460327552 85.02040151756901 0.4719509684692277
1.727698707896809 12.97216363576726 145.5011462642717 88.32529483568027 0.4794286962141127
1.746319203500467 12.954138945794982 134.16405540356234 91.77388157901665 0.48713260598200064
1.764589007010997 12.93500880973563 123.79398402725315 95.37390246987908 0.4950745424747606
1.782495583686483 12.91469758523403 114.31959415783237 99.13362094859455 0.503267130492001
1.800025984108897 12.89321578578457 105.64566922466814 103.0618639328698 0.5117238321692849
1.817145205605548 12.870518302414812 97.71098221127254 107.1590199091683 0.5204250338158373
1.8338454074688166 12.846603280980693 90.44715922201168 111.44205680932534 0.5294127517986507
1.850113780416815 12.821433872277295 83.7804215161987 115.92287575246391 0.5387076300796577
1.865917459977813 12.795017288460782 77.67186168602187 120.61092460176772 0.5483195632371033
1.8812574129978596 12.767334631379176 72.06656155391792 125.50894028016741 0.558232904661147
1.8960883675354685 12.738315725047142 66.918591773202 130.64055943840907 0.5685057526488145
1.910436132236458 12.708080071337974 62.192579153136464 136.01698794206453 0.5791489439835985
1.924255027664936 12.67649372339604 57.849121033926856 141.64262163890234 0.5901478350319674
1.9375271089916053 12.643591519448984 53.856348852239286 147.54597785076237 0.6015701077559292
1.9502469370910431 12.609342739491463 50.181831876622645 153.73203765502927 0.6133988679886437
1.9623872072122124 12.573736363234945 46.79541341288001 160.22452951221948 0.6256796706933265
1.9739440568126578 12.536795755166306 43.677389858267816 167.03967367027195 0.638429311390362
1.9848893308792706 12.498453189300443 40.806983222452295 174.19664130099756 0.6516718164053544
1.9952301271858477 12.458801158142396 38.16067220276489 181.71758204475353 0.6654379626769246
2.0049202013536465 12.417705987656621 35.720133103429255 189.62644738114244 0.6797610709799989
2.013968953642722 12.375267522944931 33.467103226102225 197.942831529736 0.6946562320013777
2.0223546729432216 12.331444634506836 31.386817546815116 206.70298458016882 0.7101895474493148
2.0300476933345744 12.286190449393096 29.4660293568184 215.92212177087472 0.7263533629772043
2.037065949603101 12.239623420232663 27.69160266440441 225.6405940035118 0.7432177669426376
2.0433833839590054 12.191653000920278 26.049178875751227 235.89258546921866 0.7608272263818732
2.0490008963209725 12.142334017791924 24.528667278421768 246.70770505554447 0.7792055289888296
2.053856374194686 12.091559812570827 23.125964467411624 258.12572641034717 0.7984031976193746
2.058021155821876 12.039503579912788 21.824396742152253 270.19258979207694 0.818483848322453
2.0614169134040945 11.986069827227892 20.622656791138958 282.95317136784496 0.8394999133113297
2.064061041387195 11.93125553311877 19.507747304007747 296.4564187476556 0.8615085472221243
2.065945300573141 11.875170281298653 18.475655380910492 310.7557447321272 0.8845720007985449
2.067059123680793 11.81774343112231 17.52001702562523 325.90946577760195 0.9087580422278747
2.0673963101545207 11.759039002804036 16.63427048285173 341.9812906946528 0.9341404309670718
