M[M_sun], R[km], Lambda[1], P_c[MeV/fm^3], rho_c[fm^-3]
0.23835315348680472 16.224115897624433 2803846.7813616297 3.45143464264431 0.16959267850507953
0.2481399030426943 15.886399576423813 2309747.947435153 3.629535286572962 0.17191662441518457
0.25820311043027455 15.586886658873702 1911436.3505781041 3.8141009913495774 0.17424795168743726
0.26853458423152654 15.320589015071333 1588594.093795596 4.005347810108591 0.1765876631654124
0.27914373423962663 15.082858041548057 1325121.6761445622 4.203501837157328 0.1789367621890564
0.2900233347168313 14.87030257841515 1109625.9025355466 4.408799460195381 0.18129625117378215
0.3011783913575567 14.67968977888417 932248.1475260233 4.621487628070608 0.18366713052860162
0.3126012194991259 14.508781889969212 785894.9446130682 4.841824134294341 0.18605039785552732
0.324300661978833 14.354904175023155 664477.0213922313 5.070077916329496 0.1884470473796518
0.3362730769158774 14.21652402813107 563418.1192108048 5.306529370497417 0.1908580695663122
0.348514956683046 14.091783035752178 479131.25793752604 5.5514706822182935 0.1932844508883697
0.36103338509128924 13.97925118347661 408402.8573281969 5.8052061712052865 0.19572717371289225
0.37382169016127825 13.877894526442415 349073.39079095155 6.068052651170861 0.19818721628236274
0.38688361897979756 13.786186747710511 298998.45611609844 6.340339803574795 0.2006655527709091
0.4002152321417714 13.70368311519514 256723.2562538483 6.622410564947345 0.20316315340097774
0.4138247906547737 13.629070887552967 220869.938812262 6.914553843427115 0.20567987371648572
0.42770556439912394 13.56194991841158 190420.8243538447 7.216148427485217 0.20820094746052142
0.44185818299879803 13.501434160338048 164492.0605510685 7.528525102037728 0.21074341046133843
0.45628836321586014 13.446968353043943 142364.20407397582 7.852081301728821 0.21330827684820344
0.47098019175593653 13.398026024733294 123435.17048348817 8.18722999262552 0.21589655778421055
0.485949992445562 13.354144279734015 107212.31645868222 8.534400159630032 0.2185092619323474
0.5011916239766726 13.314858855714307 93271.90224072104 8.8940373086804 0.22114739596289223
0.5167005633043714 13.27966796135562 81268.52551482437 9.266603984261454 0.22381196511115678
0.5324813959185363 13.248478800459123 70929.27663743727 9.652580303032629 0.22650397379625856
0.54852321720281 13.22070933803841 61999.50071038776 10.051844053666736 0.2292163629507379
0.5648408894204644 13.196201933205444 54271.22538344807 10.464259533110832 0.23194253490237443
0.5814124051434572 13.174650497210546 47563.86616844754 10.891508376364024 0.23469886625885686
0.5982557230552829 13.15578285994074 41387.205781701516 11.334146114057141 0.23748642415655818
0.6153567777326651 13.139396791920426 36691.787057505324 11.792749191417554 0.2403062791801901
0.6327162185728116 13.125272309599593 32286.303217039203 12.267915667590817 0.24315950657558907
0.6503340499101761 13.113221977087342 28444.09204797305 12.760265947142326 0.24604718760620306
0.6682055705260451 13.103119078835709 25094.645663137002 13.270443547731965 0.2489704110687688
0.686325180843596 13.0946839104616 22158.872735677694 13.797236209495225 0.25191022204244784
0.7046924630584983 13.087823419580603 19589.837891464947 14.342554088654 0.2548819432591412
0.723304355719456 13.082397924558569 17214.092819951125 14.906544992713348 0.25787776435326476
0.7418334170283124 13.078192972563254 15394.009133688096 15.504942698186838 0.30011372808720344
0.7567321513473948 13.071800078312167 13977.799346249345 16.16412919157747 0.41518663809543255
0.7680778945876413 13.059802172964849 12937.065157398534 16.904909147756957 0.5242848883624186
0.776807261616438 13.041731720084735 12124.123041998111 17.73905361048262 0.6235837968124618
0.7835999303229244 13.01760756608839 11454.319782575903 18.653451942259416 0.7175418458043015
0.7889675849200701 12.987775765548069 10876.758221459022 19.649205371007174 0.8060186047534145
0.7932900425400685 12.952494613042804 10357.059809818657 20.72627833514375 0.8890430738810464
0.7968551634698764 12.912081326766662 9876.82281119329 21.883971572573742 0.9667587719681902
0.7998946131103051 12.866887360118403 9418.882402063142 23.121264516588894 1.0392446219297928
0.8026203391368683 12.817177926784417 8974.826717752827 24.436934632995403 1.1064846378159503
0.8051611617632956 12.763224839191823 8535.78027108429 25.830346052251492 1.1708585664730529
0.8076658455371699 12.705363969822823 8101.287624765357 27.301828682439123 1.2329566919736488
0.8102232455617634 12.643890501300229 7668.808738259239 28.852102844478814 1.293204707071817
0.8129179741338969 12.579170971880414 7237.773355420124 30.482272947757007 1.3520728406110247
0.8158152864556448 12.511472176043265 6810.973806125461 32.193871279918184 1.4101029414330053
0.8189836894700764 12.441116941279411 6386.910497353444 33.98891354894189 1.4679586802908728
0.8224513786593936 12.368453074014866 5970.906149799041 35.869983194903384 1.5265149033535483
0.8262586149730812 12.293769199771527 5563.337428001864 37.84037122013749 1.5870204346272903
0.8304457399172454 12.217499866447536 5166.753890683478 39.90432122587761 1.6514105280620843
0.8349750847900731 12.139990352773207 4784.566135710346 42.067483610158085 1.7229516318476819
0.8398357785149945 12.06171827550441 4420.6958327520515 44.335642478399336 1.8085506856249216
0.8449341319856883 11.98328532775789 4077.215831735136 46.71652096569774 1.9135363576160689
0.8502629554441522 11.903984298444582 3753.584849013054 49.21399302602846 1.9725252772063404
0.8561951910136062 11.82241799075006 3438.4796602191714 51.80725268318027 1.987276367304262
0.8628702507470718 11.739427764582908 3133.6421392530697 54.478265253283475 2.0022193284120364
0.870383007716426 11.655951133436231 2841.5078223939445 57.23753642277301 2.0174867658908084
0.8786615097812956 11.572583911140837 2565.9203895304113 60.095962500588634 2.0331865193046297
0.8877854411996113 11.490021763820907 2307.5835025940023 63.03727250442756 2.049242135087566
0.8977160648741386 11.408754076048497 2068.085045939723 66.0881886140391 2.065839537628797
0.9084124049227373 11.329093571838312 1847.9735438058642 69.23330980713742 2.0828917083747918
0.9198511419721712 11.251447948095944 1647.6142002401587 72.49591490285896 2.1005438628677067
0.9319953593992328 11.175903458109882 1465.6953728482351 75.86003118127755 2.1187279391228073
0.9447996570132334 11.102851794079124 1302.0294174124342 79.34762618802006 2.1375180199071737
0.958227165198968 11.032162574511977 1155.1854574044773 82.95825309957816 2.1569580326480655
0.9722228258406501 10.964028404466701 1024.2005357960968 86.69125568329156 2.1769705267520236
0.9867396921021756 10.898426339124208 907.6164141365499 90.56053351387641 2.197695563672916
1.00174070223221 10.835376090095876 804.1597374572642 94.57055424698827 2.219103004584933
1.0171678376034419 10.774778056056311 712.5485016540188 98.7265077113434 2.2412652407739846
1.0329774896359258 10.716664546524147 631.6230346135252 103.03479201980346 2.2641426407322633
1.049119093619172 10.660752954123303 560.1964400372128 107.5007426698475 2.2878250446016994
1.0655578657583764 10.607192739708447 497.1571906487438 112.13457266491095 2.3123194629709394
1.082239644799219 10.555685192947221 441.68330052792555 116.94303328911165 2.337669010064296
1.0991264977169293 10.50621223605452 392.75581024430056 121.93401473502175 2.3639235953909727
1.116165110987077 10.458554646328155 349.6624097472325 127.11786329604504 2.3910902018235447
1.1333179655214247 10.412621500626845 311.6897234101849 132.5046525019044 2.419257800592759
1.1505546463125769 10.368287105293755 278.1801117271366 138.10569505277851 2.448462697047729
1.1678239663248273 10.325427607962615 248.62480604453174 143.92661192200393 2.4786954452143113
1.1850894669317675 10.28390302313671 222.52303471866358 149.9825053933489 2.5100700002790806
1.2023154062409547 10.243518946998272 199.46773306256324 156.28598366826526 2.542632995840782
1.219467940121514 10.204234853367554 179.0654698147917 162.84739428769655 2.576391795541461
1.2364991715857463 10.165869087713709 161.00280459458844 169.68187155616477 2.6114416731897085
1.2534047296436677 10.128387912840338 144.98192503048713 176.80594592590413 2.647861496464654
1.270116441853913 10.091532971351224 130.75545251768972 184.23118371369787 2.6856905642348052
1.2866334103217651 10.055359607716186 118.12557443817337 191.97594959619894 2.725001792223913
1.3029036322057952 10.019549434572715 106.8576542415709 200.05886143044677 2.7658625130257013
1.3188872088759753 9.984226253124856 96.64296218554433 208.49866097481757 2.808366568922813
1.3345587387282705 9.94906951065524 87.90675981018077 217.31575666219692 2.8526004159334626
1.3499478909091747 9.91427468639411 79.91406901580139 226.53209296257 2.898653269442423
1.3649551019226256 9.879468256405382 72.76224391155488 236.1676786506834 2.946603128854436
1.379579089942557 9.844726880832479 66.36683759684425 246.25178239459893 2.9965723586311546
1.3937900536548644 9.809858806332663 60.624581582824916 256.8098445624791 3.0486622972923816
1.4075764102270383 9.774921346980072 55.470136151842674 267.86991033969036 3.1029852291261895
1.4208893464200996 9.73965087043753 50.831519227330155 279.4627429413684 3.159664690916104
1.4337329828761578 9.704207890953017 46.6605025507422 291.6229395703422 3.218840641001062
1.4460617949803787 9.668341472660414 42.89739694583931 304.3854047936227 3.280650381342058
1.4578662310676693 9.63211957888251 39.502344479697044 317.78836515710924 3.345238479287262
1.4691407381631103 9.595484895360428 36.372359839528194 331.87364538564066 3.4127600124577238
1.4798441974613057 9.558268792864386 33.64964300954932 346.68683511338475 3.483391133095019
1.489980420087971 9.520529079514736 31.13447598656626 362.27572717318907 3.557337692989212
1.4994913353324912 9.482177734941658 28.851726707976287 378.6923149162167 3.6347838024383248
1.5083800456960863 9.443122881808014 26.782086612293718 395.99386402048395 3.7159167677187366
1.5166327011814928 9.40343751571648 24.900314146221028 414.2423873178586 3.8010155860228902
1.524276564903166 9.363091722908845 23.1862094427774 433.50388504072413 3.8902840505655583
1.5312255116135927 9.321877382321366 21.625927584969766 453.8509324459244 3.9840066213139522
1.5374842240147784 9.279907275675562 20.20549447095954 475.362908621259 4.082461631233687
1.5430791630890535 9.237192951769641 18.909087809945117 498.124314634293 4.185966457861768
1.5479591454892208 9.193637419090136 17.700679096215442 522.2302230347083 4.294828017220412
1.5521456570891095 9.149293420928666 16.642239050305225 547.7800321791208 4.409435907790768
1.555581751077351 9.104009807114075 15.654166091594753 574.8868047305615 4.530177450310388
1.5583277878505108 9.05796222726067 14.750172404416285 603.6707754503358 4.657410034555173
1.5603188356030875 9.011060197791336 13.922090977563979 634.2656000164244 4.791644630343962
1.561571810599708 8.963286485197155 13.163123975501092 666.8168546280169 4.933362311926107
1.5620953240492335 8.914680632192546 12.469028113101743 701.4842283602779 5.0830947595733935
