M[M_sun], R[km], Lambda[1], P_c[MeV/fm^3], rho_c[fm^-3]
0.23835315348680472 16.224115897624433 2803846.7813616297 3.45143464264431 0.16959267850507953
0.24531276134883478 15.97897922888486 2440610.560935704 3.5775706451460447 0.17124253891210806
0.25240469417535144 15.754266368826585 2129400.912379941 3.7075063643527626 0.17290943510356185
0.2596398848477248 15.547585589836604 1861807.3172592095 3.841053412355227 0.17458639522355218
0.2670171014934039 15.357395622638881 1631379.8744907551 3.9769485452474083 0.1762423951219802
0.27453197096297444 15.182204346939391 1432294.8949832087 4.116973781714308 0.1779180671171288
0.2821865204487207 15.020504968674876 1259973.2748550768 4.261284101285946 0.17961420612372722
0.2899787794775947 14.871163219372024 1110430.801051036 4.407968871458355 0.18128678037912
0.2979124636388157 14.73290225784461 980262.6523555389 4.55887433614806 0.18297553282915274
0.3059832380383474 14.60507906307305 866901.0195691778 4.7144373356081655 0.18468716440621938
0.31418883298552014 14.486609653462958 767877.7688188151 4.872883819319458 0.1863827839582311
0.32254115063265326 14.376846904742276 681163.7488376009 5.035537973494274 0.18808887058124724
0.3310282032039235 14.274999089534688 605172.4813449761 5.203254168214962 0.18982012896767195
0.3396514288491056 14.180434811819879 538491.7414758801 5.374156630463143 0.1915377397789277
0.3484201132408764 14.09266421342166 479691.9992004285 5.549509986794112 0.1932653498281774
0.35732241602630976 14.011179970181901 421613.744850444 5.730363427018709 0.19502030583965896
0.3663642361254669 13.935483721872664 382281.278104485 5.914476146668227 0.1967591967366765
0.37554968283458096 13.864981360634866 341860.97558505257 6.103566054273456 0.19851244785064276
0.38486461142752726 13.799646328192315 306142.15800723527 6.298629254464297 0.20029510286177166
0.39432509098604823 13.738853053669358 274419.5114737046 6.496772881077624 0.20205490439976184
0.4039260941590226 13.682435423287716 246282.6533759001 6.700728785853687 0.20383783966675495
0.41366131184446936 13.62992438104628 221261.38382689314 6.910986499173911 0.20564914219392197
0.42353838502867275 13.581302595681661 198989.81045879307 7.1242367177976424 0.20743281004455563
0.433554657683104 13.536007193939012 179145.05812256093 7.344285881207337 0.20924939781442947
0.4437108337993335 13.494055220128082 161432.0066082794 7.570236081815627 0.2110816486009825
0.45400261372782064 13.455180797798793 145625.8775324106 7.800336342990834 0.21290106421517027
0.46443587510985307 13.419122398775318 131471.50111946007 8.037810003318368 0.21475519980599303
0.4749997969764706 13.38565214111704 118802.86506628736 8.280490431534936 0.21660893600411874
0.48571238492410335 13.354805965015924 107448.01699995877 8.528840522247382 0.21846803311306592
0.4965627736224513 13.326227803657396 97256.30858091968 8.785180492224807 0.22036354207927467
0.5075470832090675 13.299922320475224 88116.67864418699 9.045726029918187 0.22223967292922928
0.5186658918223116 13.275584032533844 79892.85280770443 9.31384137113203 0.2241423171097222
0.5299251586421924 13.253226570221669 72496.05786091954 9.589808678163376 0.226072278893305
0.5413183877012894 13.232686568398483 65831.60840859587 9.870260666005722 0.22798278036142663
0.5528438342231943 13.213876930122046 59829.63840815654 10.159779819441042 0.22993277551253402
0.5645170961489494 13.19663859626559 54407.223343518526 10.455893306265633 0.23188731249442804
0.5763118812214908 13.18092996578501 49513.30963172885 10.758780817649088 0.2338474612951838
0.5882505672412867 13.166587078385305 45088.891226144675 11.071473546155504 0.2358485583952138
0.6003153230147847 13.153639754042105 41095.305749120096 11.389189017006617 0.23782963809346122
0.6125218741280917 13.14195037299201 37476.43845151731 11.716371774457455 0.23984323792990972
0.6248557024285388 13.131365724423485 34196.79590521446 12.052680314018064 0.24188212236507547
0.6373182298644063 13.121929792148933 31224.25239772445 12.395066098840816 0.24390917610512802
0.6499165102332294 13.113494221021003 28530.06027572597 12.748550950234199 0.24597999812254365
0.6626383079380981 13.106043637514137 25880.064571426676 13.109378987914585 0.24804946939357397
0.6754898746493736 13.099468114321596 23861.095149780933 13.479353683006638 0.25013625173583043
0.6884699310312401 13.093771927542713 21838.248242451882 13.861247871236728 0.25226744453108546
0.7015754386399579 13.088881362147987 20001.19274520457 14.248540445672623 0.2543713109597584
0.7148040222844877 13.084713500737589 18327.65531129702 14.64838013724321 0.2565216606330948
0.7281542111867718 13.081200876300157 16802.93203716099 15.058222949764907 0.25868883203950704
0.7416316765545958 13.078394950658554 15414.26707347728 15.476858798360988 0.26085896676791703
0.7552235245615448 13.07620587133102 14150.115417173716 15.90901859211296 0.26307674920315655
0.7689338095480833 13.074535811964845 12993.801021401463 16.349046033715492 0.2652839907109196
0.782764996640132 13.073335730245585 11938.373787902983 16.801610061932383 0.26752437035396626
0.7967073353848207 13.072645285102723 10974.813170711015 17.267399231376917 0.2698010517523988
0.8107577425904219 13.072379314270878 10094.456552923446 17.741425844496636 0.2720654922327697
0.8249277370598616 13.072549985055996 9228.362899396676 18.230709079966203 0.27438017817050836
0.8392089581995061 13.073080715946682 8551.113658116688 18.73115564801826 0.2767048671157707
0.8535912453503194 13.073934661187366 7876.381051957511 19.24375646781741 0.27904671433670525
0.8680790008367383 13.075082798418745 7258.022269035818 19.77277493621832 0.2814398996775293
0.8826604721761089 13.076492594322293 6691.949254123827 20.310829990305784 0.2838183538752536
0.8973557310771626 13.07816893764023 6171.943405943083 20.865189665467838 0.2862419853729162
0.9121425501984339 13.080092826360016 5695.824639862839 21.435083911088412 0.28870072729800716
0.9270257871673758 13.082143037400275 5258.26175514164 22.016149587716452 0.29115673506611917
0.941997226205615 13.084351540041789 4856.334864719737 22.61571869266853 0.2936667541324704
0.9570634541096747 13.086717511629415 4487.082893297751 23.229124180019358 0.2961903601151736
0.9722106505949908 13.089208235307176 4148.462613639311 23.857751335168434 0.29873647975804435
0.9874456919632727 13.091801972787463 3836.436994073584 24.506275870110656 0.3013377875370127
1.002758485942231 13.094384101943389 3549.454577278118 25.167128456507 0.30393408923731335
1.0181501782951252 13.097066253807567 3285.1076733809914 25.84729004835868 0.3065755204533495
1.0336087301300378 13.099733959521298 3042.2825857343305 26.547954904018965 0.30926697787750257
1.0491376257187943 13.102402831637253 2803.5364823995014 27.261536914952657 0.3119511234952129
1.0647447508811274 13.105063993451799 2611.5739184800445 27.997565087193006 0.31469350343352503
1.080399155587114 13.107618170033073 2421.4688191094465 28.753556850701735 0.3174727847091332
1.0961233826202867 13.110168038035898 2245.6773622856904 29.526035695077475 0.3202625692290206
1.1119040749843265 13.112614223456877 2083.691346774302 30.322668541002134 0.32311207543444836
1.1277326081249817 13.11500715954808 1934.1948359494904 31.139291824839287 0.32598967678334406
1.1436073451004691 13.117213007618766 1796.1200400962548 31.975721678433647 0.32889174387197
1.1595332209119875 13.119339699968583 1668.486447582572 32.83815876188383 0.3318552105930961
1.1754901006972112 13.121267987721941 1550.577208994167 33.721354800383715 0.33484280252785503
1.1914823552462361 13.12304751547901 1441.5401247897926 34.627295462115384 0.33786453330960814
1.2075101188053876 13.12459507896791 1340.774536352419 35.56126360960812 0.3409495824000141
1.2235566593682972 13.126002294373373 1247.4653602276994 36.51769696713559 0.3440601434163953
1.2396247293518035 13.127129461255416 1161.0629129888628 37.49928736565231 0.3472097984548832
1.2557169694437393 13.12810168379994 1081.1545862429903 38.511118461153096 0.35042498645192643
1.2718091285972488 13.128753296673237 1007.0545282570688 39.54827708083398 0.35367295877032273
1.2879133526343645 13.129121276862827 938.325966031119 40.612322095344524 0.35695983773246737
1.3040177326743316 13.12923424612178 874.7191731516897 41.70904487550609 0.36031482116896474
1.320116648657185 13.129073487674676 815.6975738481545 42.835355833967725 0.3637162923218672
1.3362128465931595 13.128594687738616 760.9546143319373 43.98942865379885 0.3671509137611223
1.3522789176431174 13.127751580140679 710.1657274642904 45.17887683333603 0.3706566353662658
1.36834732048693 13.12666270876549 663.0059381110783 46.40384063686813 0.3742295501232809
1.3843807208484957 13.125182651586622 619.1984771718977 47.65640327073642 0.37782385451158007
1.4003786014616804 13.123309084129618 578.5176783952796 48.947342744211994 0.3814927537029008
1.4163535169933132 13.121132147588991 540.6922356355402 50.277682454406886 0.38523668083089235
1.4322727520660496 13.11850265611963 505.5529930314947 51.642234604259734 0.38902474166049505
1.4481411757715206 13.115501438369776 472.8157557961602 53.04451299478122 0.3928709936373801
1.4639625877467393 13.112056895368605 442.4526567323746 54.489669544783276 0.39679657515609745
1.4797306935627876 13.108247803196761 414.12627362073977 55.9788914438092 0.400802254129624
1.4954189253297574 13.103981923694066 387.7726713493593 57.50432477671555 0.4048454906819736
1.511038200923967 13.099249802049409 363.2445820934315 59.075840845584246 0.40896962144205484
1.5265796515023509 13.09410240829319 340.3989732741709 60.69548962816662 0.41317913228415204
1.5420373430710674 13.088475606005973 319.10379672643074 62.364664131140465 0.4174751866564835
1.557400065889886 13.082309640758101 299.24338988039057 64.07615598727419 0.4218196613932448
1.5726648693032665 13.07572403539461 280.74563587656655 65.83985370407682 0.42625319454023003
1.5878338780274637 13.068624534807556 263.4785400956891 67.65787440821002 0.4307797389828561
1.6028802373747109 13.061009082409335 247.36666696997906 69.53186908328463 0.4354009243969388
1.617813498899028 13.052833846653972 232.3189249934879 71.45929809074259 0.44009998972222997
1.6326144882971352 13.044156056329653 218.29579893125577 73.442344267129 0.44488120397194675
1.6472951603089503 13.03495875174997 205.17994347580535 75.48706625921642 0.44976495615357054
1.6618405942379753 13.025215706471483 192.93153639810998 77.59543777276596 0.4547534265234842
1.6762384940086135 13.014924042648689 181.4827756271179 79.76952329310978 0.45984896405690306
1.690482017565721 13.004032191482159 170.7844116812043 82.00918306016969 0.4650446201013446
1.7045710460241636 12.992597165456141 160.77955693521193 84.31443861635852 0.47033429649739805
1.7184903535745368 12.980543517345103 151.41702450871608 86.69254505532977 0.4757411481087854
1.7322485628873936 12.96792043120604 142.6517285672108 89.14599334156895 0.4812682047141033
1.7458123316196827 12.954684901560926 134.45636384872063 91.67739497928626 0.48691869901242435
1.759203603404886 12.940839761011247 126.77579276534573 94.28948902639644 0.49269607401010806
1.772381655675213 12.92631879400576 119.58932312942213 96.98514950868282 0.49860399091485647
1.785373566960305 12.911254865982812 112.85627438027507 99.76521325110444 0.5046379669889361
1.798170127204858 12.895540267560587 106.53604470747077 102.63273607128001 0.5108019389658165
1.8107516752304151 12.879204714972555 100.62368104521853 105.59374626618411 0.5171106832659645
1.8215141773799652 12.863381227883293 95.69042392130768 108.84103910353095 1.1229798726072762
