M[M_sun], R[km], Lambda[1], P_c[MeV/fm^3]
0.2416256617698247 15.618651145374681 2177801.9092585477 3.56783057247785
0.25223464079401875 15.314239409487021 1782935.1667699062 3.759353745303769
0.26314075989839486 15.045982822836839 1466802.663800469 3.9582400948692684
0.2743425835896407 14.808847715875448 1212138.9841300664 4.164756417097769
0.285840557062134 14.598695399195979 1005939.450108122 4.379184170656116
0.29763675391929195 14.41194983551531 838070.2521952955 4.601796686680681
0.3097309676658357 14.24569913776496 700803.9483488388 4.832879767870121
0.32212395928866777 14.097447483211392 587974.1153527151 5.072754126565572
0.33481351253492037 13.965251796399949 494992.33925853984 5.3217235964397664
0.34780511146116294 13.847014657839473 417977.0534777871 5.580115558916729
0.3610952354687571 13.741337441399631 353916.2717298294 5.848289488410293
0.37468725451502954 13.646884643880838 300531.7805512881 6.126589308382466
0.38858032484598615 13.562449162933497 255832.8860872878 6.41536905405779
0.4027755644506651 13.4870152670144 218319.036579626 6.715033563352786
0.41727299602457224 13.419682835876934 186729.01196503462 7.025980379680032
0.43207334537923714 13.359668802570441 160079.4480540405 7.348623666155332
0.44717569005509594 13.306211933757417 137523.36078591735 7.683394874478667
0.4625808009689387 13.258725764958534 118373.66617621279 8.03074344759909
0.47828748935961374 13.21667927255268 102098.88048983362 8.39113755810888
0.4942954396242788 13.17955070533329 88223.9984156488 8.765064884509552
0.5106062914386045 13.146877881755332 76360.38620229685 9.153033427721477
0.52721568682393 13.118271322948473 66215.05064503074 9.555572370470092
0.5441250228572263 13.09337937447112 57505.14599955314 9.973232982475123
0.5613322840432873 13.071840747989233 50020.18601429809 10.40658957469935
0.5788357903957737 13.053343280539858 43579.946751747 10.856226516893038
0.5966325708019176 13.037691898654447 38022.117122894626 11.322759472450254
0.6147226072577392 13.024527970995061 33224.87235614783 11.806855386956125
0.6331016148732758 13.013712198143677 29067.414847996006 12.309191619539915
0.651767680997599 13.00498821321541 25465.34723262197 12.83047427048798
0.6707187535309913 12.998161986655822 22340.379041725802 13.371439524887151
0.6899510088639077 12.993059709421187 19623.06980627378 13.932810401131569
0.7094562664622737 12.989524353337698 17256.253764461075 14.515425241024861
0.7292342447490222 12.987406472481883 15194.452791315338 15.120124208190836
0.749280276221219 12.986523607865333 13392.254853511147 15.747779644675097
0.7695901810340262 12.9867765437564 11818.372827490073 16.399302188544052
0.7901570101099381 12.988022077905313 10440.61763944782 17.075607213225076
0.8109748087284712 12.990150812067519 9233.676157929884 17.777709935632302
0.8320361052418784 12.993052178399694 8175.6629749224685 18.506663400760672
0.8533396175052915 12.99660437889743 7245.075083625834 19.263553629675357
0.8748705459080052 13.000733552134816 6427.713815075957 20.049516432222166
0.8966273253816978 13.005333326252172 5707.9148012480755 20.86574021563025
0.9185989080956419 13.010314820774108 5073.049097118175 21.713469004003567
0.9407789270176007 13.015595128717447 4513.803802221248 22.59400568662339
0.9631556029959938 13.021100498662431 4019.8773339819363 23.508715514371584
0.9857217740539627 13.026746770258855 3583.091502033682 24.459029865074736
1.008463447328453 13.032469562603142 3196.9644131715704 25.446450300167935
1.0313765412960958 13.038178734273655 2854.6949324025195 26.472552936803385
1.0544478650559859 13.043832246053348 2551.202127043442 27.538993161395315
1.0776610921292038 13.049354698611152 2282.4312080124882 28.647510712618192
1.1010085308819526 13.054679685934541 2043.4930069984175 29.799935164081813
1.1244773604038067 13.059755255764179 1831.3474414877392 30.998191839314536
1.1480543003802959 13.064517987294588 1642.3583610857415 32.24422970860997
1.1717247797193069 13.068923248560841 1474.2176997975246 33.54019463415367
1.1954769772227998 13.072905458717026 1324.296065208365 34.88837899173698
1.2192925004005408 13.076424580321934 1190.6929949116811 36.29098635936106
1.243159748187897 13.07942198189338 1071.4769974097867 37.75063072434933
1.2670624297251578 13.081854437603877 964.8998680113291 39.269765493161906
1.2909810318913182 13.08366215099309 869.7130002377841 40.851265180178174
1.3149034630788634 13.084813017222338 784.5430325613645 42.497918154045315
1.3388115600987582 13.08525741410782 708.215157538238 44.21277294360152
1.3626857305461597 13.084947249367513 639.8801270733355 45.99908635667652
1.3865110155321154 13.083839746738978 576.3271165585238 47.86023748715584
1.4102658171592302 13.081904185772542 523.6233311073094 49.79980611332077
1.4339356514508539 13.07909203128715 474.26574647996415 51.821587902650656
1.4574964345470152 13.075368560887249 429.85647806017846 53.929610878520286
1.4809287009011534 13.070696810463913 389.95001175455525 56.12804861951434
1.504216377354149 13.065032318499629 354.03367754574066 58.42143493697441
1.5273370791993621 13.058339521424896 321.700303435432 60.8145825369365
1.550269368613418 13.05059058484589 292.5226881952365 63.312458591271316
1.5729943247678617 13.041745496959603 266.23150207469877 65.92044088124815
1.5954865909868219 13.031769200004591 242.50442792762342 68.64425379163391
1.6177289334076066 13.020634955192387 221.06647880577532 71.48991400281707
1.63969711968389 13.008304800210238 201.70048223386172 74.46384303975785
1.6613704079053433 12.994750311658422 184.18783961740488 77.57290040037387
1.682725247187609 12.979944538341725 168.32257830603845 80.8242932096205
1.7037381467628663 12.963856999397777 153.965767492747 84.22580816281065
1.7243910584373554 12.946451276829153 140.93979365541878 87.78567079849863
1.7446569348087937 12.927707688421254 129.13495014207243 91.5127363438016
1.7645142744643887 12.90759910068052 118.42296900407173 95.41636567501136
1.783939317724456 12.886098930890183 108.69736579191094 99.5066056540936
1.8029114953908614 12.86317971590072 99.85612753688983 103.79424801504972
1.821406308639859 12.838815151190458 91.81727265052058 108.29062185786947
1.8394017273646268 12.812992165351087 84.50070570891113 113.00819908148569
1.8568732767953084 12.785682583890763 77.8419918844255 117.96007002241738
1.8738029149885642 12.756870257761298 71.77185311930754 123.16034405453995
1.8901618752343172 12.726525147575986 66.24470877120089 128.6242402826661
1.905933501936505 12.694636014205726 61.19342762253831 134.36807239090243
1.9210912137449916 12.661189661571271 56.585936124164796 140.4093542427414
1.9356187575708403 12.626164100470906 52.377311607053656 146.7668775092748
1.9494892807593163 12.589548834041448 48.530388019796874 153.46094966939083
1.9626881564616705 12.551327305587687 45.01281055928448 160.51359327732607
1.9751886543746766 12.511493193467333 41.79120901757537 167.94833616294667
1.9869740800542235 12.470032384138191 38.84378538098279 175.79077871876984
1.9980245785268373 12.426936864995449 36.14356310633471 184.06855405765432
2.008323139843263 12.3821970641298 33.668787131307155 192.8113711546798
2.0178444289808017 12.335817847004517 31.398054144109523 202.0517821593738
2.026578428905404 12.287791820301612 29.313008729731912 211.82485912788317
2.034506265838564 12.23811667132762 27.401323524350257 222.16869374113685
2.0416029925409886 12.18677722320211 25.643261844781016 233.12475938047237
2.04787467204335 12.133834298982075 24.0287416305002 244.73807549756145
2.053279309952831 12.079217177236414 22.543069870622524 257.0578833708013
2.05783025357197 12.02302018520836 21.17716184020014 270.1376091790712
2.061493867526696 11.965175278037021 19.920518819496344 284.03580164719205
2.0642268430769413 11.905973262633406 18.769817379317953 298.8530928252699
2.065159650156299 11.847481528542465 17.80035234758245 315.1631354194179
