M[M_sun], R[km], Lambda[1], P_c[MeV/fm^3]
0.2416256617698247 15.618651145374681 2177801.9092585477 3.56783057247785
0.25223936435094146 15.31409096901753 1782821.9592294807 3.7594324566547037
0.2631495060824788 15.04576384077845 1466483.418427793 3.9584041215924177
0.2743559580552131 14.808615752955141 1211859.4327790681 4.1650116101488335
0.28585933201788594 14.598387135299003 986122.0191995081 4.379536947214986
0.29766131373507854 14.411578650093592 837771.6640564719 4.6022555596706
0.3097601972054302 14.24531086243862 700481.7964839387 4.833450263954975
0.32215814119665814 14.09708476574606 587725.5478664853 5.0734462334070365
0.33485689716724165 13.964798591363216 494721.64119697735 5.322542595861686
0.3478528425562785 13.846611093153703 417730.1038855654 5.58107307991513
0.36115057177848475 13.740912458449491 353677.49043727206 5.849394837564285
0.37474824567908227 13.646490966305613 300324.2416134452 6.127847355609963
0.38864900653068724 13.562052822313332 255627.97936062692 6.416794266836262
0.4028520003598538 13.48664980924618 218137.46994168384 6.716636608049262
0.4173567970499344 13.41930986490457 186561.16450922078 7.0277724381384425
0.43216412994059616 13.359296077088135 159924.6622634205 7.350616464628947
0.44727373919278995 13.305907875145996 137389.5516573903 7.685600714442942
0.4626866014133482 13.258444833908372 118253.62552694629 8.033175238581483
0.47840237590569656 13.21639816218911 101990.59073869429 8.393808852682715
0.49441934954323297 13.179283524951352 88119.82722646213 8.767989915610633
0.5107389536506921 13.146627556363725 76271.2759172032 9.156227148458358
0.5273579358879799 13.118051240504455 66135.3120995055 9.559050496611404
0.5442765302311977 13.093157280994062 57431.758095211066 9.977012037811729
0.561494069570259 13.071642513683349 49957.24946650046 10.410686939493038
0.5790064704669169 13.053181439371533 43525.107106633935 10.860674469025398
0.5968137618505852 13.037525788705878 37970.226153114876 11.327566136847281
0.6149142470871162 13.024411488497126 33177.13212751581 11.812039346443006
0.6333051069212746 13.013587342208027 29024.584548086506 12.31477428438058
0.6519823827358757 13.004881323887949 25427.62277243247 12.836478206304077
0.6709426319586516 12.998101592591 22307.279820793316 13.377888525152034
0.6901833569758786 12.99301472471368 19593.3656496426 13.939753006898972
0.709701043573126 12.989509666799368 17229.286099565306 14.522865947376717
0.7294916114374038 12.987390948210379 15167.75782646539 15.128091039846876
0.7495500094190377 12.98652822109188 13369.99500182201 15.756302201427998
0.7698700042556489 12.986796227387773 11798.211374789104 16.40841174748418
0.7904496156810294 12.988047986089722 10422.944603310532 17.085368451908334
0.8112789359150545 12.990186200550246 9217.766069471878 17.788127998686473
0.8323534100132041 12.993103477481915 8161.105724109839 18.517775360372564
0.8536665528099584 12.996666190870616 7231.500429804784 19.27539872654892
0.8752136496947683 13.000807732059801 6415.585083812559 20.06213622071687
0.8956816046980036 13.004192196892474 5733.260472442309 20.89805896926598
0.913517794110757 13.003617654289778 5193.493221194025 21.81190445614358
0.9292466647691239 12.998256767636544 4748.868547891454 22.804624133375842
0.9432806097703937 12.98801020217345 4372.2661715856 23.876716954188367
0.9560086971351915 12.973090342053643 4043.767740269407 25.02861012672483
0.967691502945757 12.953682348222564 3752.0627339441253 26.260892848036796
0.9785810600786785 12.930068941369113 3487.646445246389 27.574319570491205
0.988866863248036 12.90263265688371 3245.575764447935 28.9697647835537
0.9987140810618825 12.871578894746031 3020.825345718569 30.448284801989285
1.008262374239931 12.837236023318859 2811.414273339104 32.011188289124576
1.0176171747459706 12.799861563603967 2613.9960304011115 33.660078750879634
1.0268976558629535 12.759763828627948 2427.8818629306666 35.39637036477939
1.0361674429561407 12.717138880736112 2252.3173847946587 37.22215994988832
1.0455283893195373 12.672301969088425 2085.851267612339 39.139324444162746
1.0550240553715282 12.62549722008392 1928.4534867353416 41.15052437851193
1.0646964885205428 12.576952446944691 1780.1028151316111 43.2588303110195
1.0745860945016326 12.526887277674088 1639.8595854727769 45.467297723508864
1.0847175511616307 12.475560209833967 1508.1202357772531 47.77960824998176
1.0951187556154118 12.423116549628848 1384.5775712777834 50.19935658480049
1.1057993466764686 12.369774676510259 1268.979592385418 52.7305536176261
1.1167765645763224 12.31570997118617 1161.1586577413213 55.37765675718735
1.128058274730674 12.261086386975794 1060.890851937098 58.14528277385883
1.1396260286674367 12.205997067848998 967.9745979319571 61.03847714051955
1.1514915799958185 12.15061975171286 881.9503661285617 64.06255214171081
1.1636350221052536 12.095047405972464 802.743529707656 67.22342608455419
1.176047644128756 12.039396164008005 729.8440706509901 70.52746371332898
1.188705246015947 11.983742595042992 663.0331581532762 73.98159945717754
1.2015890235974331 11.92817048114193 601.9046909467431 77.59344843183548
1.2146512914550036 11.872733463807256 546.1737751431051 81.37185826727918
1.2278609764775013 11.817518324245476 495.4918921355879 85.3271879207206
1.241130197461799 11.762539304645337 449.50347577783293 89.47255246476998
1.2544261024257664 11.707669892057288 407.8645060965838 93.81705120093892
1.2679802817274706 11.65260546699981 369.7203492278703 98.34796024968844
1.281780093951201 11.597578430247761 334.84889915378034 103.07293960367416
1.29580742253325 11.542798742155274 303.08308231641496 108.00285134486387
1.3100361840344237 11.488354986923198 274.1601573481882 113.14886047725773
1.324414560575354 11.434324856490536 248.01140646734584 118.52325399467185
1.3389151437538607 11.380751978659465 224.3217561833407 124.13898237746326
1.3534797048059324 11.327627857464499 202.97157832062857 130.00978454627378
1.3680735607354888 11.274954918983994 183.67346178986736 136.15066895025143
1.3826405776204482 11.22269254200895 166.29859797845796 142.57755144518245
1.3971413175511829 11.170802656948041 150.65486267476558 149.3074596022539
1.4115235281718836 11.119239174095338 136.60040708175384 156.35868863803563
1.4257504155999408 11.067964057519937 123.96051178677173 163.7510826639754
1.4397693255157522 11.016882526406306 112.59825129479609 171.50574358226106
1.453546150983427 10.965935653404532 102.3822441071711 179.6454798909553
1.4670333330362304 10.915081480352583 93.1860146214954 188.19487871445472
1.4801864862747123 10.864240271484634 84.9275843785429 197.18032936961706
1.492982136686342 10.813317032239008 77.49932563862774 206.6304773878552
1.5053657866000663 10.762273807970628 70.80609456036726 216.5760886898167
1.517310435592226 10.71102435738658 64.78445021037267 227.0505072371268
1.528774363900045 10.659513502808496 59.35392515374044 238.08987892492812
1.5397210703029158 10.607655278825046 54.45953279707943 249.73315707253786
1.5501210261098668 10.555438913551347 50.049229894419334 262.02276073818894
1.5599685714230025 10.502771893748669 46.05900646513711 275.00464334176985
1.5691889215031896 10.449594038204296 42.458422178851116 288.72873190219815
1.5777795501897705 10.395802895629854 39.19982395489249 303.2493354542902
1.585732018979904 10.341542099581044 36.25092174980589 318.6254943118393
1.5929902081143361 10.286527822984796 33.578981429205236 334.9217051279787
1.5995497427998238 10.23083724085453 31.156313568303243 352.2081903654902
1.6053772347714332 10.174450556432696 28.95901425424293 370.5616942320846
1.6104613691579064 10.117309315719597 26.964711166324342 390.0661551391116
1.6147808237017873 10.059408887479771 25.15189523004724 410.81346898525794
1.6183220328690515 10.000759460182483 23.503581972669895 432.9043541125257
1.6210672733097036 9.941232009369221 22.005498757543712 456.4493303992061
1.623012312852826 9.880905319307288 20.639536079157633 481.5698268794896
1.624136517735048 9.819793888825748 19.368640062711307 508.39943454694674
1.6244365091013275 9.75784514187278 18.26861795275726 537.0853236552459
