M[M_sun], R[km], Lambda[1], P_c[MeV/fm^3]
0.2416277750616976 15.618515526848569 2160338.09801669 3.5677787854173952
0.2522381936327359 15.314127077925066 1768243.9524430032 3.7593694775926165
0.26314507172967533 15.045904284797524 1454208.1817499876 3.9582823171470416
0.274349496520611 14.808781213561698 1201480.2750611554 4.164852572359504
0.28585131221132626 14.598552682678507 996926.7172970641 4.379374321269439
0.2976507862535856 14.411777907902094 830522.7463296293 4.601999294241666
0.3097484856894522 14.245497274712768 694282.051854251 4.8331395426198105
0.32214296938591935 14.097321812022626 582556.9104062503 5.0730921831276525
0.33483754941285165 13.965049218291686 490363.1563629117 5.322167116577743
0.34783225855527095 13.84681295602466 414003.25777982024 5.580616765920889
0.3611296693033715 13.741068371352455 350534.2196397939 5.848843990123883
0.37472221852014626 13.646667722805102 293445.29099028686 6.127212461476203
0.3886193987525401 13.562245661020901 253346.98466833972 6.416088625554829
0.40281941455651055 13.48684432163016 216188.94851957244 6.715854324562301
0.4173206360801442 13.41949540858505 184899.02558624712 7.026907404767768
0.4321246344497317 13.359472240356764 158507.17157292977 7.34966235439415
0.4472310009736012 13.306041876379771 136162.6215476018 7.684550973586709
0.4626403162695608 13.2585932197142 117196.77911902967 8.032023078239584
0.4783522904477731 13.216543881937572 101089.0833277269 8.392547239624818
0.49436661631540885 13.17941406761508 87352.57222250747 8.766611561967341
0.5106811293516601 13.146756586415261 75604.905863761 9.154724500337567
0.5272963557428456 13.118158525210804 65559.34944751237 9.557415721495099
0.544211254864964 13.093260837660512 56936.18909811703 9.97523701061108
0.5614234012395667 13.071748600865686 49529.53465278768 10.408763227127727
0.5789326520849714 13.053272822962112 43153.341392963455 10.858593313377957
0.5967357170678261 13.037605208479516 37652.66700476565 11.325351359993277
0.6148306970995105 13.024489188269154 32898.00412612953 11.80968773257018
0.6332166225127195 13.013656721092973 28784.243911295813 12.31228026454688
0.6518882081055868 13.004959754073225 25220.927429691725 12.83379807713106
0.6708452494024784 12.998138230718396 22124.551412046847 13.374956161402256
0.6900823561400522 12.993064005459392 19434.459179527043 13.936575142760509
0.7095948542609375 12.98953297413512 17090.481328407044 14.519457080475556
0.7293802001871589 12.987415248666732 15049.029178576082 15.124438802321956
0.7494328178822303 12.986543129736392 13265.816763884666 15.752393638187197
0.7697493718525157 12.98680488126902 11708.034466816514 16.40423327158497
0.7903221988306852 12.988052959665042 10343.51502712139 17.080909719427904
0.8111469113185602 12.990194600911218 9148.553590510268 17.783417451312626
0.8322178189758084 12.993093808829716 8099.902049433897 18.512795660523047
0.853524665640815 12.996656858892493 7178.742329456316 19.270130699972658
0.8750640136136298 13.000799493609023 6368.279763469054 20.056552782965735
0.8968276825627803 13.005388691632827 5655.917694274935 20.873197713293404
0.918806164145699 13.010389033234816 5027.332894088591 21.72138057403802
0.9409932331713144 13.0156689332209 4473.17033458699 22.602407253961026
0.9633760995008424 13.021172206454848 3984.1657117627087 23.517646202682464
0.98594964587333 13.026817043637783 3551.46156592739 24.46853220549938
1.0087011463602062 13.032536429268015 3168.9202699086627 25.456570450122875
1.0316197864299452 13.038262724507417 2829.849637815046 26.483340909554105
1.0546955477795679 13.043910981111582 2529.34441128765 27.55050306719437
1.0779182297293304 13.049422607587708 2262.99326092319 28.659704963302445
1.101272481271706 13.054753250935079 2026.1856538985437 29.81281436717374
1.1247472535587342 13.05982530940845 1815.6540971974719 31.011779661323356
1.1483294016450898 13.064591646286486 1628.5070563082438 32.258628695555366
1.1720070595865009 13.068988358547296 1461.8726857523668 33.555498385189985
1.195764141523441 13.072972743324959 1313.4513490800518 34.904642155634704
1.2195870392445325 13.076486780059447 1181.0223149487094 36.30839803857626
1.2434600323991722 13.07948005541166 1062.815497971481 37.76889307977643
1.2673686086937335 13.08189676597211 957.1714089447926 39.28912848454418
1.2912932613099717 13.083705369397675 862.7473016816776 40.87190423654776
1.31522116815211 13.084839221483 778.2878438055255 42.51970234834395
1.3391343629033716 13.08527014640318 699.8185728704798 44.23585291034572
1.3630150727057535 13.084953156011547 634.9423192010012 46.02369589541263
1.3868426499333206 13.083840741968071 574.1862906512072 47.88615020980453
1.4106031960321883 13.081887992346083 519.6323344962866 49.82743517012922
1.4342745958573582 13.079063405064364 470.7005558902978 51.8507035326056
1.4578390855933392 13.075329783205367 426.6474584225603 53.960470221096024
1.4812773180130097 13.07063816775071 387.0654256324757 56.16089100231375
1.5045673249832654 13.064954154062027 351.4471638204447 58.45608438180366
1.5276900012846857 13.058247436687257 319.36321893129997 60.851269785564234
1.5506258430175146 13.05047761161283 290.43702621840066 63.351427127677866
1.5733511067572283 13.04161525824335 264.36589796451574 65.96185720365038
1.5958461667361643 13.031616352416584 240.82431171853975 68.68820763726366
1.618083413343212 13.020448792219156 219.53527082103005 71.53650103220677
1.6400571328879758 13.008112257030515 200.3153007313313 74.51316553114445
1.6617298425121338 12.994535438617914 182.91763612117515 77.62506800765391
1.6830843836049136 12.979703175445252 167.1934426706507 80.87955014192106
1.7040985045015102 12.96358451902003 152.93626253896943 84.28446765950058
1.7247483445294478 12.946155889668237 140.00760970707324 87.84810561890795
1.7450107412277645 12.92738621068147 128.28781051569035 91.57874941947038
1.7648664503912384 12.907245655744044 117.66336400618218 95.48672186983674
1.7842879424165738 12.885714396759642 107.99726126302895 99.58101957973234
1.8032560393474457 12.862764910748188 99.2269950384045 103.8732738200722
1.8217454529325836 12.838372769537475 91.24157189484018 108.3747962403024
1.8397353175898987 12.81251481899393 83.97965138906775 113.0975786247303
1.8572014475481737 12.785170761386224 77.36937159065235 118.05502285633307
1.8741238072980018 12.756319679244909 71.33723257268255 123.26139156579207
1.8904751454914028 12.725941322685546 65.8411726251177 128.73163031613538
1.9062371882028166 12.694017372049014 60.83219860610854 134.48216469862624
1.9213875625360015 12.660527330739924 56.25444176348383 140.5308706026061
1.9358942268245278 12.625434851073717 52.07651203510677 146.89620539079914
1.9497665990272612 12.588811404142145 48.2526183808438 153.5990081503577
1.9629423201885852 12.550512740582061 44.75827746572855 160.6605282607946
1.9754430970760923 12.51067197073813 41.559619148290444 168.1050082999907
1.9872164673948978 12.469165699675587 38.630120432900654 175.9579411527656
1.9982548030314735 12.4260220401604 36.00234120843274 184.247025102341
2.00777973388572 12.382214838678019 33.59961227674916 193.18237767186346
2.014117667672367 12.337642497027977 31.717816332601316 203.15496726119827
2.01722475484118 12.290450562209637 30.200429609002196 214.23807578615794
2.0173409123898396 12.239817474360642 28.961320689691487 226.50057316043117
