M[M_sun], R[km], Lambda[1], P_c[MeV/fm^3]
0.2416277750616976 15.618515526848569 2160338.09801669 3.5677787854173952
0.2522409600763382 15.314075800626723 1768168.2726963575 3.7594157635747623
0.26315115454916166 15.045785910913338 1454094.8359294245 3.9583779784434086
0.27435871145561863 14.808563332390268 1201325.1996812634 4.16500201317021
0.28586305931059613 14.598355906270498 996854.4201284552 4.3795800701848995
0.29766429744068934 14.411581736177927 830326.7865201884 4.602266922234581
0.30976474051789177 14.245301767210147 694159.8421288703 4.833473609587051
0.3221637775512288 14.097072445985345 582391.9065884753 5.073497458065684
0.33486032626140044 13.964843265573931 490187.9809358052 5.322648588618687
0.3478594834850432 13.846593372143634 413854.75903358514 5.5811752519257425
0.3611577713085466 13.740912132966718 350396.38709338906 5.849488703980791
0.37475754647176435 13.646438232880401 297477.2699725587 6.127949089883576
0.38866032433142145 13.562004614147607 253237.57848767596 6.416923125963472
0.40286272311726473 13.48661707996284 216088.09702137252 6.7167929401237245
0.417368578148289 13.419291304295879 184801.4767154613 7.027956680240898
0.4321775779180262 13.359279235231508 158412.0507249846 7.350829153078938
0.44728970084747816 13.305840395218704 136077.44483413707 7.6858424953581865
0.4627032474787461 13.258406822128594 117133.33449951049 8.033446878762645
0.4784204170623435 13.216367265552138 101026.28255896569 8.3941112508356
0.4944389209946969 13.179265266363133 87294.42563600524 8.768324113914437
0.5107589267337799 13.146613486824084 75554.02373115516 9.156594344482652
0.5273796528448497 13.11802505488545 65512.48596213421 9.559452055581033
0.5442989420815112 13.09315031875927 56895.29717224081 9.97744950521261
0.5615193469352446 13.071612929402116 49493.802547149295 10.411162054009258
0.5790327478962614 13.053172183136024 43120.23806872921 10.86118917579181
0.5968412782796548 13.037537290409851 37621.97154726194 11.328155525061938
0.6149434321735058 13.024397037946343 32871.553812977116 11.812712065906112
0.6333350267759165 13.013614428403207 28759.657221257123 12.315537267275872
0.6520131342417018 13.004894629332725 25198.94940114067 12.837325100423818
0.670976759533451 12.998100742704096 21934.352356198513 13.378744483654573
0.6902189501003978 12.993035744067884 19415.464376306954 13.94063948535724
0.7097379901351409 12.989517189612027 17074.398062639502 14.523812978634991
0.7295314030328314 12.987389427942006 15034.514177296625 15.129102657238752
0.7495901969277107 12.986537855720375 13252.460088916683 15.757382772884977
0.7699123637617622 12.986808069957505 11696.157390495484 16.40956599075816
0.7904935395245035 12.988071686355683 10332.81906159568 17.086605373574933
0.811325070266453 12.990216135775057 9138.900287558507 17.789496505485758
0.8324013677307799 12.993126450931964 8090.651965114957 18.519279768049152
0.8537177692402914 12.996699937393748 7170.8739461965515 19.277042781525672
0.8752657366533453 13.000833023680583 6361.327779094351 20.06392302581988
0.897032309904934 13.00545683380887 5649.313538849566 20.88108869438697
0.9190202197538695 13.010429257550848 5021.5969876187555 21.729779356677668
0.9412143290840744 13.015725912635116 4468.056534680561 22.61134284970798
0.9636057921057942 13.02122694101329 3979.523414853524 23.52714938720407
0.9861845823326951 13.02687962013636 3547.277042404607 24.478635640188315
1.0089448282188371 13.032595879957617 3164.881987245232 25.46730881286642
1.0318648653036606 13.03833249502478 2826.1890044338957 26.49475103539867
1.0549521965783901 13.043967426921373 2526.1571266416286 27.562577563600023
1.0781807377551191 13.049493493228034 2260.09113270031 28.67250581313403
1.1015425292977816 13.054811630092324 2023.5996138951286 29.826408379222944
1.125024942006915 13.059881406422425 1813.3386580347424 31.026213770333964
1.1486157039045235 13.064643429888696 1626.429741186579 32.2739528670433
1.1722990661342123 13.069038389777662 1459.940305204626 33.57176583474009
1.1960627412508085 13.073024671154663 1311.7207738773498 34.92190958558472
1.2198916523390195 13.076524313372468 1179.350514094053 36.32663053880316
1.2437712195597022 13.079515869308988 1061.3708986227557 37.788245787439664
1.2676849114300734 13.08192121137882 955.8407689500175 39.30966995139889
1.2916165199795733 13.083722373775508 861.5777170395726 40.89370763991708
1.3155491210536696 13.084851469803853 777.2601536660038 42.542732359391955
1.3394678995238305 13.085269281137275 701.7077382638967 44.26030091744248
1.3633525872512136 13.084940757042997 634.0341282182559 46.04952808685409
1.387186050162908 13.083814038577406 573.3781677247969 47.913578435554754
1.410950547097746 13.081855489411648 518.882465035935 49.85642795954493
1.4346271328950164 13.079012687821969 470.0154215051108 51.88149585535337
1.4581941708775004 13.07526818872132 426.01652876317047 53.9930339450729
1.4816361769018136 13.070559931036044 386.4995144388276 56.195487316323266
1.5049287498501651 13.064860349908283 350.92007784438823 58.4926897016746
1.528055019430998 13.058134041267127 318.8824066799294 60.890013378705895
1.5509925118247494 13.050343513775182 290.0029836219407 63.39244765100941
1.5737197743830649 13.041460316005145 263.9651246549744 66.0053034571734
1.596217693562199 13.0314416281477 240.448470610174 68.73423938521967
1.6184546334429835 13.02025060998205 219.20609961536286 71.5852898985717
1.6404292522035464 13.007888849614229 200.00158101887448 74.56489597693738
1.662100409367923 12.994289733558078 182.63044888814912 77.67993839836673
1.6834546830339296 12.979431967688193 166.9294689388182 80.93777391429013
1.7044668767808095 12.963286307377633 152.67861808945852 84.34627459787666
1.7251157999556477 12.94583144270934 139.78796505960497 87.91352295711741
1.7453758242009223 12.92703135404948 128.09337563602236 91.64825536699713
1.7652275422486614 12.906862967830735 117.47028818329072 95.5603759686122
1.7846464176817665 12.88530089757041 107.82208584345372 99.65934236613188
1.803609035319261 12.862319390317348 99.06375412035561 103.95635526101826
1.8220941771209453 12.837890353774688 91.09704064030966 108.46297932702268
1.8396780174052485 12.812206575350867 83.97715856891347 113.23186734441032
1.8529553001200576 12.784665698705659 78.48542958741322 118.60387974975112
1.8615677266844506 12.752643666172585 74.2995440729818 124.67712202984062
1.8661342955505222 12.715118907746348 71.03232846065144 131.47837841105797
1.8672489867129367 12.671858795710824 68.41995442944739 139.03667951030212
