M[M_sun], R[km], Lambda[1], P_c[MeV/fm^3]
0.22031556384237483 16.221832015775128 3164034.06818939 3.788397289924823
0.22145907325617376 16.068907392698513 2986160.910227295 4.110415810694408
0.222120031221116 15.918336136710638 2830250.7875549938 4.4682887127283895
0.22249860524485154 15.762655735521625 2683685.947192894 4.861541536420122
0.2227490129908035 15.596781348483287 2538251.772393629 5.288733072529329
0.2229996041607889 15.416878908792574 2388428.339541436 5.750270708302219
0.22334072423023432 15.221260122763075 2233218.4398202314 6.244658198111175
0.2238692891538236 15.008626086997754 2070528.8069020764 6.771608699165049
0.2246454088515979 14.779412428809737 1902594.4995678458 7.332059135055157
0.225736628994357 14.534405143139042 1731391.4211907233 7.923271236830157
0.22718848372194322 14.27572738757074 1559770.2768691494 8.54687419488726
0.2290403356713507 14.005893507335063 1391176.5900509604 9.203207058491252
0.23134064978374255 13.727723296366014 1228940.022023015 9.892181521403353
0.23410417989588556 13.44451296774212 1075470.6880855062 10.613471875672175
0.23735153807436973 13.15949698713477 933075.0869306618 11.367140696401703
0.24110258250486924 12.87599828824095 803502.895473459 12.15457834886176
0.24536135172602302 12.59708143790016 687107.1012580685 12.97637697887334
0.2501157590811939 12.325027101459732 584373.4173920434 13.833345728866663
0.2553881757112411 12.062159015683235 494689.35352643405 14.726560069858706
0.2611406383983835 11.810195943120391 417216.68793339346 15.657108321487415
0.26735520391054807 11.570678440770422 351220.65176827245 16.626243972106177
0.27400472858469405 11.345049033512604 295385.3652499868 17.637747928455553
0.28098960782585297 11.13414809784398 248755.5364351551 18.696676502575997
0.2882667673034576 10.9375378592944 209825.88657139605 19.806005564244746
0.2961351969712764 10.748760498065268 176296.58793096562 20.949626042315916
0.3046548445243409 10.569067598495435 147604.83915008002 22.129088537750537
0.3138303842221234 10.399513960316787 123283.28308745414 23.343760021304636
0.32362007831193784 10.241073501916123 102856.60640292244 24.59547467378466
0.33401914942553423 10.094614636202333 85803.87897134646 25.88504982901204
0.34501602805331133 9.95931566044754 71610.56933166567 27.215347264842915
0.35656512206517843 9.835338260923587 59819.20037289906 28.585102469623397
0.3686707738645632 9.722109717890115 50041.46887134958 29.9980118513436
0.38129097111630067 9.619207434962783 41941.367688255305 31.45540068509796
0.39442191991980236 9.526059719009444 35221.365623288504 32.95868502862848
0.408027245297584 9.44181302017905 29645.85140536673 34.5094719988847
0.42209548820579235 9.36609903439062 25016.893325766418 36.109548191922194
0.4366028539759973 9.298138209933708 21157.863413340867 37.760872986189355
0.4515342364346286 9.237370301164148 17939.084528192714 39.46557557157172
0.4668636165820102 9.183143707520491 15249.482569819766 41.22595490672668
0.4825767180606575 9.134912001624757 12994.913643901213 43.044423157600434
0.49864924271211286 9.092185407299331 11103.327279707213 44.921689887629434
0.5150671662139836 9.05457412654723 9508.168353681916 46.862273519712886
0.5318058346710324 9.021495670218393 8162.698735816193 48.867168217775145
0.5488655973356341 8.992475743587812 7024.315705270924 50.940483943518565
0.5662066217312353 8.967283495295728 6058.974666707717 53.08332473516231
0.5838204305495703 8.945450215686723 5237.584888363312 55.29979352126069
0.6016917493777613 8.926617494990865 4538.2251978519525 57.592882688531546
0.6197974988919496 8.9105895403568 3940.4411080652403 59.96571178242207
0.638120599651653 8.896997385482873 3429.027080680955 62.42168310918981
0.6566437072293385 8.885592132281275 2989.659794597626 64.96448442587449
0.6753535201910802 8.876113807452091 2612.48058941235 67.59809511077249
0.6942148149385055 8.8683984555799 2286.724850903092 70.32616078898134
0.7132335405155336 8.862180079195381 2006.0439978414079 73.15291457718378
0.732366504801886 8.85728317980296 1762.9040843209373 76.08343224321746
0.7516201658947619 8.853537798808098 1552.1713950983517 79.12175462394342
0.7709516746599002 8.850770560052798 1369.040351351556 82.27310019998038
0.7903571806254613 8.848789175670468 1209.7357673938573 85.54297138563699
0.8098059174831054 8.847500335723119 1070.669481888963 88.93678662182975
0.8292909432783039 8.84674620695671 949.3335800053337 92.46041872246613
0.8487837272434892 8.846395525802011 843.2126413285489 96.12021061721038
0.8682665299063165 8.846326298224382 750.0838558911184 99.92299553037427
0.8877177422438133 8.846448201660502 668.3985560578678 103.8749412564265
0.9071145392225762 8.846659447506507 596.4403090550537 107.98467214606758
0.9264471269955632 8.846814281627355 533.1692395939755 112.25894396841345
0.9456805552610477 8.846880260459308 477.30258701440005 116.7069498389426
0.9648033989171105 8.846678903905467 427.9468718926044 121.33739116137122
0.9837962196479327 8.846291783228413 384.28687633463767 126.15968690493541
1.0026319414887457 8.845480999455322 345.55844951649135 131.18400948802693
1.0212924410176922 8.8442347802102 311.2044394566248 136.42112292749573
1.0397539638758806 8.842487096482033 280.67159616475334 141.88196814281287
1.057993316544747 8.840147632675942 253.4871498215365 147.57939396821521
1.0760008604591673 8.837182970914286 229.27155788305717 153.52619780803306
1.0937518937432291 8.833537989038877 207.64651143768108 159.73603502725678
1.1112181769144425 8.82909282202754 188.32562641923954 166.22368443348716
1.1283841982917964 8.823921853633903 171.06123908267165 173.0051194001469
1.1452244135705538 8.817847238788305 155.57279358330302 180.09758908545692
1.1617250562105752 8.810778459926208 141.67292042276262 187.51860400706667
1.1778621418855566 8.80290779368739 129.21040331231458 195.28810808775225
1.1936106341528574 8.79396736109515 117.99260318975736 203.4266789395314
1.2089569487884766 8.784015110862297 107.89959597146779 211.95662025277937
1.2238786930443646 8.772955948369557 98.79454733937659 220.90208778956776
1.2383683754420944 8.760838268262328 90.58491181744778 230.28864353451655
1.2523870695094381 8.747519823220118 83.17126021962997 240.14430436488175
1.2659282334263056 8.733063414104956 76.45996094868985 250.49844902087958
1.2789663600423393 8.71736540670005 70.3223186293134 261.38348061234984
1.2914908723331766 8.70045022163836 64.88483543313706 272.8338323233255
1.303473704765657 8.682263772314561 59.88859706200671 284.88739592930983
1.3149207040110953 8.662813854665218 55.35950648850795 297.5838873131618
1.3257839872869854 8.642041465599078 51.236452126444874 310.96740315269585
1.3360694464518181 8.619948494323447 47.49050656188546 325.0851489288921
1.3457588860204073 8.596514955438138 44.07446900500927 339.98791605994177
1.3548298807392503 8.571732364995496 40.96145011898631 355.73167984803945
1.3632746450330482 8.545577400002573 38.124978739671626 372.3761409753712
1.3710783628798957 8.51804371976 35.53486023759199 389.9867596438078
1.3782305462674032 8.489120875054986 33.167052895999895 408.6346174090209
1.3847146785556401 8.458829903644466 31.000335333118066 428.3972358049564
1.3905250474300939 8.427125953646087 29.018321400200936 449.35869600597727
1.3956454741152398 8.394020283242634 27.202395601623902 471.6108421622175
1.4000735690124055 8.35953972887675 25.51420085884956 495.254311575356
1.4037988683081415 8.323680119237817 24.014319816998274 520.3982925716455
1.4068175123989888 8.286441543058364 22.61725784576691 547.1632167489905
1.4091123047349297 8.247856941048866 21.330934661540308 575.680360208067
1.4106926900607515 8.2079189765532 20.15258008666049 606.0940515197088
1.4115442571451542 8.166666742242267 19.06944480354779 638.5625136307609
1.4116731999677754 8.124119563003125 18.0753704865579 673.2598404903246
