M[M_sun], R[km], Lambda[1], P_c[MeV/fm^3]
0.2416277750616976 15.618515526848569 2160338.09801669 3.5677787854173952
0.25224154987094116 15.314044062366738 1768078.9543229518 3.759425231996303
0.2631515856559958 15.045773967491417 1454140.236549461 3.9583975474534276
0.27436001142341476 14.808564485252273 1201349.5456919468 4.165032583932189
0.28586549701032177 14.598307187217426 996801.8756058479 4.379622160182202
0.2976670962401652 14.411526205413978 830300.406976126 4.602321671361006
0.3097679703385317 14.245265901355568 694182.1314217983 4.833541950920836
0.3221696238581487 14.096991991071247 582387.5588964699 5.073580367484626
0.3348674506270516 13.964684267481363 490126.0495601988 5.3227470870590725
0.3478650618228847 13.846548991125877 413825.0812267201 5.5812895067326345
0.3611643550305818 13.740890375702335 350368.7143110015 5.849620600470502
0.3747653077146374 13.646394086249382 297470.31977358257 6.128099791774119
0.3886686305548443 13.561960367189156 253207.07248675684 6.417093852392377
0.4028718869027574 13.486561866662864 213283.88303239987 6.7169849687079815
0.4173784120984094 13.419251925625892 184786.03991098393 7.028171350333224
0.4321885440006131 13.359233930880112 158399.4042081823 7.351067869234
0.44730091266989946 13.30580878500377 136074.0868729216 7.686106731024473
0.46271579170786836 13.25837441250588 117113.60098179117 8.033738180215854
0.4784349308483779 13.216351587676165 101015.64746884159 8.39443124137144
0.49445405349860927 13.179225605968261 87283.90618409043 8.768674498319715
0.5107748634373565 13.146590628756817 75543.1583501604 9.156976913805389
0.5273967067477218 13.11800494706936 65503.94225261972 9.559868692221295
0.5443163049963422 13.093130375116678 56886.49866346421 9.977902188357938
0.5615365954015025 13.071608090227347 49485.62546336562 10.411652865440173
0.5790536087477696 13.053149481335408 43112.647889247004 10.861720306084496
0.5968636311594493 13.037529399731936 37616.17296443245 11.328729280217622
0.6149663447946904 13.024382016443418 32866.27219703471 11.813330874438783
0.6333593225610198 13.013599721956021 28754.920056134513 12.316203687792036
0.6520382609647759 13.004886319099466 25193.186116199486 12.838046777060777
0.6710023995196868 12.998091898520203 22100.8397362157 13.379519632001841
0.6902474630768839 12.993028741057277 19411.860204552406 13.941471118530607
0.7097690199370436 12.989496915742823 17072.583988888375 14.524704276351482
0.7295612724943484 12.987405553634053 15031.713071016538 15.130056976492375
0.7496233807191558 12.986533091580986 13250.510919589886 15.758403659382104
0.7699471827949729 12.986812073872505 11693.889364612238 16.41065719117017
0.7905280483237475 12.988073795214643 10330.408151229327 17.08777084866892
0.811361541378015 12.990222130123467 9136.944737269556 17.790740444201628
0.8324391994702777 12.99312793020824 8088.772053469029 18.520606602593876
0.8537575116833344 12.996696148598819 7169.338386090123 19.278457203563967
0.8753030460695473 13.000849608496505 6320.979173602801 20.06543000384606
0.8970758752126179 13.005456409092693 5614.320951016079 20.882703458189628
0.9190637640037502 13.010452228347555 5020.504124320801 21.731498048412554
0.9412596698427138 13.015739550610377 4466.911222939918 22.61317140804221
0.9636503108199879 13.021241805890602 3978.523446456672 23.529094111981937
0.9862329425092121 13.026895095353785 3546.3176258058925 24.480703217336117
1.008993301810776 13.032614524474546 3164.0242424967387 25.46950634117081
1.0319160870565183 13.038347065085318 2825.5487206069383 26.497086055311975
1.0550059407470251 13.043978853840944 2525.716039517501 27.565043915278263
1.0782351899944485 13.049506819817458 2259.5155200269496 28.67512547882619
1.1015981201054346 13.054822515915404 2023.0456925313752 29.829190388349705
1.1250820693376722 13.059893772171916 1812.869527677778 31.029167731253857
1.148672941044837 13.064659206371003 1625.987099016262 32.277089008686694
1.1723585663092435 13.069049812116017 1459.6162354900246 33.57509505152089
1.1961236984420451 13.0730327110256 1311.335530815797 34.92544348587366
1.2199545074476226 13.076537894755782 1179.0082280915765 36.330361976168334
1.2438343221093313 13.07952394266969 1061.079079793229 37.79220652195867
1.2677496659930716 13.0819307841622 955.5931919919436 39.31387401781159
1.2916829761809516 13.08372379677591 861.3035964392392 40.898170020161054
1.3156168210863872 13.08485605056109 777.0425941435506 42.547445820839734
1.3395353806704642 13.085271622019688 701.4920377604624 44.26530464383156
1.3634218013188675 13.08493846322214 633.8250556454816 46.05481515590429
1.3872564858827476 13.083813550256068 573.2080256812386 47.919192221443495
1.4110209335357964 13.081849170623231 518.7181162146642 49.86236201903903
1.4346982492054792 13.079005417209673 469.8617876643964 51.88779829758412
1.458266432921962 13.075251872424005 425.88828075475936 53.99969901010371
1.4817091176184949 13.070542113364363 386.3496378265019 56.20255038606686
1.505003163616638 13.064838033794748 350.8129866593618 58.50018214137001
1.528129878470705 13.058107315956425 318.79323468477924 60.89794355932181
1.5510670960904303 13.050317858339083 289.89616002752155 63.40084396358628
1.5737943141793946 13.041430083015793 263.87446736418843 66.01419637008078
1.5962933513094086 13.031406303562234 240.37159739255347 68.7436616123731
1.6185298201892677 13.020213499558787 219.11937785737433 71.59527658287965
1.6405043651069209 13.007845749796928 199.9330970443057 74.57548489051345
1.6621768039054834 12.994238095467 182.56871913564206 77.69117016120792
1.6835301621328242 12.979374018662854 166.8746720496375 80.94969223331273
1.7045428520911863 12.963226080826939 152.63598915409202 84.35892652840911
1.7251912037307005 12.945765102111237 139.74374024276284 87.92691407380131
1.7454502055569352 12.926959898793214 128.05583584367065 91.66248360184153
1.765301963660035 12.906784310798733 117.43278291451678 95.57545203146891
1.7847189871709535 12.885217354230978 107.79392791261535 99.67537582302347
1.803682210632916 12.862227492761393 99.03620375335969 103.97336305276019
1.8221566852877282 12.837768758838092 91.07305165607659 108.4811256839599
1.8379047726330753 12.812290200571415 84.50341830262731 113.42473133600795
1.8481701341625612 12.783148916230717 79.71740785869986 119.09975542016714
1.8536637111272334 12.74836168204736 76.12320390858115 125.53510653123317
1.855168504867549 12.707569206503468 73.37286270420593 132.75828886410895
