M[M_sun], R[km], Lambda[1], P_c[MeV/fm^3]
0.2416277750616976 15.618515526848569 2160338.09801669 3.5677787854173952
0.25224093374186257 15.314084352981704 1768069.6640063457 3.759415825417368
0.26315115021072977 15.045781670224853 1454180.4473924264 3.9583781062573613
0.27435872265471606 14.808563159178373 1201325.328146376 4.165002212841175
0.28586277945733884 14.598359259370492 996786.0735763541 4.379580345092561
0.2976643186713398 14.411581438651098 830339.1904626531 4.60226727982379
0.30976469746483243 14.24528552829779 694208.9076643976 4.833474055951859
0.32216360464773486 14.097060040946781 582381.9623301579 5.073497999579648
0.3348614384289344 13.964748138211908 490155.9349855991 5.322649231949629
0.34785951970909057 13.846593087581548 413854.5644236354 5.581175998166402
0.3611576834227769 13.740904664047015 350395.8129518404 5.849489565444484
0.374757730088411 13.646445318916294 297483.76735382323 6.127950074170627
0.38866037751523425 13.562004311801921 253237.45537657358 6.416924241036103
0.40286287404056237 13.486610316503398 216089.0630776076 6.7167941943260825
0.41736865949870244 13.419289926688387 184800.19538398169 7.027958082320347
0.43217812156415086 13.35926741638158 158423.25847511602 7.350830712208611
0.44728944689577715 13.305866977876288 136086.8426191995 7.685844221161189
0.4627037746701847 13.258431062975054 117134.13177884054 8.033448781337643
0.47842057544539285 13.216368348666489 101026.80279865017 8.394113340784347
0.4944390163830451 13.179265008206688 87293.95960447041 8.768326402370823
0.5107590444746241 13.146618607650455 75554.90515004352 9.156596843143936
0.5273797607201478 13.11802493007042 65512.40575171015 9.559454776741033
0.544299098519368 13.093153104452258 56893.54477622821 9.97745246179729
0.5615194210235386 13.07161797893599 49493.03009949422 10.411165259614581
0.5790329239122595 13.053173406887629 43119.75089782615 10.861192644724257
0.5968431529728772 13.037512331322162 37622.40012388357 11.328159272381743
0.6149435436326031 13.024397620824663 32871.67123914644 11.812716107473653
0.633335110966087 13.01359377685298 28759.38684761209 12.315541619801106
0.6520132476023588 13.004895241298618 25198.54746114374 12.837329813830332
0.6709753495662035 12.99810575540768 22104.683587486634 13.378749546287889
0.6902186443465498 12.993028549800856 19414.76384765411 13.940644916895522
0.7097388789273006 12.989521738745424 17074.180338879727 14.523818799844477
0.7295316794619139 12.98740182856601 15034.603797919302 15.129108890043447
0.7495905141886169 12.986549827347359 13252.605343118248 15.757389440441225
0.7699120959134467 12.986809982764527 11696.149765627732 16.40957311753482
0.7904941911772491 12.988065692038214 10332.974710121192 17.086612985438897
0.8113253083787092 12.990216165382362 9138.88759308534 17.789504629794187
0.8324016714936116 12.993126888496281 8090.701364464675 18.5192884337478
0.8537182447894174 12.996693627258281 7170.8587216703645 19.277052019254693
0.8752659474719575 13.000826244376984 6361.275409077849 20.06393286802731
0.8970324564835455 13.005442317880139 5649.262130948758 20.881099240535598
0.9190205108705701 13.01043474580124 5021.5412992247575 21.729790581571763
0.9412146187111705 13.015725538304892 4468.029385019403 22.611354792131497
0.9636060897984595 13.021227310704171 3979.548735264097 23.527162088299374
0.9861849604237177 13.026882898936776 3547.2744199876993 24.47864914361916
1.0089443595611338 13.032601256523767 3164.7694256269338 25.467323164992873
1.031865152213151 13.038330830828146 2826.1029001442257 26.49476628546496
1.0549526677484753 13.043972773344642 2526.151663962168 27.562593671377424
1.0781810689361686 13.049495889856788 2260.061152100653 28.67252292218215
1.1015429565418327 13.054813701611593 2023.5968160460254 29.826426548509712
1.1250251147177337 13.059885295862522 1813.329648409763 31.026233062608
1.1486151085331273 13.064651541491681 1626.391174074539 32.27397334910583
1.172299476327548 13.069038439756653 1459.9273991768498 33.571787577738306
1.1960629325714889 13.07302193758313 1311.6971885562239 34.921932665327915
1.219891998429891 13.076524088493038 1179.365011399185 36.32665490862047
1.2437716261316367 13.079515938335263 1061.3686956893864 37.78827165474356
1.2676854192406988 13.081925128827361 955.8384241764859 39.309697407843856
1.2916168632224168 13.083716867353854 861.5464797502906 40.89373678334315
1.3155495539585882 13.084849915708867 777.2587733291346 42.54276314256586
1.339468427070297 13.085273465443587 701.706430111514 44.26033359625521
1.3633530387356563 13.084940740151355 634.0329369841437 46.04956261609915
1.3871867629426085 13.083815135538414 573.3741066368683 47.91361509848754
1.4109511568831052 13.081851679884101 518.8788304724937 49.85646671408789
1.434627503828042 13.079013797882725 470.0055839845256 51.88153701568185
1.4581952850108242 13.075264695163746 426.02509549966413 53.993077473571915
1.4816365397742313 13.070558873977108 386.49499751048853 56.195533562234296
1.504929076870808 13.064857561555478 350.9140810888989 58.4927386334625
1.5280554904312782 13.058131174414108 318.8860856087164 60.89006516921846
1.550993156650924 13.050344014816288 289.9993561422715 63.39250248565206
1.573720250802012 13.04146040989627 263.9619997909426 66.0053615349163
1.5962182232306248 13.031441181800238 240.45091279747524 68.73430091969739
1.6184542748407424 13.020252322853029 219.1994893597167 71.58535511928044
1.64042974691574 13.007888591677224 200.00554934061003 74.56496513054188
1.6621025122769826 12.994287477998505 182.63344066364365 77.68001175012881
1.6834551426331235 12.979431744590268 166.9298253244707 80.93785174962969
1.7044661854984526 12.963287932479673 152.68040284054186 84.34635722407829
1.725116167092408 12.945829995344967 139.78693975786976 87.91361041058799
1.745377124351815 12.927030155769062 128.09453922828888 91.64834828725645
1.7652281349280023 12.906864097290216 117.47096193033106 95.56047442560129
1.7846465934839504 12.885302279077772 107.8269047781022 99.65944707533919
1.8036096666576393 12.862317267080806 99.06691481577752 103.95646633307425
1.8220947296605114 12.837889758558498 91.0951299344098 108.4630972206289
1.840079230756331 12.8119987731622 83.84701083767766 113.19154149688764
1.8575389010187116 12.78461796336883 77.24367100367527 118.15494173801991
1.8744535973125083 12.755732675287348 71.22284599496093 123.36746458627086
1.890798191049736 12.725313566857873 65.7423052884458 128.8443919475281
1.9065521547865805 12.693350231069155 60.73627002213818 134.60222102101181
1.9216933765500257 12.659824429982136 56.165527422214815 140.6587741521849
1.9362026783775486 12.624717392338171 51.991233258517205 147.03223640076143
1.950044815276055 12.587995487952124 48.17453234937871 153.74390126033572
1.9615315255401145 12.551053732421485 44.99426438232901 161.10576991460005
1.9679987225918478 12.5126211032398 42.68694446461345 169.59727964098897
1.9698663457168206 12.470138488893463 40.998573046322356 179.27685084322053
