M[M_sun], R[km], Lambda[1], P_c[MeV/fm^3]
0.2416277750616976 15.618515526848569 2160338.09801669 3.5677787854173952
0.2522390522052662 15.31413619118324 1768225.9870411567 3.759382536919694
0.26314659480456 15.04589461867037 1454272.3466041961 3.9583093072723163
0.2743529056990278 14.80867930267919 1201448.8356219952 4.164894735718127
0.28585510740964587 14.598485920459636 996916.1266739602 4.379432371102976
0.2976546529232565 14.411718197110746 830450.8434054215 4.6020748021413915
0.3097533761660673 14.24541494501406 694283.3040339156 4.833233794896491
0.3221487289289267 14.097223425438912 582503.2347179325 5.073206525067449
0.334845230131913 13.964936088450399 490291.272263895 5.322302955554806
0.3478388462346595 13.846780888443634 413961.36833488505 5.580774332206452
0.3611368451308937 13.741074031366816 350493.43193291174 5.849025882960385
0.374731905245944 13.64660313389614 297581.3520665297 6.127420284982232
0.38863083146989913 13.562198538143639 253314.82346743846 6.416324060212695
0.40283127168136773 13.486762631191 216163.60071155187 6.716119131433939
0.4173340871703958 13.41944055209605 184875.91068812582 7.027203429980905
0.43213938310360245 13.359430732095552 158490.14616762492 7.3499915339180015
0.44724795346906376 13.306000327298829 136139.25790157623 7.68491533831808
0.4626562870537222 13.25856514985011 117180.48308349255 8.032424759421893
0.4783723830801162 13.21648032837199 101073.68115575582 8.392988474624335
0.4943876427752767 13.179364556627464 87336.95647133155 8.767094700432857
0.5107031131171549 13.14672153610531 75591.56292451135 9.155252010771616
0.5273195861629316 13.118121643155959 65545.7776856208 9.557990198267257
0.5442364030993778 13.093225113518194 56924.37540249385 9.975861181445712
0.5614498717545922 13.071723005574706 49517.81966170895 10.409439961101254
0.578960961836433 13.05325544325467 43145.48250566935 10.859325629463427
0.5967656931663174 13.037579197657125 37642.93991753683 11.32614243619247
0.614862223654312 13.024457906869518 32891.47930252969 11.810540915676851
0.6332496764894938 13.013662708247992 28777.254612746496 12.313199080587555
0.6519241576455713 13.00493931661195 25214.863194359597 12.834793061689883
0.6708819093050812 12.998128385614583 22117.746808060074 13.3760248539655
0.6901207300942775 12.993057435267561 19429.027368169896 13.937721695520828
0.7096348570811102 12.989524782938378 17085.896093394033 14.520685875144991
0.729422637366045 12.987404777668097 15044.841781784395 15.125754464836165
0.7494772915739534 12.986552143056684 13261.873216939364 15.753801054455687
0.7697955970760024 12.986805775335387 11704.673941988593 16.4057376043662
0.7903708622048239 12.988050903396498 10340.350541062213 17.08251642641437
0.8111971877442224 12.990200933614139 9145.870196546575 17.78513230451753
0.832267272467867 12.993103079772634 8096.496644995233 18.51462476706879
0.853578913432208 12.99666427047215 7176.156883892136 19.27208052438809
0.8751210629109735 13.000805186326039 6366.37294409662 20.058636085523283
0.8968856377469645 13.00541512198983 5654.059493314859 20.87542365086371
0.918866850861394 13.010403505919838 5025.8569168594095 21.723749743613745
0.9410556995563131 13.015684214875282 4471.722611700987 22.604927837734838
0.9634413643302101 13.021190855413552 3982.8563126245595 23.5203268803283
0.9860159712693615 13.026834633020222 3550.197087034732 24.471382188465665
1.0087690837679777 13.03256160653613 3167.7678446086456 25.4595995185055
1.031690581186487 13.038270022964351 2828.8430729017164 26.4865594517589
1.0547676544353213 13.043926300306675 2528.4779103990663 27.553922122619348
1.0779911699502258 13.049449717079376 2262.11050349753 28.663315763479687
1.101348294271161 13.054768515084191 2025.4245005060918 29.816648878455247
1.1248264779063806 13.059838159470923 1806.2171773379143 31.015851120145204
1.148410014043157 13.064608212098916 1627.9169414497608 32.26295119298699
1.1720887644600315 13.069006235045293 1461.2869701305915 33.56008692876482
1.1958488268581864 13.07298365092602 1312.9716713735459 34.90951273608333
1.219520711850653 13.076416457198475 1181.2845278502746 36.3171960048521
1.2409187559627324 13.077042359197698 1073.1141273547398 37.8366990748951
1.2596580688726648 13.072999620139772 984.3213085511356 39.488845142691275
1.276165710863926 13.064004464526965 909.2556452448292 41.27650385067526
1.2907771612572938 13.049995604435507 844.533267984546 43.20260966620819
1.303807936803405 13.031124317756335 787.4260889942625 45.27037152079053
1.3155192510613192 13.007692974468885 736.4645834557346 47.483381036996605
1.3261123623047908 12.979929716330851 690.1666319270271 49.8456421786123
1.3357693007584883 12.948063944084307 647.5737287921093 52.36142360488036
1.344641059575575 12.912325946911505 608.2341641175177 55.0356276353986
1.3528612019215795 12.872983688678694 571.371687111835 57.87360298194216
1.3605357701747836 12.830222098435183 536.8452472730023 60.881103509720894
1.3677691883611784 12.784297268570947 504.33337841871986 64.06442744037348
1.3746385097569669 12.7354036069929 473.4606353653167 67.43029024878194
1.3812149959551707 12.68372783223589 444.1966607499469 70.98596357395414
1.3875635396678283 12.629505944599545 416.4020892420236 74.74023304703627
1.3937204441779358 12.572929088312245 390.0475174204409 78.70266759674435
1.399707127850205 12.514143389991062 365.00098390661555 82.88368163781695
1.4055620385815262 12.45332868455017 341.2582818426935 87.29426092132137
1.4112930689606664 12.390624748845982 318.7723142956604 91.9463585655843
1.4169313365792187 12.326213141727202 297.5067733337239 96.85292584449988
1.4224803491515 12.260189430013662 277.42748147493245 102.02715999431291
1.4279534361885249 12.192743031321061 258.4667775349553 107.48456258602131
1.4333256456291434 12.12389680339302 240.6341566344267 113.2408641243366
1.438640358896362 12.053912488334925 223.8684724466926 119.31319258379706
1.4438273621719282 11.982688745088838 208.149059497709 125.72038748977377
1.4489309143076572 11.910522222069012 193.41052227982703 132.48359966365578
1.453880694327714 11.837397813610282 179.65941362970278 139.6277705507159
1.4586384759139417 11.763756825411155 166.94286406672416 147.1932927035325
1.4632071702426748 11.688942397829651 155.02669776130438 155.1804526351744
1.4677292098177217 11.612864180569236 143.82726399752232 163.58568856504164
1.4722276364877978 11.535862004264501 133.31032320056516 172.43651315235272
1.4766838164504097 11.458159417207238 123.46886925803476 181.76343364229248
1.4811058232681387 11.379978675199345 114.3008083276105 191.59805423557629
1.4854214438755298 11.3013621831047 105.78038307579659 201.97587151041975
1.489628122856573 11.22247683102235 97.87089709461111 212.93472908824614
1.4936833473369033 11.14338896201962 90.55606980836843 224.51542801571415
1.4975479421325946 11.06416090717566 83.80402537700735 236.7628740150127
1.5011852937829926 10.984828664816542 77.58000309340073 249.72505265467728
1.504555229888516 10.905408093689488 71.85214347070483 263.45496472849993
1.507619563584599 10.825903605691245 66.59701944195828 278.00926256257907
1.510342293400384 10.74634988221224 61.775278186545684 293.4510385031978
1.5126910714532649 10.666750715350513 57.345795256259315 309.8477449059051
1.5146312529558426 10.587100682043033 53.293114955672806 327.2734646801769
1.5161280662930656 10.507392373921094 49.58282558837996 345.8095604776177
1.517158874735344 10.427619495043457 46.1913669804501 365.5445257356756
1.5176856922940793 10.347772687152693 43.089647127781106 386.57549845160037
