M[M_sun], R[km], Lambda[1], P_c[MeV/fm^3]
0.2416277750616976 15.618515526848569 2160338.09801669 3.5677787854173952
0.25224218436685997 15.31402512162005 1767903.156139772 3.7594429405165326
0.2631541364414901 15.04570765269634 1454007.89329771 3.958434147002273
0.27436346545367435 14.808507307303353 1201205.0428085448 4.165089760135273
0.2858681627840099 14.598267943572893 996641.7262594412 4.37970088108013
0.29767249809235735 14.411469110150362 830258.3835952815 4.602424069116675
0.3097760339086504 14.245145309216184 694103.9992457078 4.8336697709083145
0.3221757639796354 14.096917606817977 572526.2733289036 5.073735435147885
0.33487783285679684 13.964559955962464 490056.1680453441 5.322931312138248
0.3478760229424033 13.846448640380391 413770.1617138668 5.581503202431913
0.3611765540502929 13.740755360075253 350304.9483495397 5.849867293291503
0.3747789278876372 13.646300499675144 297420.9219182565 6.128381658575143
0.38868410896427924 13.561855831964744 253169.655862327 6.417413173711857
0.402888444337069 13.486479971762053 216023.37490009645 6.717344134489267
0.41739648689498876 13.419200516106606 184749.78620235325 7.028572866016512
0.4322090277609391 13.35914939132006 158373.147652596 7.351514362241784
0.4473241370243963 13.305743306833568 136039.67870956348 7.6866009576683165
0.462739792504692 13.258311400757778 117093.08088857736 8.034283033055557
0.4784599455429029 13.216268984165163 100985.38469955616 8.395029757059474
0.49448239229573493 13.179160200857105 87259.6024816413 8.769329865966498
0.5108046669266837 13.146534932018037 75524.78412896743 9.157692483903693
0.5274266468466847 13.117976533657668 65485.44942035498 9.560647986171077
0.5443527949720516 13.093070174342062 56869.21311953109 9.97874890863589
0.5615740265140107 13.071558024137895 49470.81250932369 10.412570906461506
0.5790916718892459 13.053130615288097 43101.62937275174 10.862713765808087
0.5969038474777223 13.037498161361619 37603.98132502083 11.329802472549767
0.615009012605474 13.024374530263188 32856.34139730117 11.814488342494018
0.6334041436468475 13.013558099797386 28745.06615225619 12.317450218074965
0.6520857267851347 13.004869098640748 25185.289073686436 12.839395937965023
0.6693815772872181 12.997202790256575 22326.365702490955 13.40006617815694
0.6831045489550186 12.986190445177263 20253.89026517818 14.03153213785472
0.694138709946603 12.969800530180587 18655.943244349477 14.73474944781309
0.7031869548929103 12.94773680614723 17352.637869195387 15.509707988246408
0.7107554791914638 12.920008094515799 16243.425480508866 16.356063421351667
0.7172216319957917 12.886835883632024 15267.017167959966 17.273247588501498
0.722897071071386 12.848494156589686 14378.438887767357 18.26095652406973
0.7280184758111152 12.805275208454564 13552.103660326955 19.318954062930082
0.7327736816119783 12.757468055273867 12765.98641771267 20.44703797410899
0.7373395977346585 12.705397733119133 12010.374019461176 21.64520075727196
0.7418502882387331 12.649324909655544 11278.665633085375 22.914304244266784
0.7464133828312847 12.589785844607295 10564.546052084079 24.25490996414445
0.7511042052474923 12.526955016988978 9868.611496892994 25.66883790268095
0.7559982211558931 12.461246464924232 9192.24772120635 27.157221001870926
0.7611547274581163 12.392987533235166 8535.446985314647 28.722403131543143
0.7666342510000399 12.322518162845475 7900.3773685813885 30.365311502775583
0.7724823868826626 12.250222453130823 7287.881329904185 32.0886902055052
0.7787079363085516 12.176322677723013 6702.237741476768 33.89488531589009
0.7853667663046091 12.101261133303412 6142.696311562669 35.78638011379185
0.7924589763641523 12.025262192389633 5613.53176935718 37.76597529033511
0.8000208925392187 11.94876698383647 5114.432505197719 39.836819349429504
0.80804679062322 11.871948070145006 4646.495543503512 42.00195950463679
0.8165467272482925 11.795151534549678 4210.5571770599 44.26499214362434
0.825503709205327 11.718603087275765 3806.9073265473367 46.63104018356683
0.8349009010365996 11.642539736508812 3434.8289349653123 49.10356222695861
0.8447094675938458 11.567252078127844 3093.8771346730473 51.69034133764609
0.8548441207429044 11.493027676275439 2784.354701745806 54.40087900573621
0.8651703355980378 11.42006334975893 2505.6899747657485 57.248133675052074
0.8759934850649645 11.347085901024789 2249.3362214002964 60.211913380922056
0.8874114326277129 11.274531654939448 2013.5535546337314 63.29029790226438
0.8994240097620785 11.202927950159282 1798.286708743678 66.4885657654557
0.9120194437738002 11.132619549728929 1603.0713758315255 69.81237277680732
0.92513993290386 11.063825433411473 1427.0275806682894 73.26878037475116
0.9387718640373944 10.996760795817043 1268.9337947383856 76.86353521824594
0.9528600933735012 10.931517113564194 1127.5243227889111 80.60451844516606
0.9673616647403349 10.868117945015275 1001.4922850584504 84.49840100051263
0.9822328585542716 10.806618737844707 889.3871568879276 88.55342029416268
0.9974281928721804 10.746992864833816 789.9631476665269 92.77821071140521
1.012905472300854 10.689222237541497 701.9942483910542 97.18141524099919
1.028606424909105 10.633107639769523 624.0542473892816 101.77266616499466
1.0444863390117791 10.578701757408746 555.1778172567609 106.56281346277983
1.060507099098178 10.525817443054983 494.38058945180484 111.56152880902592
1.0766149994971865 10.474391987321123 440.6511130301234 116.78133827518563
1.0927715559804239 10.42427754456827 393.221185254587 122.2343976462039
1.1089314685483875 10.375373423356638 351.30188848260855 127.93389032650143
1.125048425485735 10.327516839487712 314.2842355855678 133.89411604267193
1.1410808033771676 10.280645934958404 281.5427050288919 140.12984841843834
1.1569991833336772 10.234620069799158 252.57681106572795 146.657745613988
1.172754954105927 10.189295508393913 226.8926276822108 153.49467136849637
1.1883125485181596 10.14454081567691 204.1474081569957 160.65968591119378
1.2036312323125435 10.100282048719206 183.9618583131214 168.17274184800226
1.218675696577077 10.056323909473313 166.02100988667837 176.05517828217975
1.2334204960482904 10.012768510973512 150.1007019437258 184.3299870854989
1.2478220623966665 9.96924572442834 135.8951361074351 193.02224669855838
1.2618504929765526 9.925727756002765 123.25084520362113 202.1586547416842
1.275492273519868 9.882300921146644 111.95244016772794 211.7679294470818
1.288690594813459 9.838736157532882 101.8666144677894 221.88131414018224
1.301425872450536 9.79492269672441 92.84513605761772 232.532187393355
1.313675072538694 9.75081758216135 84.75742718060532 243.75707134478674
1.3254079430473626 9.706330554622348 77.5051360155781 255.59485916474358
1.3366054663637965 9.661387513787755 70.99185363947056 268.0879734952712
1.347237049580427 9.61605254882517 65.14037124064558 281.28267151118314
1.3572816667399694 9.570111082185942 59.86450855159612 295.22872639893365
1.3667210641923582 9.523564696697072 55.11673921115262 309.98028789066274
1.375529984008546 9.476400594950276 50.83379668824978 325.59606835449574
1.3836928539769402 9.428514086625114 46.96078033728896 342.14026945958597
1.3911900184769068 9.379898249837222 43.4570854007581 359.68214121860524
1.398004610942108 9.330549509705316 40.29414515109894 378.2979542515474
1.404124315747838 9.280363697070381 37.41945522921071 398.07046422259407
1.4095330535266681 9.229364546284312 34.75484732809434 419.0900584642535
1.4142202338498704 9.17754423405587 32.39592116479356 441.4557959818081
1.4181732774487976 9.124863800042542 30.295872105323166 465.27564947997496
1.4213800915393662 9.071334139018944 28.336882628533044 490.6683886249868
1.4238363404998973 9.016941501866041 26.562769388135827 517.7645029715978
1.4255373890008065 8.961659052976236 24.939318039682263 546.7066694198326
1.4264712626572273 8.905543323291976 23.461544888576377 577.6521422393367
1.4266366629772795 8.84858819554913 22.11551913148425 610.7744223606167
