M[M_sun], R[km], Lambda[1], P_c[MeV/fm^3]
0.2416277750616976 15.618515526848569 2160338.09801669 3.5677787854173952
0.25224090105901625 15.314056102310168 1768032.0436786944 3.7594149971898423
0.2631510580552066 15.045775867739975 1454146.2973767372 3.9583763945082624
0.27435857219415133 14.808562748552449 1201321.4731825483 4.164999538746973
0.28586282922019285 14.598348379788645 996827.6515478579 4.3795766633912345
0.29766398958526036 14.411573519178194 830362.6990118478 4.602262490810274
0.3097644588146826 14.245310083734392 694203.0304018658 4.833468078011988
0.3221633391958022 14.097102471198356 572645.9434853765 5.0734907473558755
0.3348617159495435 13.964802618465121 482342.77487421146 5.322640616143469
0.34785903152477093 13.846596977103202 413857.15869179554 5.581166004143637
0.3611570241619198 13.74090484115314 350390.62388603383 5.849478028299445
0.3747571313545301 13.646452097964538 297492.30220326455 6.127936892116665
0.38865977844047916 13.56199764960844 249830.98190980576 6.416909307439459
0.40286216308862377 13.486605791079743 213301.30300773456 6.716777397438164
0.41736815727509047 13.419302317645627 182507.55114135615 7.027939304993016
0.4321760803720611 13.359286161111386 158422.1257476608 7.350809831590972
0.44728835945807766 13.30585361219041 136087.58248321313 7.685821108376697
0.4627027497565396 13.258407158515817 117137.69991745445 8.033423301140136
0.47841927086676467 13.216371345789193 101021.69528875136 8.394085351191261
0.4944376773367867 13.1792696148318 87296.67483815686 8.768295754272174
0.5107577270409233 13.146616444987766 75556.36471475981 9.156563379885158
0.5273789244658137 13.11802677309836 65514.222514615496 9.559418333677716
0.5442986592908504 13.093146280352387 56895.68933034349 9.977412865819774
0.561517589535219 13.071615147328236 49493.6036883952 10.411122328640142
0.5790312066121611 13.05318739908832 43121.215401256115 10.861146187154779
0.5968401601261072 13.037519048552719 37621.508282871444 11.32810908652381
0.6149415350744468 13.024399562925018 32872.596179733446 11.812661980918639
0.633333029661776 13.013594924139596 28760.04355916036 12.315483328762378
0.6520112048125825 13.0049085389242 25198.658895227814 12.8372666897103
0.6709736522770694 12.998098924759367 22105.78227276475 13.37868174516898
0.6902167608090196 12.993037694422057 19415.368902641956 13.940572175239161
0.709737016692022 12.989504690331371 17074.768774120606 14.523740839540897
0.7295288991847279 12.987388822042485 15034.586941967757 15.12902541747808
0.7495876109338916 12.986541499658603 13253.066269481684 15.757300145494602
0.769910661970949 12.9868040244784 11696.382861858865 16.40947767251094
0.7904912954285324 12.988069419730227 10264.17123528304 17.08651104391689
0.8113221194575032 12.990215768889893 9139.057604516947 17.789395825397015
0.8323983420955795 12.993126733185637 8090.739967965516 18.519172378822347
0.8537149011640796 12.996691338874433 7171.195040766112 19.276928303455552
0.8752621437757547 13.00082974629865 6361.618219381829 20.06380105679773
0.8970303731744691 13.00544951644512 5649.445962730751 20.880958001831296
0.9190165564604428 13.010440771495631 5021.703363867848 21.72964025282304
0.9412106595059422 13.015721253085244 4468.0756714325835 22.611194853930797
0.9636008338940037 13.021230430255137 3979.606082838138 23.526991989651062
0.9861801921828949 13.026884299262619 3547.3647682120086 24.478468299761307
1.0089387593969863 13.032601820140796 3164.8420426828934 25.467130955055154
1.0318607833211684 13.038327433546495 2826.2284684501788 26.494562049949785
1.0549482351549564 13.043965319403776 2526.194854146707 27.56237794904334
1.07817662028586 13.049494888691484 2260.159856943747 28.672293790424263
1.1015386489764267 13.05481209763228 2023.644327038139 29.82618321760768
1.1250204331234581 13.05988378239646 1813.3410807433452 31.02597469220913
1.148609837792031 13.064644369194331 1626.4368285283106 32.27369904458358
1.1722937701152014 13.069043839720003 1459.971156803355 33.571496386264734
1.196057407468583 13.073018978334096 1311.7109511919268 34.92162357163468
1.2198865510431314 13.076528654730863 1179.3950579206655 36.326328537743144
1.2437659807312658 13.079515458234457 1061.3788046494221 37.787925228939464
1.267679382094111 13.081925185927291 955.8353090370099 39.30932969964228
1.2916104893962936 13.083717387584507 861.5604719881093 40.89334648243494
1.3155437776317689 13.0848547575199 777.2858192168587 42.54235088151781
1.3394623630691573 13.085269393807826 701.7211239730976 44.259895948085216
1.3633469920742665 13.084940966343352 634.0489151599354 46.04910018622702
1.387180375499116 13.083819777033193 573.371233907339 47.913124093458315
1.4109443085906657 13.081854767914162 518.8892840390273 49.85594769742032
1.4346195695557602 13.079017311981733 470.01272402632816 51.88098577983021
1.4581883773538384 13.07526790082425 426.0321304142775 53.99249452229084
1.4816297424037181 13.070559688182554 386.50294815832996 56.19491421836192
1.504922576120576 13.064859270121733 350.92767688662514 58.49208331933042
1.5280488228264342 13.058134018797375 318.8918996333346 60.88937156998884
1.5509869973409962 13.050346691669006 290.00723124233156 63.391768118316165
1.5737136615648704 13.041463042954284 263.96547761515706 66.00458373479485
1.5962115676815272 13.031444195197796 240.45578984720368 68.73347682572957
1.6184484743560026 13.020254596312563 219.21003571067627 71.58448165798193
1.6404233976632627 13.00789396486811 200.01384786633915 74.56403899849629
1.6620952807325515 12.994292425788721 182.64000180707265 77.67902939486443
1.6834485414542926 12.979436225326968 166.93357314835268 80.936809348716
1.7044609426192574 12.963291923458756 152.68969554043426 84.34525066225925
1.7251097440194523 12.94583689876278 139.792302766967 87.91243920029255
1.7453692201231181 12.927036332093916 128.0890494493247 91.64710386383823
1.7652239013524327 12.906867492073042 117.47675513006993 95.55915585238732
1.784640620310242 12.885308336562156 107.82905528895165 99.65804477029282
1.8036026206592286 12.862327281332243 99.06864670763355 103.9549788145977
1.82208827463093 12.837897966534992 91.09894254277539 108.4615183456521
1.840072678493736 12.812008209074262 83.84904241501192 113.18986462756355
1.8575328999636807 12.784627808324753 77.24560539580791 118.1531596968781
1.8744476940204777 12.755742728626922 71.22726443013912 123.36556960680556
1.8907913791630795 12.725324571373132 65.73958814292826 128.8423756197069
1.9058563561283635 12.693824413416426 60.90502931866162 134.69030246658835
1.9163537895631564 12.660886506929051 57.24771313150724 141.3421750619001
1.9222045696016061 12.623864606362629 54.49823285456211 148.89106265022798
1.9239924443681122 12.581682836956805 52.39269962771791 157.38011647002685
