M[M_sun], R[km], Lambda[1], P_c[MeV/fm^3]
0.2416277750616976 15.618515526848569 2160338.09801669 3.5677787854173952
0.2522409821611842 15.314088720836208 1768179.7111124082 3.7594160843087763
0.2631519202555435 15.04576485652481 1454174.0856774468 3.9583786413243804
0.2743586628261828 14.808568196383588 1201335.3945171994 4.165003048722966
0.2858625051935502 14.598387530560574 977381.9121250566 4.379581495937458
0.2976643831058535 14.411580768773748 830333.7003226164 4.602268776798245
0.30976487169107014 14.24528282016165 694164.9323322988 4.833475924567374
0.3221638593757716 14.097057996523535 582379.6156227028 5.073500266517871
0.3348619947950504 13.964750724820698 490164.9135926077 5.322651925124106
0.3478596551457131 13.846592253155162 413853.6593295856 5.581179122151689
0.3611580759766635 13.740909197318292 350408.7695137057 5.849493171787893
0.3747579486560385 13.646445417100097 297493.94010754407 6.1279541946893215
0.3886606005953825 13.562003054871202 253236.78066461624 6.416928909062457
0.4028630293243051 13.48661510148061 216085.91725072934 6.716799444791253
0.4173687490154768 13.419291649843881 182507.81951587644 7.027963951843379
0.43217810893825415 13.359288113909942 158423.25386207885 7.350837239191139
0.44728966011065413 13.3058693401931 136085.25392374667 7.685851445888391
0.46270393223528605 13.258406712350588 117129.76607813846 8.033456746085816
0.4784208979757366 13.216365746242618 101028.4882952193 8.394122089935438
0.4944393961911143 13.179265204652674 87293.64716461462 8.768335982534767
0.5107594789863714 13.146617802035848 75554.57059085321 9.156607303289023
0.5273802085727333 13.118024436995363 65512.08468786065 9.559466168333135
0.5442999814004155 13.093162206553473 56894.03930461476 9.977464838948332
0.5615199704428291 13.07162887536593 49493.31835255473 10.411178679241395
0.5790334918063728 13.053174030418933 43120.6558141892 10.861207166718097
0.596842974046932 13.03751516786182 37621.77954648932 11.328174959789544
0.6149442288147057 13.024421511563554 32871.28630894066 11.812733026691804
0.6333358215515137 13.013602746247141 28758.72558220569 12.31555984078269
0.652013977238616 13.004894401929477 25198.260907891567 12.83734954557065
0.6709762438778146 12.99810756532705 22105.00495124848 13.378770739997746
0.6902206893829416 12.993029126760442 19415.089172315125 13.940667654954078
0.7097396713630328 12.989521655359868 17074.074810943854 14.523843169185549
0.7295325575244083 12.98740280384998 15034.798571745356 15.12913498244747
0.7495914104087267 12.986543891927212 13252.777414453865 15.757417352847988
0.7699156594155856 12.986798960949349 11696.45307384213 16.409602952378258
0.7904947375164985 12.988066387491083 10332.963625149418 17.086644851006312
0.8113263051885747 12.99021628930853 9138.834450096498 17.789538640610846
0.8324027121097618 12.993127014314654 8090.624007208337 18.519324710989608
0.8537191296731506 12.996696985562261 7170.780984571536 19.277090691190992
0.8752669923410529 13.000830699798389 6361.226432164519 20.063974070495682
0.8970336366019165 13.005452603092415 5649.385445720705 20.88114338991779
0.9190222055423221 13.010434424912258 5021.501576826119 21.729837572391347
0.9412158934257389 13.015725539658582 4467.934289722948 22.61140478674947
0.9636072306241281 13.021229383496792 3979.6074286104504 23.527215258950974
0.9861868060692563 13.026879872941306 3547.18530149369 24.478705673094623
1.008944271602914 13.032599954481501 3164.716765638632 25.467383247369433
1.031866494233109 13.038328272711068 2826.1561395767085 26.494830126894485
1.0549540486045468 13.043973995481885 2526.0628533348035 27.5626611034502
1.078183146677233 13.049492082505374 2260.1131898490435 28.67259454588337
1.10154598072253 13.05481252271408 2023.566398331871 29.826502610697574
1.1250266084943397 13.05988584053152 1813.3201997455276 31.026313825967993
1.1486167620562784 13.064651714815636 1626.38011207916 32.27405909328878
1.1723013007469956 13.069046986246367 1459.8984934900118 33.571878600588335
1.1960649160772352 13.073023954583855 1311.6827519116757 34.92202928420753
1.2198937626054072 13.076531204936742 1179.3583311540106 36.326756928150246
1.2437729537042872 13.07951661853276 1061.3542218873804 37.78837994321703
1.2676864745564744 13.081923533156496 955.824690983358 39.309812348956065
1.2916186643800938 13.08371942026297 861.5575531982321 40.89385878668356
1.3155515668062117 13.084855954090559 777.231350707614 42.54289201040062
1.3394703412559763 13.085269492695547 701.6975212199964 44.26047039982452
1.3633549289762232 13.084940678244996 634.0278995522337 46.04970716615504
1.3871886904330697 13.08381887657835 573.3580722572805 47.913768580826606
1.4109523902304908 13.081852304804745 518.8667749044241 49.85662895255967
1.4346295475059845 13.079013319440438 470.00962484350936 51.881709325524696
1.4581963936563236 13.075264437194882 426.0190448863503 53.9932596973167
1.4816385065191466 13.070560413272144 386.5043897508407 56.19572716191759
1.5049311353681571 13.064857926805686 350.91547691343874 58.49294347706745
1.5280575202416058 13.058131572743848 318.8856203588932 60.890281980341605
1.550995171151349 13.050342561541932 290.0016230340219 63.39273204045869
1.573722420208144 13.041460448912364 263.96547197051456 66.00560466636075
1.5962202613036642 13.031440625972794 240.44631006953048 68.73455852212089
1.6184568399039354 13.020249702509457 219.202228077331 71.58562815342634
1.6404319335398891 13.007887291110983 199.99675139886878 74.56525462902863
1.6621043227418022 12.994287373128081 182.63136232157225 77.68031882342756
1.6834571880434346 12.979430267307398 166.9300108381071 80.9381775925988
1.7044694895915522 12.963285653001508 152.68612950073063 84.34670312311125
1.7251189244146197 12.94582918099359 139.78644373331414 87.91397651809424
1.7453786984759585 12.927027280963824 128.09181395587555 91.64873728047222
1.7652302855414996 12.906861749663872 117.46918151909888 95.56088659732161
1.784648769955688 12.885298267587151 107.8268348647567 99.65988542083025
1.8036123763189138 12.862315472874137 99.06673258346324 103.95693131546973
1.8220964276895686 12.837886456283695 91.09685443802168 108.46359076020198
1.8400802703349948 12.81199664691116 83.84537980482698 113.192065668576
1.857540727886012 12.784613874698266 77.24095000723626 118.15549878544319
1.874455387905989 12.755729658882851 71.22348591728954 123.36805693717793
1.8907995934451172 12.725310045620605 65.74003516455349 128.84502223083007
1.9065539121983146 12.69334650826803 60.73572925480305 134.60289208558433
1.9216950858875437 12.659819928258951 56.165747214030986 140.6594890876393
1.936202772590554 12.62471479203641 51.99072694068504 147.03299677393952
1.95004598176042 12.587992544081636 48.17449470183564 153.7446911037101
1.9632207514219127 12.54968656336778 44.685824187005984 160.81596357352652
1.9757057617461617 12.509789119920503 41.493462328487226 168.27070170360062
1.9874658521960262 12.468238442860452 38.567926078895816 176.13471008667491
1.9984902031684735 12.425048091604548 35.89012114661036 184.4357598610139
2.0076034981099533 12.381838784160061 33.60649892298246 193.49129258568377
2.011947528265424 12.338712716854419 31.980135413948684 204.00110875455775
