M[M_sun], R[km], Lambda[1], P_c[MeV/fm^3]
0.2416277750616976 15.618515526848569 2160338.09801669 3.5677787854173952
0.25224149368647 15.314070663423292 1768038.1305465542 3.759425085803055
0.2631514965658198 15.045801362008396 1454061.2789187722 3.9583972453056915
0.27436012853459946 14.808577237923954 1201255.3620893336 4.165032111915334
0.2858645500066903 14.5983613233133 977399.31373025 4.3796215103056655
0.2976671147836072 14.411542092819948 830306.5220287743 4.602320826024015
0.30976790788708225 14.245274145659117 694166.3200278493 4.833540895715838
0.3221691614236346 14.09703425928898 582387.5568670712 5.073579087343144
0.33486736397943057 13.964685244296266 490114.9184042205 5.32274556621692
0.34786497490021023 13.846549697112904 413825.5336510029 5.581287742605323
0.3611649868284377 13.740886976808799 350372.7178482543 5.84961856394733
0.374765196441398 13.64639675242753 297467.2736301994 6.128097464886065
0.3886684964611636 13.561949124241854 253210.25086788108 6.417091216314677
0.40287174451681934 13.486563048855677 213283.9406832333 6.716982003712826
0.4173783170939191 13.419253586267853 184781.01001476534 7.028168035739507
0.43218833802459505 13.359236254381068 158393.68762637692 7.351064183353783
0.44730075292367316 13.305811416504314 136068.86252465384 7.686102651106018
0.4627155913881487 13.25837503522297 117113.7691458771 8.033733682382795
0.47843440460181985 13.21632701270871 101015.01678533258 8.394426300558132
0.49445339493815044 13.17923293517197 87284.9780700473 8.76866908820212
0.5107746045965212 13.146592160156606 75543.62515159651 9.156971006727453
0.5273964721295201 13.1179982230555 65502.30993185681 9.559862259116358
0.5443159396656148 13.09314979149531 56886.73340544207 9.977895198664722
0.5615363158972473 13.071621408958844 49484.15301066534 10.411645287013188
0.579051913910773 13.053162048553872 43114.67094497897 10.86171210509828
0.5968631150846999 13.037502532967105 37615.79230842767 11.328720421064304
0.6149660074523383 13.024382906016232 32866.044167405926 11.813321319618709
0.6333593718862408 13.013577915209051 28755.382840983675 12.316193397796658
0.6520381901038088 13.00488582358739 25194.09207757906 12.838035633855025
0.6710022756247871 12.998094348306799 22101.396221017487 13.379507663137872
0.6902470344190614 12.993028835416625 19411.753596511582 13.94145827748141
0.7097676947255886 12.989508043249188 17072.341541298465 14.524690514017328
0.7295601477211583 12.987408574625297 15031.826654451766 15.130042241036088
0.749622430811539 12.986534439719517 13250.09457834121 15.758387896052401
0.7699466634858199 12.986811868865333 11693.925655075464 16.41064034211236
0.7905275161568124 12.988073702139445 10330.43381695664 17.08775285272241
0.8113609775740644 12.990221790305526 9136.972808623317 17.7907212366822
0.832438614749599 12.993128113646044 8088.789461293111 18.52058611506085
0.8537568377495822 12.996695667066113 7169.3047061619845 19.278435363570072
0.8753024451792766 13.000848717086388 6359.950662310948 20.065406734669114
0.8970775832442653 13.005445770841188 5648.1906914664 20.882678524656967
0.9190630943705 13.010452054569816 5020.5222345046295 21.7314715100937
0.9412589263965805 13.015732751425201 4466.928290824985 22.6131431732334
0.963650694776414 13.021245101704725 3978.6547647451134 23.529064083402083
0.9862324279055591 13.026888613954151 3546.422343937757 24.480671291741988
1.0089919113252963 13.032610964148752 3164.0071200264088 25.469472408943677
1.0319153214586425 13.038350127951897 2825.557170329854 26.4970500000128
1.0550046372216317 13.043977620513932 2525.731175342434 27.56500583202511
1.0782343063391477 13.04950401461979 2259.5544109549623 28.67508502817256
1.101597264202022 13.054830698755438 2023.0558214817304 29.8291474308632
1.1250811653661188 13.059894728333504 1812.8592734790614 31.02912211856193
1.1486719462574009 13.06465538493737 1625.9702518880408 32.27704058283366
1.17235717104907 13.06905318314233 1459.5772275091035 33.57504364427427
1.196122794175565 13.073030750618498 1311.355967808776 34.92538891797544
1.219954094935329 13.076531007734708 1179.0642096897782 36.33030435797317
1.2438332761109419 13.079520006838289 1061.0847106074955 37.79214536302458
1.267748705070946 13.081931691675317 955.5612737594693 39.31380910141109
1.2916808060548763 13.083721546835806 861.3188779347447 40.89810111493935
1.3156157871831902 13.084855867936817 777.04868937548 42.547373038483805
1.3395338505540864 13.085270876748014 701.4786415329802 44.26522737925666
1.363420067410217 13.084943017091874 633.8424120738738 46.054733516005626
1.3872553974036792 13.083813216611297 573.211588778369 47.91910553642327
1.4110198338466744 13.081848662554684 518.7322822308271 49.862270388395736
1.4346972444441775 13.07900611027506 469.87454577760434 51.88770097839743
1.4582661272001012 13.075252497216436 425.90262898876574 53.99959609132099
1.4817085228673106 13.070542016545337 386.3847010182098 56.20244151262224
1.5050019662994634 13.064838852276003 350.8037923561702 58.50006644627025
1.5281286795064075 13.058107350145418 318.7924476224067 60.89782110461613
1.5510663538075353 13.050318795027584 289.90950014535633 63.400714310845
1.57379311284745 13.041431592089245 263.8804801062864 66.01405904879384
1.5962921518245792 13.031406760490114 240.37275772949488 68.74351611735214
1.618527985693043 13.020215839713291 219.12083596056354 71.59512237142508
1.6405035823038647 13.007845493370983 199.93353662759145 74.57532137932196
1.6621763406121561 12.99423821729861 182.57536223442952 77.69099672299552
1.6835295569274427 12.979375423028952 166.87706283650118 80.94950819312321
1.7045413689264335 12.963227810574674 152.6395350446201 84.35873115957527
1.7251903948330627 12.9457659211929 139.74563670101435 87.92670729024087
1.7454497515696565 12.926958648587306 128.05332477023862 91.6622638911973
1.7653006020157684 12.90678444975564 117.43166233916727 95.57521922835629
1.7847187631752066 12.88521700463107 107.79681487505066 99.67512823541189
1.8036810165623243 12.862227354354456 99.03631626920152 103.97310041903981
1.822165320279494 12.8377951187481 91.06916195034799 108.48075293204455
1.840148394927677 12.81189533296775 83.81581318306358 113.21029306678875
1.8576060384921305 12.784508040815195 77.21784114131137 118.17486943449252
1.8745194891592554 12.75561498721979 71.20146490756113 123.38865526509419
1.8908628739352624 12.72518797931004 65.71959558682198 128.86693966162713
1.9066154504153094 12.69321620039092 60.71515506207878 134.62622769317147
1.9217541099540385 12.659682947265036 56.14807314163921 140.68435031827417
1.936260368145955 12.624568790252063 51.97584779840225 147.0594381161349
1.950101181636672 12.587839393127425 48.15838155145917 153.77283546646296
1.9632743032569513 12.549524898448649 44.67191128890509 160.84600956976848
1.9757562631576482 12.509619500770995 41.480908418448394 168.30273106122246
1.9875150018530348 12.468058132429464 38.557846652636805 176.16888089445203
1.9983233759915096 12.425280801131764 35.9183569545422 184.52808576295087
2.0047662221585405 12.38389193694732 33.98906353631709 194.1913025425388
2.0058864203291114 12.340473679034558 32.68670287820936 205.4843201083317
