M[M_sun], R[km], Lambda[1], P_c[MeV/fm^3]
0.2416277750616976 15.618515526848569 2160338.09801669 3.5677787854173952
0.25223785603207943 15.314146271140864 1768242.4526642025 3.7593495053686885
0.26314346245158393 15.045957944720687 1454335.47063074 3.9582410401716057
0.2743478343661874 14.80877935304377 1201608.6006298484 4.164788090801055
0.2858462559061096 14.598643122481146 997042.4729020469 4.379285544617655
0.29764458019078854 14.411858822407586 830564.7517668074 4.601883819335587
0.30974031146919107 14.245591141674222 694419.5113112438 4.832995402607985
0.3221345637880977 14.097378406344097 582600.6080211761 5.072917320996514
0.3348266595932904 13.965101525508558 490400.35179514287 5.32195938039332
0.347819072294892 13.846939813907317 414068.7017505634 5.5803758038250955
0.36111247944886404 13.741240248945537 350578.8989337265 5.848565827590604
0.37470706015659555 13.646757303215134 297683.5929420674 6.126894645787516
0.3886014513014773 13.562361350021686 253403.15661875816 6.415728587248027
0.40280011261561893 13.486911829311174 213440.5059443307 6.715449370984992
0.4172996864298433 13.419588955690154 184939.61934137953 7.026454713219799
0.43210144870413353 13.359562708361622 158551.52385114407 7.349158964826863
0.4472077047760483 13.306131184520973 136193.32402987636 7.683993780827754
0.4626137667169285 13.258694502542413 117235.8066481228 8.031408823708947
0.47832357050066804 13.216617128563163 101116.72608995673 8.391872502504699
0.49433590385190906 13.179472831196641 87373.30171178358 8.765872749785956
0.510647552819392 13.146819013161878 75627.06732416131 9.153917838923855
0.5272584897792167 13.118237735854432 65578.32621771985 9.556537244257823
0.5441730001618802 13.093332002543105 56954.17945959027 9.974282547092585
0.5613825330157506 13.071780385847283 49543.21312378526 10.407728390778814
0.5788887125519752 13.053315074202954 43167.43674746686 10.857473488496437
0.5966899669918132 13.037640732048125 37665.03310250854 11.324141687764309
0.6147833333044379 13.024500817206363 32908.528347504296 11.808383096142034
0.6331654476818215 13.01368724008647 28794.806087820438 12.31087527307077
0.6518352256883588 13.00496444346751 25229.923726501474 12.832276622369418
0.6707882387259777 12.998175576378518 22133.655470974547 13.373322005969523
0.6900222717775096 12.993083044517912 19440.631741362893 13.934821938590028
0.7095331593052593 12.989533693596284 17097.645307409875 14.517578128636595
0.7293146206075183 12.987409744454462 15054.168124188256 15.122427030543683
0.7493659147722752 12.98653676800644 13271.415157607858 15.750241576783448
0.7696784501777951 12.986800605508986 11712.811199039184 16.401933027660142
0.7902472269218415 12.988056990881327 10348.097004460978 17.07845294923364
0.8110700130494974 12.990185272723059 9152.662530284622 17.780795330614506
0.832137239989525 12.993085967744452 8103.776544799855 18.50999885282576
0.8534407896613646 12.996648597692806 7181.811519503644 19.26714932243847
0.8749771205986177 13.000789373179678 6371.4238922552595 20.05335644288565
0.8967379556846319 13.005370614227667 5658.650355988203 20.86979418155452
0.9187146811101404 13.01035637338881 5029.8355780559505 21.717758053857978
0.9408972997845081 13.015644148444565 4475.311927224512 22.59855323688519
0.963278730921002 13.021150527413948 3986.1311139699183 23.513547419817144
0.985848429549146 13.026792178579912 3553.4137619198827 24.464174575097385
1.0085965162384514 13.032516952697247 3170.5081668951216 25.45193902122713
1.031511636056036 13.038230491612467 2831.37746385862 26.478419801377626
1.0545851319346504 13.043881791634025 2530.6248603355384 27.54527540388607
1.0778031026835149 13.049404382468577 2264.157911976985 28.65418414998217
1.1011552300862257 13.054728487168472 2027.3075796986031 29.80695153640841
1.1246272519487448 13.059798782598289 1816.6782438056366 31.005554579046507
1.1482070586339983 13.064563987315287 1629.4418553424564 32.25201982140282
1.1718810580158474 13.068970179249682 1462.6941949284765 33.54848277800327
1.1956360212030699 13.072957523813761 1314.2121982376086 34.89719537147472
1.2194558372456938 13.076464592367913 1181.688827109366 36.300533961738566
1.2433259584220784 13.079460526830722 1063.4004911422855 37.760547164036524
1.2672310835135399 13.081887884657698 957.7545744434268 39.28027001250126
1.2911543694362302 13.083689339050638 863.2621372349063 40.862501663850125
1.315079858688501 13.084833577216594 778.7796676641055 42.50977090512392
1.3389898030515892 13.085270385063358 703.1262201028921 44.225310095076814
1.3628690743996976 13.08495887207635 635.3408227626421 46.012556283584935
1.3866946374263533 13.083847967720866 574.550443200525 47.87432248267469
1.4104524348662508 13.081905618339869 519.9570645124943 49.8149328934075
1.4341222419155109 13.079089227192142 470.9785021672797 51.83742542527624
1.4576857443004687 13.075356418938195 426.92920696467826 53.94642840918588
1.4811216138167131 13.070671213324376 387.3212514704563 56.145972907409856
1.5044104425938278 13.064996905701316 351.66865375272357 58.440300169058034
1.527532616647696 13.058295381917402 319.57401727795343 60.83456373841252
1.5504669718863424 13.050537572332887 290.64492410607653 63.33373948355371
1.5731918480353406 13.041680871824463 264.53598485273034 65.94312382935955
1.5956806248159159 13.03168120237266 240.9565699391423 68.66835095604974
1.6179293918608606 13.02054727008345 219.68771306361273 71.51545277800292
1.6398976116515467 13.008204236294024 200.4461492014815 74.49086095961204
1.6615700162473868 12.994640369563196 183.04035656319257 77.60140989236626
1.6829246043968162 12.979819166003649 167.30453664768137 80.85444649981848
1.7039381710257038 12.963713781915851 153.0302831311903 84.25781946432588
1.7245890874674668 12.946296608340457 140.10289348322146 87.81990112836469
1.7448538834411624 12.927539758314786 128.38469951294547 91.54878255797298
1.7647095685475862 12.907413779246186 117.74170087058576 95.45486886650541
1.7841332470003293 12.885894356134239 108.07648725321917 99.54725234016284
1.8031034674750497 12.862958261731954 99.29607671838704 103.83745546294683
1.821594257045451 12.83858051343723 91.30094581690558 108.3367789653899
1.8395861303083485 12.81273781099 84.02834348224586 113.05708813172123
1.857055744403753 12.785409033594272 77.41981173844115 118.01199760330822
1.8739811659979213 12.756573603249473 71.38802086806112 123.21564447376527
1.8903184484135371 12.726215988011525 65.89571523641914 128.68534857945588
1.9047978770737857 12.694705173098615 61.16709895143029 134.58509078603376
1.9165341683221984 12.660720885526183 57.205088746495434 141.0334816932978
1.925625653625815 12.62329453786911 53.840931740564756 148.06151159496977
1.9322614408275463 12.582001186537887 50.95019327846509 155.7024755522921
1.9366558220619914 12.536694001705916 48.42356893165603 163.99234828868958
1.9390095018261726 12.487412642128897 46.191032841971726 172.97030733038554
1.9394694589785229 12.434070840739828 44.201440593602 182.67905083118615
