M[M_sun], R[km], Lambda[1], P_c[MeV/fm^3]
0.2416277750616976 15.618515526848569 2160338.09801669 3.5677787854173952
0.25223787666604386 15.31416714640079 1768195.485355455 3.759358975413153
0.2631439066644167 15.045949847927526 1454291.7844369544 3.9582606120546613
0.2743482361288136 14.808781783451732 1201534.737783391 4.1648186653058294
0.2858485300956809 14.59861240441168 996923.9581801047 4.379327638778747
0.29764746517645724 14.41181804175668 830578.060914577 4.601938572585533
0.3097442935877121 14.245552153538235 694364.943555553 4.833063747495911
0.3221387502888835 14.09733392279643 582596.794791277 5.073000232818133
0.33483191894633585 13.965047633514503 490378.94999171415 5.322057879446789
0.3478256138078394 13.84687492625991 414043.61121790693 5.580490056901545
0.36111861256810573 13.741201046724822 350552.31335411925 5.848697719161744
0.37471367306567493 13.646736993538953 297640.8337257272 6.12704533875545
0.3886100677396241 13.562310925329752 253369.27652530823 6.4158992998643445
0.4028078819746351 13.486916633829479 216205.20551440865 6.7156413799062795
0.41730963436421226 13.419552442268834 184921.67841585993 7.026669356759117
0.43211215983438805 13.359523601693407 158529.5658077956 7.349397646414916
0.44721912320852364 13.306080369514769 136176.78343693746 7.684257972699216
0.46262686574552414 13.258623803388192 117217.150888261 8.031700070829737
0.47833623929953084 13.21659022131612 101099.56272374779 8.39219242675842
0.4943509033950749 13.179441474241196 87364.68043746799 8.766223054438028
0.5106635206712424 13.146818685504373 75613.86800361497 9.154300313383846
0.5272760345103183 13.118209947059926 65569.18118443074 9.55695376916234
0.544191142680526 13.093309055791384 56944.589957242766 9.974735099731738
0.5614020883240609 13.071759067159451 49539.10573951683 10.40821905089205
0.5789099762145469 13.053291242782185 43161.07567917883 10.858004444464889
0.5967119321764478 13.03764116258584 37658.12277395177 11.324715243228953
0.6148056444380714 13.024491782134405 32902.994599256584 11.80900167707905
0.633190564449167 13.013666578133067 28789.70500595635 12.31154143535815
0.6518604120022271 13.00496726549478 25225.30884111262 12.832998003251113
0.6708152059227195 12.998149338494677 22129.100602237137 13.37409682141595
0.6900510779886025 12.99306136456833 19437.173318022185 13.935653198293053
0.7095623430862645 12.989544596204825 17094.010844941207 14.518469008631358
0.7293456972638369 12.987414273361829 15050.873448496463 15.123380883864147
0.7493971203129234 12.986539676905247 13268.717481030262 15.751261944875973
0.769712260219707 12.986792628635172 11710.356486529228 16.403023652611946
0.7902840010053105 12.98805268920059 10346.092146729174 17.079617786878103
0.811106474564739 12.99018970262396 9150.713856188187 17.782038564579505
0.8321731403554822 12.993102478916853 8050.170976423723 18.511324909597622
0.8534809785468228 12.996648804425842 7180.400538120944 19.268562887519042
0.8750194266062533 13.000792847551036 6369.852895226003 20.054871925717887
0.8967802118211281 13.005380165692566 5657.351637091376 20.871407897764552
0.9187571763020997 13.01037124096495 5028.536704596333 21.719475596324457
0.9409425206275229 13.01565933566881 4474.343405580044 22.600380535880884
0.9633256892461887 13.021161645391421 3985.177321033319 23.515490766127485
0.9858955024695146 13.02680609637205 3552.44911647406 24.4662406448688
1.0086458815063852 13.032530270565013 3169.773349501911 25.454134902683588
1.0315630572064345 13.038237759363854 2815.670668448486 26.480753023558776
1.0546371221312947 13.043892813225613 2529.97118508168 27.547753967572184
1.0778565561517977 13.049417856264052 2263.586234089341 28.65680169972988
1.1012096660201425 13.054739827701772 2026.5419526146543 29.809731240196534
1.1246840879467528 13.059816054644457 1816.2109497057531 31.008506029715658
1.1482651274607127 13.064576143554158 1628.9875724565395 32.25515323107847
1.171940520376723 13.068977976295066 1462.2715830804655 33.55180902289242
1.195697069021283 13.072958605630953 1313.863039659656 34.90072604021353
1.2195188994818562 13.076479477031995 1181.3393327458873 36.30426308530107
1.2433897815790973 13.079467728302687 1063.127967189929 37.764504116258756
1.2672958574893962 13.08189391190842 957.3691619853241 39.284469969597794
1.291220357007494 13.083697736507162 863.0359848342471 40.866959580557115
1.3151467916876272 13.08483665776081 778.5612365043793 42.51447956097155
1.3390600862737367 13.085273749793618 702.9234867977532 44.23030860290412
1.3629378039510802 13.084955914183185 635.1550148353147 46.017837733328456
1.386764922400336 13.083840949326424 574.3899270863723 47.87993016705902
1.4105228333855024 13.081901748851699 519.7970207727417 49.82086038113861
1.4341945767266249 13.079075835665021 470.84029896656165 51.84372073176158
1.457758445748936 13.075346967000844 426.7862880409763 53.953085785706364
1.4811959467101439 13.070653836704318 387.2041391241306 56.153045724949166
1.5044851223936457 13.06497546479891 351.56700067307605 58.44778360855137
1.5276075531518656 13.058275241784571 319.474650320197 60.842484213823504
1.5505420335734936 13.05050874206555 290.55435790406005 63.34212532688606
1.5732674652985106 13.041648959212884 264.46088883356583 65.95200544454092
1.595761253347714 13.031657509876421 240.8994039261544 68.67776970581438
1.6180003181275964 13.020512186335477 219.60046337837457 71.52543802675122
1.6399724914189304 13.00816177274766 200.38752778182436 74.50143564094924
1.661646096691152 12.994590442618769 182.98201392230703 77.61262627108489
1.68300044509655 12.979763111600123 167.25294024290372 80.86634818210744
1.704014399042086 12.963651477935795 152.98906901745582 84.27045339517579
1.7246642606668647 12.94623077261239 140.05656285838495 87.83327287483635
1.7445369658343157 12.927461403533979 128.5193490235025 91.58925114835395
1.7618900161805835 12.906449552308054 118.84486098161403 95.66721495963907
1.7765714350746367 12.881821002670046 110.67899761089426 100.0982424624505
1.7887978061863297 12.853111169727784 103.6747495458919 104.90027903231251
1.7987755251955098 12.820067727970615 97.58475380935171 110.0924872475038
1.8067130854939362 12.782667600903936 92.20676957830918 115.69556815916131
1.8128061566525377 12.740955042871294 87.41290416743296 121.731995821726
1.8172188529343893 12.69508899241706 83.09182893987328 128.22620299551178
1.8201080146206894 12.645172239607767 79.15107256908269 135.2047712881182
1.8216049030084693 12.591365530500308 75.54280597204844 142.69655044694153
1.821824875384632 12.533814135520435 72.21231862432774 150.7330398298064
