M[M_sun], R[km], Lambda[1], P_c[MeV/fm^3]
0.2416277750616976 15.618515526848569 2160338.09801669 3.5677787854173952
0.2522409394184065 15.31406302854585 1727244.6434314772 3.759412506782241
0.2631501703390548 15.045827579516224 1454223.8156369354 3.9583712474318395
0.2743575487577023 14.808607703603322 1201339.7417570138 4.164991497989806
0.2858623068351374 14.598344515303323 996794.328102174 4.379565592857963
0.29766321618257546 14.411592943788913 830344.8213610246 4.6022480907007965
0.3097634746292711 14.245312195786553 694198.1783722003 4.8334501029242185
0.32216350898384905 14.097034058413886 582371.8529972436 5.0734689406321
0.33486039404690715 13.964756139967916 490178.22642177896 5.322614709276267
0.3478576053863446 13.846610128456549 413867.05106743117 5.581135953133116
0.36115604530061374 13.740910923994925 350409.57058652723 5.849443337296322
0.3747551011925755 13.646454948368243 297484.7675514796 6.12789725506415
0.3886575488841349 13.562010711003081 253243.45365692492 6.416864403706313
0.40285963425939425 13.486632664868278 216089.55724184625 6.716726891013998
0.41736550800304845 13.419307123082332 182512.300052088 7.0278828436319865
0.4321744847987731 13.359279077896579 158423.13922527293 7.350747045900165
0.44728507851601323 13.305887588959372 136093.17015809767 7.68575161084535
0.462699166892359 13.258420000405033 117141.28938258669 8.033346685105188
0.4784157954024828 13.216409132456164 101028.29146472532 8.394001189734727
0.4944337784539059 13.179275891265869 87299.13219805581 8.7682035990454
0.5107534845895024 13.146628918185185 75558.27856419803 9.156462759854387
0.5273733778660883 13.118039044966862 65514.94109643438 9.559308753785349
0.5442939110635133 13.093160941595958 56898.11517475689 9.97729380555488
0.5615117785920518 13.0716382193302 49496.29479868587 10.410993240511957
0.579025771942867 13.053192861002712 43123.58787139287 10.861006495061382
0.5968349646887292 13.037519769408018 37298.35363343852 11.327958184008889
0.6149355096558979 13.024404122570827 32874.36346589815 11.812499229307592
0.6333266160835717 13.013598714567761 28761.38998512242 12.315308055169005
0.6520040906833331 13.004901349975693 25199.73825702314 12.837076883774541
0.6709664532545201 12.99810373816592 22107.26922970965 13.378477876212527
0.6902089868808382 12.99303055137 19416.258971632487 13.940353450850402
0.709729432486678 12.989509079664726 17075.66144783817 14.52350642349607
0.729520834349776 12.987389053512812 15035.431798892965 15.128774426933825
0.7495813056308113 12.986527831073644 13254.296870182212 15.757031647980897
0.7699005387369409 12.986808415006939 11697.02495951805 16.40919068270907
0.7904817528069087 12.988070220044355 10264.720927056502 17.086204520206454
0.8113125306878979 12.990214576328205 9139.568813671802 17.78906866615433
0.8323883037695851 12.99311766459423 8091.33678851802 18.51882341845094
0.8537046097142529 12.996690760908656 7171.438208058566 19.27655630812892
0.875248981139684 13.000837815465301 6361.740774097523 20.06340471989106
0.8970195005687989 13.005434382830222 5649.873961804435 20.88053331814642
0.919005663329321 13.010433200208508 5022.030553772574 21.729188236958105
0.9411988027149416 13.01571770101895 4468.370553103942 22.610713944135096
0.9635885591163786 13.021229547472613 3979.8797462825423 23.526480529195734
0.9861692709702777 13.026870798236859 3547.5753294157944 24.477924530390254
1.008926286381509 13.032594157235975 3165.025664482144 25.466553009943638
1.031846762035063 13.038327446787834 2826.4505656854403 26.493947946129886
1.0549343834816 13.043966418311344 2526.4428158195524 27.561729306457057
1.0781623079777305 13.049487933742316 2260.307077149071 28.671604828201982
1.1015238377757282 13.054806267780302 2023.8197411457052 29.82545156123465
1.1250055537224422 13.059886448334836 1813.6902536115988 31.025197814931072
1.148594714433183 13.064647566781453 1626.5461979745658 32.27287425645933
1.1722789236227331 13.06904374182254 1460.0627361298195 33.570620822356666
1.1960423736709107 13.073012344903445 1311.8383341120557 34.92069417926266
1.219870372784635 13.076521914229062 1179.4637116723613 36.32534719625493
1.2437490734737742 13.079513730516453 1061.465195739439 37.7868835862925
1.267662213219941 13.081917777528293 955.9383936947345 39.30822406512034
1.2915939171075772 13.083718586643938 861.6419630043769 40.89217291624985
1.3155260634189658 13.0848489403135 777.3267962104882 42.54111128565402
1.3394443081046523 13.085272324733454 701.7815631814021 44.25858001841951
1.3633287988914877 13.084941344922303 634.097752209038 46.0477097431155
1.38716186624189 13.08381726630302 573.4250634324738 47.911647730900036
1.4109263145079618 13.081854342463407 518.9456470394803 49.85438710978093
1.4346015438102435 13.079018840086219 470.05278246564666 51.87932831606013
1.4581688438426974 13.075272993653602 426.05451487554507 53.99074169705591
1.4816109088084437 13.070564743368625 386.5325000637447 56.19305196861902
1.5049034642721502 13.064865526896506 350.9555926338979 58.490112914922165
1.528028961701274 13.058139483266437 318.91847196275194 60.88728605078811
1.5509667657943047 13.050352848040585 290.0327237057853 63.389560018554285
1.5736939154218221 13.041472413496308 263.9936520423296 66.00224504247349
1.5961901142408303 13.031455805022762 240.4717276234582 68.73099893839094
1.6184280294938023 13.020265312319134 219.22590556231816 71.58185533447458
1.640403202449428 13.00790438217834 200.02377126834378 74.56125430633374
1.6620729279453388 12.994309504929832 182.63611007051983 77.67607565272806
1.6834285593485827 12.979451217417113 166.95027584827125 80.93367506360578
1.704441060628403 12.963309367481902 152.70232563299732 84.34192346074087
1.7250893328210268 12.945853953603239 139.79903251433134 87.90891761633928
1.7453508246806166 12.927055219190075 128.11227079359944 91.64336214599713
1.7652020231445376 12.906891116964294 117.4876216508455 95.55519118430796
1.7846211326474863 12.885330369862842 107.84001439735087 99.65382834158113
1.8035848777715278 12.86235003363762 99.07914679201772 103.95050617047316
1.8220694304345415 12.837923304083933 91.10598866938034 108.45677101568748
1.8400554969430656 12.81203594408074 83.85415895984457 113.18482265370304
1.857514569315108 12.784658046876173 77.25301758394525 118.14779875946581
1.8744299243728877 12.755774683595764 71.23368443465533 123.35987183256823
1.8907756376208218 12.725357436509016 65.74799289692645 128.8363129831015
1.906529626618991 12.693397949414459 60.74320323076091 134.5936193300496
1.9216696571728387 12.659875741558977 56.17092726524266 140.6496101332585
1.9352518269867713 12.625447183514812 52.1896964897762 147.16034143156588
1.9442067718249645 12.58980988392031 49.21471134388059 154.59638473304324
1.9486502130834893 12.550213491366602 46.97340505100331 163.0306587947816
1.9491350712321844 12.505581366949716 45.25780130485861 172.50473721787463
