M[M_sun], R[km], Lambda[1], P_c[MeV/fm^3]
0.2416277750616976 15.618515526848569 2160338.09801669 3.5677787854173952
0.2522421018835786 15.314029736124565 1767981.9141336943 3.7594408536484267
0.26315386931816 15.045689558400491 1454092.7941500694 3.9584298339003676
0.27436299461045444 14.808474269632638 1201283.9387863588 4.165083022142387
0.2858685778192902 14.598255748948972 996640.7125788396 4.379691604103144
0.29767184666331165 14.411459859551602 830245.0957228361 4.602412001872899
0.30977415124048097 14.245174755642593 694096.3254328808 4.833654707695496
0.322174848978871 14.096946646812567 582273.0076716248 5.073717160826312
0.33487469398059244 13.964622895315763 490068.1271992775 5.322909601632663
0.3478747541622531 13.846459465914776 413776.87025377183 5.581478018817493
0.3611762929110067 13.740751773134196 350325.61700751696 5.849838220955794
0.37477769822637336 13.646300953668389 293265.2942912766 6.1283484409589875
0.38868227517754184 13.561867788206976 253173.73677172855 6.417375542035773
0.40288642730829605 13.486520182389508 216032.07578795 6.7173018070787
0.41739508432852673 13.419185040041413 184756.06719056255 7.028525547583834
0.43220605686431024 13.359167572401523 158371.14612334533 7.35146174312176
0.44731984647675244 13.305759849924346 136041.3683040882 7.686542713004146
0.46273814573947886 13.258296746284566 117098.0203121174 8.034218821931349
0.4784566163468185 13.216281372186822 100990.43844878509 8.394959221575693
0.4944785791931652 13.179171430452973 87262.97541794117 8.769252630253908
0.5108011599819471 13.146541402585182 75527.0373661277 9.157608153071486
0.5274227545491272 13.117976952357226 65485.96386693467 9.560556145184153
0.5443487658739976 13.093067297341722 56871.84732364421 9.978649121116154
0.5615682068330181 13.071591638275535 49470.11779622557 10.412462713407562
0.5790869064575631 13.053124397302371 43102.295914235 10.862596684227455
0.5968972939389412 13.037490071491607 37604.69572456415 11.329675993996645
0.6150044404658597 13.02435892713871 32856.85340636254 11.814351931506339
0.6333992658759002 13.013560595477664 28746.73123819445 12.31730331050271
0.6520804565108093 13.004869320770357 25186.443674454928 12.839237579801079
0.6710461015141426 12.9980924661526 22094.602721263494 13.380798670514446
0.6902936941729619 12.993019869106893 19407.0810949804 13.942843365292607
0.7098163432002622 12.989502176498602 17066.672979874304 14.526174978799633
0.7296126355996422 12.98739863849553 15026.641727908744 15.13163167464366
0.7496772003382481 12.986540565528742 13246.204273633502 15.760088204708168
0.7700026196772828 12.986815754924217 11689.919884790193 16.4124577668202
0.7905865665401947 12.988073532583018 10326.958146842906 17.089693991143353
0.8114215845384771 12.990218699039724 9133.659116727158 17.792793066586018
0.8325020237122414 12.993131694601107 8085.96369928742 18.522796019473564
0.8538217318776022 12.996708904687976 7166.764665804975 19.280791157747846
0.8753721489484135 13.000850453675838 6357.582466916817 20.067916695039763
0.8971460191718111 13.005476688023037 5646.066929302443 20.885363570106403
0.9191361078620441 13.010468114918803 5018.530327852509 21.73433411530619
0.9413340192027213 13.015763906838973 4465.172948356734 22.61618878068841
0.96372964315438 13.02125736414082 3976.9845243005757 23.5323031874665
0.9863119944181225 13.026913231262293 3544.8879626248486 24.48411502997542
1.0090753521455889 13.032638090045802 3162.717267562346 25.473132606713428
1.0320006705981037 13.038368353068718 2824.3591501487695 26.500939218486522
1.055091610140053 13.044004225771364 2524.7504360287253 27.56911381040503
1.0783244089712052 13.049523322658192 2258.5414272473286 28.679448384882296
1.1016904717046323 13.054844865169809 2022.2289173963534 29.833781207659843
1.1251754541075507 13.05991875830232 1812.0458370824526 31.034042321715155
1.1487685687696791 13.06467401802307 1625.2455744225156 32.28226425249407
1.1724566820807278 13.069070102207434 1458.944341012607 33.58058892930398
1.1962248699929487 13.073041076889021 1310.7531056022829 34.93127515671334
1.22005581929009 13.076549298953399 1178.5504844850338 36.336519645604824
1.243939459503258 13.079527090103381 1060.5697172413866 37.79874260828617
1.267855650484242 13.081936667370176 955.1270500951474 39.32081168509336
1.2917901107368577 13.08373447658314 860.913195875563 40.9055339959363
1.3157271578948433 13.084856918061963 776.630644955848 42.55522416803495
1.3396488699409317 13.085275528453192 701.1456763956605 44.27356203473945
1.3635366306049774 13.08493929636882 633.5318448168408 46.06354016548201
1.3873718880326393 13.08380748804031 572.9107067280389 47.928456439185446
1.4111395190608675 13.081834466311234 518.4847244814913 49.872154810379875
1.4348166961255588 13.078989922544157 469.6375820263185 51.89819906816306
1.4583870585153205 13.075228755434978 425.68157474659563 54.01069825296678
1.4818308705740015 13.070515195574664 386.18811127296823 56.21418605187909
1.5051250264929368 13.064806770335675 350.63720046330934 58.51254689830353
1.5282532837885656 13.05806986280697 318.6210018194505 60.91103077521919
1.5511914695818037 13.050271299870435 289.75394832816187 63.414700499924514
1.5739189106425084 13.041380387395991 263.7411760118487 66.02887251746039
1.5964171905363134 13.031349321199508 240.25172045667287 68.7592113682286
1.6186563215915732 13.020146305869577 219.02218888963688 71.6117579543396
1.6406301935512455 13.007769817459279 199.8315000558191 74.59296022493857
1.662302989833241 12.994154134542864 182.49345978522413 77.70970650722148
1.6836559544883636 12.979283229760451 166.78278253393557 80.96936173544235
1.7046672547963186 12.963127237145496 152.55749232093515 84.3798068588109
1.725314378490732 12.94565480653278 139.66768636750646 87.94901443257463
1.7455737751671665 12.926838197242947 127.97381496890125 91.68596564406835
1.7654247895157007 12.906651842965278 117.37528135934728 95.60033343377678
1.7848406973121809 12.885075738247059 107.7405726310049 99.70183744752877
1.8038034717880664 12.862073384394646 98.98382899808023 104.00143286165554
1.8222832496475188 12.837631763361372 91.01244796117318 108.5108256408088
1.8402653285208113 12.811719485733622 83.7727855537598 113.24223250518988
1.8577213717625043 12.784320306784691 77.1773982239415 118.20881234853115
1.8744573710704862 12.755556108680299 71.21705397604721 123.44641371677952
1.8856943203521452 12.726228512873513 66.95355107653761 129.5323817009924
1.890135679272193 12.692259589245545 64.20563106982976 136.74917950408798
