M[M_sun], R[km], Lambda[1], P_c[MeV/fm^3]
0.2416277750616976 15.618515526848569 2160338.09801669 3.5677787854173952
0.25224155879186944 15.314056224785858 1767887.808014431 3.7594312490248813
0.263152064672658 15.045756746212291 1454026.8905633115 3.958409983278161
0.274361127110065 14.808560825793455 1201262.9860184737 4.165052011267581
0.2858674944583023 14.598275266170603 977327.5567054088 4.379648907920476
0.297668985844128 14.411514054385254 830299.1893646853 4.6023564639349654
0.30977005246615535 14.245259081699013 694151.5086741396 4.833585381337771
0.32217029050722024 14.097008204069981 582348.3508125604 5.073633055954714
0.33486956971895704 13.964685902593665 490096.50159087114 5.322809682431203
0.3478688436872156 13.846471884228693 413805.7046029686 5.581362115395135
0.3611681701342445 13.740838821541882 350341.8525500862 5.849704420598085
0.37476998505016884 13.646354751243868 297459.22984486585 6.1281955629661535
0.38867370211520785 13.56191756002479 253187.56393382256 6.417202349472358
0.40287733991682906 13.486531213424136 216045.74459195507 6.717107003668444
0.41738459272613454 13.419247519050947 184772.83074605008 7.028307774405364
0.4321953315998128 13.359205078474728 158389.59466681434 7.351219575090961
0.4473078278918888 13.3058154048804 136056.8207178064 7.6862746551278525
0.462724389489761 13.258345861343763 117111.4430062844 8.033923305315794
0.47844282194639265 13.216312519228548 99915.03928810975 8.39463459917161
0.4944634453858232 13.17920241700537 87270.07085718517 8.7688971723193
0.5107849355854318 13.146565520231237 75536.8408065338 9.157220042330916
0.527407221411601 13.11798349826767 65496.20643653357 9.560133471662507
0.5443293184954827 13.093122390130633 56881.5614457682 9.978189876622661
0.5615493034954329 13.071594688787313 49479.64517914109 10.411964785644317
0.579065177791471 13.053149512763262 43109.087091536414 10.862057850494732
0.5968770532065153 13.037498109742895 37611.63530004721 11.329093914465146
0.6149797609474643 13.024406003096647 32862.992318976816 11.813724142024393
0.633374677418809 13.013593380960069 28751.753537104232 12.316627214904042
0.6520546931419373 13.004878021806217 25191.071705666596 12.83850542203412
0.6710197042583529 12.998097854032023 22098.36888338224 13.380012260821559
0.6902651060764016 12.993014650739095 19409.017075810298 13.941999646275814
0.7097869645180158 12.989509389588191 17070.48787028899 14.525270723994934
0.7295793773630432 12.987408786758616 15028.910568758432 15.130663477686415
0.7496428966374822 12.986540620416632 13248.525443837752 15.7590524677275
0.7699684095473905 12.986802622104127 11692.21239877806 16.411350688004116
0.7905511596015293 12.988075704587681 10260.499061703915 17.088511551411983
0.8113846517078364 12.990218668961989 9135.67439881 17.791531015305328
0.8324643922290953 12.99312508534271 8087.74058599259 18.521449859135476
0.8537823851121803 12.99670617597333 7168.3202978426525 19.279356127538318
0.8753306041263252 13.000842344653698 6359.042684316535 20.06638775320761
0.8971033883383726 13.005459159408371 5647.334648891017 20.883729712826923
0.9190921633456814 13.01045244705069 5019.6579317366995 21.732590356446337
0.9412881942506898 13.015740167299871 4466.204956794582 22.614333544098738
0.9636810818782826 13.021251659902807 3977.994073735771 23.530330080263727
0.9862645313889561 13.02689586003554 3545.8987917286872 24.48201726745312
1.0090236948985434 13.032620217447995 3163.5139944164243 25.470902985162386
1.0319486083322187 13.038355711107656 2825.0810298356105 26.49857008595781
1.0550380070622887 13.043993778654583 2525.291714930318 27.566611417444413
1.0782693198069981 13.049509812820128 2259.1675969399907 28.676790424527248
1.101632420560862 13.054835746755618 2022.7312781185105 29.830958516816658
1.125118209415655 13.05990333051696 1812.564956037392 31.031045149718924
1.148710058407067 13.064670303931681 1625.6686766583712 32.27908221884888
1.1723960923486394 13.069058411514806 1459.3634602954558 33.57721097809609
1.1961616541454916 13.073033774749849 1311.1190175155812 34.927689507408225
1.219993560532947 13.076537258611046 1178.8649160866198 36.33273355032063
1.2438753508897094 13.079519889089557 1060.8635958630498 37.794723836102605
1.2677911942701752 13.081934906738324 955.3871088332496 39.316545992837966
1.2917243343942653 13.08372955297456 861.1434703601103 40.90100617906141
1.3156591657064023 13.084852767660252 776.890885148135 42.55044156640089
1.3395795091514213 13.085269438893484 701.3674901156935 44.26848488245369
1.3634650079870942 13.084943659598782 633.7013249498048 46.05817548759456
1.3873010815755136 13.08380870364789 573.0817403604599 47.92276021639678
1.4110667358053597 13.081844630788801 518.6463359345687 49.86613358171616
1.434743771724631 13.078999991453223 469.77420176529006 51.89180400813915
1.458313436240825 13.075242468869966 425.8167332474931 54.00393520728343
1.4817564343487348 13.07053103428757 386.3186397283391 56.20703168514394
1.5050504177227346 13.064827229372526 350.7499833244203 58.5049442297948
1.5281778986798351 13.058091055861833 318.7267453783256 60.90298388299657
1.5511150844306594 13.050301565321051 289.8420520625772 63.40618056930881
1.5738422469257416 13.041409817980881 263.82675386168404 66.01984862518627
1.5963413455056479 13.031383609738747 240.32898081639348 68.74965031167557
1.6185781259723713 13.020188366031155 219.07696058880143 71.60162406529518
1.6405519145747418 13.007816629176057 199.8833205883715 74.58221516634337
1.6622256360649688 12.994205391991635 182.55478726715384 77.69830905116244
1.683578902917682 12.979338951830934 166.83848408463263 80.95726752047645
1.7045911326756062 12.963187307573156 152.60647583970442 84.36696812448668
1.7252388426288026 12.945722755625699 139.71390705074302 87.935425522022
1.7454980848366775 12.926912825653234 128.01611050157157 91.67152715545794
1.7653483925310463 12.906732462744804 117.41314646755497 95.5850344980291
1.7847666388785477 12.885163518613538 107.77177702093255 99.68556685196357
1.803727932663507 12.862168068275764 99.01394276912048 103.98417341256336
1.8222106255777553 12.837732554931067 91.04269420953528 108.49250603966057
1.8401940820611893 12.81182665004396 83.80333868999953 113.22277570982207
1.8576511728009544 12.784433917406442 77.20306847143047 118.18813505244562
1.8745633802913313 12.755536308481323 71.18633693108907 123.40276168362693
1.890905828493189 12.725104781029179 65.70738518681897 128.88194949836745
1.9066570340900646 12.693128100049536 60.70249010047819 134.642208805651
1.9217945837156267 12.659589781791164 56.134504976813936 140.70137629881992
1.936299285518317 12.624468194123356 51.96421694977666 147.0775462840867
1.9501392914527351 12.587737593762744 48.15007118913889 153.79214007375595
1.9610984104249038 12.551282627963175 45.06477534993911 161.2578636975515
1.9659122364602928 12.513340704487968 43.01298675833999 170.08850324411904
