M[M_sun], R[km], Lambda[1], P_c[MeV/fm^3]
0.2416277750616976 15.618515526848569 2160338.09801669 3.5677787854173952
0.2522417633493294 15.314049648066405 1767941.1082299126 3.7594345707117682
0.2631525370490988 15.045754153650893 1454107.1884003938 3.9584168484586844
0.2743621797777475 14.80850753264005 1201260.1931530896 4.165062736120712
0.2858677611236348 14.59826525767667 996718.4338691285 4.379663674023689
0.2976699657060999 14.411496022235811 830345.9914179153 4.602375671225982
0.30977103868670064 14.245242434271162 694091.5964559291 4.833609357201946
0.32217168626285314 14.096971774920231 582313.3937830353 5.073662142796168
0.33487165294069215 13.964651576417436 490079.60644936387 5.322844238465594
0.34787112650522284 13.846487262181451 413794.87550474406 5.581402199368301
0.3611704604575833 13.740809689963788 350336.783196273 5.849750693988535
0.37477300700771327 13.646332599834738 297443.18710120604 6.128248434093139
0.3886768869311804 13.561907404290933 253188.17665955928 6.417262246102475
0.40288039413975135 13.486522681478307 216040.4126739479 6.717174374089495
0.41738851273853167 13.41922152891722 184765.95923313036 7.028383088568957
0.43219944297546503 13.359198295619729 158383.3466656325 7.351303325829025
0.44731309208593745 13.305762347724132 136040.9711160223 7.686367359448141
0.46272827652599413 13.258341086607901 117099.79061430924 8.034025505782228
0.4784477582640692 13.216299985704103 100998.078348801 8.394746865375676
0.49446895415281444 13.179191511942763 87270.49498058663 8.769020102449069
0.5107905324331498 13.14656316383974 75532.68869846269 9.157354264845099
0.5274135704331554 13.11797124122227 65494.75437491961 9.560279647076873
0.5443359139444843 13.093115147830646 56877.78168988701 9.97834869941771
0.5615557258951202 13.071599214518283 49474.977682381585 10.412136986302489
0.5790724852222411 13.05314235138757 42722.04335129653 10.862244197677251
0.596883878253165 13.037490679557273 37608.61212390903 11.329295217338512
0.6149879869785732 13.024396770597718 32860.143805680935 11.813941252747782
0.6333831399447494 13.01356768081241 28750.068925014373 12.31686103128934
0.6520649300292509 13.004865067644294 25188.876565035032 12.838758626316947
0.6710284546859493 12.998086544666185 22097.17721945171 13.380284226954627
0.6902750358827914 12.993011518308256 19409.606157581024 13.942291431571581
0.7097968203312142 12.989504853968459 17069.066195804717 14.52558344423143
0.729592273516454 12.98740259049975 15028.493878483889 15.130998310853752
0.7496548044971896 12.986546496439024 13247.75976688763 15.759410658041208
0.7699802520873819 12.986804602411814 11691.555019575482 16.4117335502053
0.7905635314058184 12.9880762212309 10259.741179507655 17.088920475375804
0.811397415725755 12.990215150135556 9134.890388931943 17.79196747098121
0.8324774791756555 12.993128130722903 8086.927351232606 18.52191540184495
0.8537951429623821 12.99670680515172 7167.661591941447 19.27985240365713
0.875345060525497 13.000846843381582 6319.91127138446 20.06691650626272
0.8971181804727736 13.005455727277306 5646.886821857189 20.88429628711289
0.9191072547369248 13.010456581115164 5019.275913670295 21.733193398315095
0.9413040642918626 13.015750071067153 4465.83050289899 22.614975137556932
0.9636975304874272 13.021257720530723 3977.559348772489 23.531012436073162
0.9862803494991689 13.026911321246322 3545.504297798418 24.482742731871614
1.0090423089946623 13.03263077491026 3163.189247585064 25.471674049342468
1.0319664688107726 13.038359783002408 2824.838380033366 26.499389396056944
1.055057026518186 13.043997274364495 2525.1694413889777 27.56747681190461
1.078288481415764 13.04951711768188 2258.9005490027953 28.67770961744983
1.101652478906672 13.054835859432952 2022.55083146092 29.831934676924263
1.1251385777559229 13.059909699513446 1812.4020968804655 31.032081648919856
1.1487302071955363 13.064666552771609 1625.5428743086477 32.28018264685058
1.1724176334462701 13.06905902458302 1459.2419262070619 33.57837915816891
1.196183774309835 13.07303569835642 1310.9567584364443 34.928929513399765
1.2200150909042646 13.076544200126955 1178.745938177547 36.334042874341826
1.2438973487921396 13.079523956174206 1060.7570580197923 37.79611362399845
1.2678137990085543 13.081929942249399 955.3045108551194 39.31802117004543
1.2917473069118945 13.083724730576298 861.0509415387667 40.90257200346304
1.315682179625809 13.084857669832445 776.7751888320531 42.55209549978436
1.3396034280026383 13.085269462903648 701.2961936394076 44.2702406762613
1.363489551759963 13.084941774391721 633.6546437524223 46.06003071248869
1.3873251794390602 13.083808591593325 573.0277416801097 47.92473009464085
1.4110927939814446 13.08183849548634 518.5799449990558 49.86821585205428
1.4347688952014221 13.078995006562526 469.72053630391395 51.89401555479986
1.4583395829403587 13.075238724418922 425.7763589046762 54.00627400877831
1.4817822908439324 13.070526746875457 386.26438559959917 56.2095058110217
1.5050764194513402 13.064821090426639 350.71402706348584 58.5075733843265
1.5282033957326762 13.058085900738602 318.68722566026634 60.90576665596986
1.5511414080265922 13.050291625554346 289.8148793552177 63.4091269249992
1.5738687288651743 13.041399250733983 263.79415612623654 66.02296925701225
1.5963674378512152 13.031370252282061 240.300142430513 68.75295670124758
1.6186052476030721 13.020172409839217 219.05325364963895 71.60512854681481
1.6405798767440694 13.007799902759157 199.8767831892391 74.58593099688512
1.6622534560808873 12.994188451021152 182.53636704198297 77.70225048744109
1.6836060603202756 12.979320332833927 166.82099216968925 80.96144990276053
1.704617199428692 12.963167387072103 152.5874207517145 84.37140796839614
1.7252644399671397 12.945698685706953 139.69724394871355 87.94012478380071
1.7455242563004454 12.926887743154097 128.0050284356947 91.67652020821335
1.7653744627367982 12.90670408351612 117.39941945108417 95.59032510038973
1.7830000052235306 12.885239511471998 108.45110608706047 99.8322958239415
1.7947844263388368 12.859975048145985 102.02366638802816 104.72747802170886
1.8014196058477858 12.828521830635776 97.2874881881209 110.30490137469323
1.8038471978930997 12.79053298876811 93.69248967726817 116.58503863570591
