M[M_sun], R[km], Lambda[1], P_c[MeV/fm^3]
0.2416277750616976 15.618515526848569 2160338.09801669 3.5677787854173952
0.2522419090431101 15.314061451962932 1768110.6320514432 3.7594372797201356
0.26315280905404703 15.045741647176241 1454246.8294711276 3.9584224473766314
0.2743625308657294 14.808498573769569 1201218.2999898263 4.165071482815583
0.28586787983540707 14.598296303581044 996735.6011994554 4.379675716588361
0.29767075107726443 14.411482747005092 830235.1488854231 4.602391335839003
0.3097740378672002 14.245136764157367 694104.8155586309 4.833628910872085
0.32217447393685994 14.096914105124576 582311.1592603048 5.07368586478153
0.33487392473172034 13.964614017413364 490089.0842108756 5.322872420920282
0.34787232100358917 13.846477036769045 413782.4569908993 5.581434890210187
0.3611728447711795 13.740830275380219 350327.15025680355 5.84978843270293
0.37477401594301196 13.646338412722695 297436.40695886844 6.1282915536988405
0.3886792183421471 13.561894187728628 253181.3137429254 6.417311095479683
0.4028830405205799 13.486499752394483 216025.6036106454 6.717229318855528
0.41739196776472437 13.419183928297041 184753.1197834552 7.0284445120103545
0.4322028130050334 13.359172780291376 158379.80715566792 7.35137162989363
0.4473151849941989 13.305791487736077 136049.07019938927 7.686442965801754
0.46273204571278514 13.258328671552682 117095.75626260252 8.03410885693443
0.4784514359252548 13.216307261412082 99910.52410623833 8.394838425879973
0.494472972567797 13.179185868472201 87264.59775884842 8.769120360182592
0.510795109147567 13.14654724377449 75530.0222556502 9.157463732373882
0.5274164978069815 13.117984791663241 65491.01188698282 9.560398863113145
0.5443410787333767 13.093085639436605 56875.13549885823 9.9784782303755
0.5615608990365699 13.071594596346921 49474.66847258474 10.412277427959472
0.5790798049903727 13.053125071786896 43105.563444150896 10.862396176950101
0.5968902693214555 13.037490140966556 37608.51826576814 11.32945939418052
0.6149954856626336 13.024364623979485 32859.41996571154 11.814118322177512
0.63338970356234 13.013565513396916 28748.432262800197 12.317051725560361
0.652071410620105 13.004868195039181 25187.83980486706 12.838965133038743
0.6710366211680727 12.998093361919295 22096.14989564276 13.38050603554411
0.690283259741682 12.993009346200765 19408.374395458606 13.9425294043735
0.7098053404608593 12.989510214172189 16942.009786811966 14.525838491275765
0.7296012200199726 12.987399010318219 15027.929472749838 15.131271392911753
0.7496635463413255 12.986550896069097 13246.734583121424 15.759702789898869
0.7699898866268577 12.986806190837317 11690.771043225972 16.41204580417049
0.7905735710257745 12.98807701032868 10259.128483003067 17.089253985037033
0.8114078581087829 12.990219867125054 9134.366451863672 17.792323435237336
0.8324880107958161 12.993138074244898 8086.780978214338 18.52229508922592
0.853806759020197 12.99670861815662 7167.196780092209 19.280257156958765
0.8753567510007622 13.00084864710471 6358.206330623109 20.067347747519623
0.8971303717043296 13.005467180980684 5646.561160931353 20.884757688076434
0.9191196027452829 13.010464228170292 5018.96821446431 21.73368522912572
0.9413170199455544 13.01575466616343 4465.570533421519 22.615498410872995
0.9637107353120511 13.02125979137346 3977.2971201932523 23.53156895501803
0.9862952232443678 13.02690356319847 3545.3236907918895 24.483334410082843
1.0090569422232056 13.032634397052927 3163.0604664291095 25.472302918638174
1.0319810577952624 13.038359230858193 2824.5951486287863 26.500057614681698
1.0550721061996426 13.043997190260024 2524.9793439046384 27.568182616880932
1.0783040653712574 13.049521028538049 2258.7713463974956 28.678459300493476
1.1016692898655729 13.054844697761672 2022.4213345017758 29.832730822500356
1.1251539858752346 13.059915168809244 1812.2413952041647 31.03292700721864
1.1487470066054297 13.064672305345185 1625.412882038593 32.281080145707236
1.1724352803698657 13.069065999948199 1459.1283379890647 33.57933191592081
1.1962014041561593 13.073038594773399 1310.890929135165 34.929940852764524
1.220033428896376 13.076545642451437 1178.6626161740799 36.33511074984792
1.2439154559552252 13.079525134778438 1060.6809586383774 37.79724712642645
1.267832316349812 13.081931581562154 955.2392633944795 39.31922431670315
1.2917663781464503 13.083732467197475 860.9895395668295 40.9038490828154
1.3157016694836943 13.084859021929615 776.7122973783006 42.55344444161249
1.3396229735624998 13.085272828167193 701.2427173993248 44.271672696593384
1.363508655324292 13.084939453565235 633.5892483439878 46.06154382989896
1.387345253972845 13.0838059480882 572.9860131971618 47.92633672483556
1.4111124238270307 13.081839301922436 518.5430533962402 49.869914150691535
1.4347895099268249 13.078992893542555 469.6905876342104 51.895819293175876
1.4583596911522676 13.075233778824707 425.74068337943316 54.008181538104786
1.4818029799379027 13.070521644451764 386.2312855867174 56.21152371307825
1.5050972728689112 13.064813135588638 350.67123067025113 58.50971773060172
1.5282245129580554 13.058079167604568 318.6596868545245 60.90803629624149
1.5511625189778393 13.050285254500729 289.7863691995776 63.41152998648585
1.5738904008614552 13.041392256369976 263.7758603213435 66.02551446166063
1.596388643711657 13.03136096204065 240.27655243189977 68.75565341389961
1.6186259344708585 13.020162460499293 219.0432877521297 71.60798682773454
1.6406024096336915 13.007786346734104 199.86050582964825 74.58896165908787
1.662273995062959 12.994173537104471 182.5162920579357 77.70546515930998
1.6836276317584298 12.979305166329063 166.8114049601937 80.96486109649366
1.704639159489919 12.963149321192667 152.5743727665992 84.37502915488497
1.7252854684034722 12.945680394219348 139.68099929257733 87.94395755857508
1.745545388780877 12.926867108078348 127.99206791551215 91.68059260767089
1.7653956835482838 12.906682366241073 117.38795719094522 95.59464019016968
1.7848131663087154 12.885108448265845 107.75248202541084 99.6957826088272
1.8037743619070468 12.862110915891304 98.99576570607216 103.99501002933044
1.8222569574431353 12.837667339578198 91.03336776361915 108.50400828106947
1.8402390028540607 12.811759402359613 83.78465693695307 113.23499194668976
1.8576947549719298 12.784362980917964 77.18522237965782 118.20111758857786
1.874606236580437 12.755459040868558 71.16958016450118 123.41656711601745
1.8909478289307244 12.725023329753354 65.69369228329673 128.89663911442977
1.9066980924964037 12.693041993053845 60.69126587707504 134.65784902168866
1.921834401973887 12.659497779700827 56.12292773120489 140.71801904008956
1.9363373801755586 12.624371281358505 51.95331406572699 147.09526828538355
1.950183190131241 12.587655722154457 48.142973785807705 153.81104303719601
1.9607248327526776 12.551444053015857 45.12861057211427 161.35094805397821
1.9646534310238823 12.513641576096093 43.20877501908409 170.3671611670314
