M[M_sun], R[km], Lambda[1], P_c[MeV/fm^3]
0.2416277750616976 15.618515526848569 2160338.09801669 3.5677787854173952
0.25224094055333435 15.314077704824067 1768038.10354925 3.7594156593849135
0.26315138531083265 15.045765412809446 1454189.7782036432 3.9583777631077757
0.27435872937962225 14.80857575165485 1201328.255611556 4.165001676772879
0.28586289952505745 14.59835379396547 996767.6013667221 4.379579607031951
0.2976642159572194 14.411577357694343 830360.6541515687 4.602266319783221
0.3097647222395018 14.245301578062369 694160.4195183583 4.833472857570299
0.3221638439140164 14.097054669037504 582395.4983448202 5.073496545745646
0.3348622877910304 13.964790365444435 490139.3838524513 5.322647504761692
0.3478594224100017 13.846593852874275 413855.08708246757 5.581173994690822
0.36115753018516716 13.74090818403212 350393.66160373733 5.849487252622962
0.3747575315230594 13.646439398019389 297478.6561560384 6.12794743159819
0.38866023473599415 13.562005123626516 253237.78615514727 6.416921247336081
0.40286270672717917 13.486627701907569 216087.86955253492 6.716790827096456
0.41736858343739097 13.419323974638386 184807.24509770016 7.027954318076635
0.43217714520126094 13.359276186736759 158420.8863346903 7.350826526323128
0.4472893786487388 13.305842123483375 136078.29145859717 7.685839587798286
0.46270368948672647 13.258406445525747 117136.9144926717 8.03344367338478
0.47842037056249453 13.216399766510461 101022.82973587241 8.394107729778504
0.49443877323210883 13.179278686663586 87294.78847191216 8.76832025842016
0.5107587676642695 13.14662177884191 75554.01434278194 9.156590134844201
0.5273794709594233 13.1180252685917 65512.621617799065 9.559447471086276
0.5442989476056042 13.093169211959548 56896.337375929215 9.977444524084468
0.5615190997767604 13.071625019960782 49493.09545461281 10.411156653341893
0.5790325321992301 13.053172958351274 43121.667577654924 10.861183331482334
0.5968416941608322 13.037517921733134 37621.68272651372 11.328149211737419
0.6149431600488533 13.024397858783285 32872.43771812664 11.8127052568457
0.6333348365388083 13.013625808356021 28759.549105498525 12.315529934327413
0.6520127826807507 13.004895680207953 25198.56319410392 12.837317159478237
0.6709756567543457 12.99811211165313 21932.4096575753 13.378735954346885
0.690219258670366 12.993038829804544 19414.724756991993 13.940630334534434
0.7097384513561742 12.989523050878923 17074.26309636496 14.523803171311068
0.7295311304839466 12.987401603924257 15034.297166872959 15.129092156477196
0.7495898623875147 12.986541496264941 13252.881610624156 15.757371539672874
0.7699130557793311 12.986811440123699 11696.02632538491 16.40955398387166
0.7904936348512362 12.98806523197529 10332.758704342674 17.08659254943446
0.8113246691037492 12.990216085908393 9138.921674913705 17.789482818001353
0.832400995587064 12.993128805551065 8090.73292134049 18.51926516845422
0.8537173799262048 12.99670018653256 7171.015327266809 19.277027218199
0.8752653066701019 13.00083259116321 6322.604565850873 20.063906444094492
0.8970318177104762 13.00545518860423 5649.463387585027 20.881070926692495
0.9190196493330817 13.010441315280717 5021.624059759908 21.729760445462514
0.9412138312585119 13.01572590195948 4468.079391756309 22.611322729631052
0.9636063591242915 13.021227622515593 3979.605145145035 23.527127988950323
0.9861840820663885 13.02688084702736 3547.3049003459532 24.478612890194952
1.0089432567143355 13.032600592486519 3164.8115256390192 25.467284633028328
1.0318642433052925 13.038327166529168 2826.123937055655 26.494725342751337
1.0549517370851913 13.043965788315544 2526.1414929162324 27.562550425918875
1.0781801451855746 13.049492555732922 2260.0745806439845 28.672476988556348
1.1015418546548141 13.054816385316826 2023.571215341794 29.826377768402256
1.1250242094434808 13.05988329673265 1813.299598099828 31.02618126755422
1.1486138004565134 13.064643236302494 1626.3665217717917 32.27391835976087
1.1722983967379397 13.069042902479149 1459.9494431193827 33.57172920308962
1.1960619976335416 13.073020054136236 1311.7083506265603 34.92187070184564
1.2198910620011343 13.076528116552323 1179.3783528348984 36.32658948160476
1.2437703401449764 13.079514373230264 1061.3842706261948 37.788202207343005
1.2676841914294439 13.08191929154408 955.8630566878753 39.30962369398843
1.2916157608677155 13.083718616440985 861.5849897135944 40.893658540356306
1.3155483704636928 13.084851136382543 777.2628742195973 42.542680497257535
1.3394671426499731 13.085270833439349 701.717274788633 44.260245861621165
1.3633518266130749 13.084940785680443 634.036135218894 46.04946991350738
1.3871858899605483 13.083819033967966 573.3668470852127 47.91351666746691
1.410949790781612 13.081855618766589 518.8848857559631 49.8563626676067
1.434626251552352 13.07901495535659 470.01877956085383 51.881426510256134
1.4581932420373502 13.075264245462824 426.0308095754242 53.992960610189066
1.4816354016933226 13.070558319540966 386.4976212001033 56.19540940326654
1.5049278510999369 13.06486053954464 350.9176736274423 58.49260726357441
1.5280545724554473 13.058134230170898 318.88813105732305 60.88992612435587
1.5509920652714149 13.050344173130952 290.0017669680668 63.39235526804741
1.5737189365225337 13.041460644445031 263.9625472227475 66.00520561038294
1.5962168585085066 13.031441139526217 240.44614543720604 68.73413571467981
1.6184533183931304 13.020253247225394 219.20159836434044 71.58518001763831
1.6404295315470439 13.007889826833837 200.0044175203226 74.56477947004073
1.6621007489607387 12.994288843153226 182.63658441068992 77.67981481860598
1.6834538839564672 12.979433554494928 166.93038725653224 80.93764278080354
1.704466632843999 12.96328688258055 152.68711272845707 84.34613539296497
1.7251149078411165 12.945832058126706 139.78882873922663 87.91337561944464
1.7453751275193448 12.92703052140504 128.0956505461091 91.64809881912997
1.7652280351764387 12.906864666695354 117.47546966192806 95.56021009271764
1.7846458500218612 12.885302433186913 107.82790978038612 99.65916595678812
1.8036076377947479 12.862320958253186 99.0650516290057 103.95616813184068
1.8220938042980057 12.83788987423234 91.10045635127395 108.46278070521255
1.8400772927556155 12.812001593245231 83.84535042299157 113.19120533659944
1.8575376785548814 12.784618970303796 77.24684651298513 118.1545844939924
1.8744523867414538 12.75573448197655 71.22353699574761 123.36708470155256
1.8907970363909223 12.725315882374261 65.7427417182693 128.84398773615902
1.9065510277184146 12.69335261856158 60.73661683441156 134.60179065596625
1.9216921905097146 12.659826429623472 56.16486343728862 140.65831565204945
1.9361704759483107 12.624712752616778 51.99570518400775 147.0352135291968
1.947575089812221 12.589498153484266 48.642014593626506 154.1288984508038
1.9540938232009275 12.551667118999303 46.16583480518827 162.2467584151309
1.956255386936235 12.509450813350409 44.31066390351579 171.44274518256773
