M[M_sun], R[km], Lambda[1], P_c[MeV/fm^3]
0.2416277750616976 15.618515526848569 2160338.09801669 3.5677787854173952
0.2522382318325413 15.314130160394761 1768165.289615054 3.759367658912513
0.26314490613594854 15.04591971895647 1454312.6014064914 3.9582785584335745
0.27434995512861265 14.808764343091553 1201506.7006134533 4.164846700599059
0.28585072612873574 14.598579860572704 996915.1663795069 4.379366237145501
0.29765021895223037 14.41179302844126 830549.195085034 4.601988778903989
0.30974820965333877 14.245491192342747 694340.0438348245 4.833126416947847
0.3221422768754883 14.097300474421841 582555.78435994 5.073076259789057
0.3348365892830423 13.965058686718313 490369.1521714607 5.3221481995950235
0.34783081028832263 13.846832519294964 414010.6514608483 5.58059482323837
0.361125018430297 13.741143604565014 350526.8865091166 5.848818659788602
0.374720951053877 13.646675261247362 297633.8819031739 6.127183520115825
0.3886170870171172 13.562280804124645 253351.97253593217 6.416055839164052
0.4028173732977846 13.486852912062346 216192.3790301115 6.7158174479159225
0.4173188167958569 13.419528309535822 184901.4898473183 7.026866180795998
0.4321229576575983 13.359471700029454 158516.0609760869 7.349616513517666
0.4472293886424721 13.306050969387355 134590.13301808474 7.684500233008502
0.4626369815835023 13.25861205266181 117209.17158576865 8.031967141190401
0.478349604445136 13.21655151036897 101093.49989585941 8.392485794558935
0.49436349080886227 13.179439176558933 87353.3984140727 8.766544281704887
0.5106781109719695 13.14676399238346 75609.0041518659 9.154651041149556
0.5272930551725563 13.118165918142882 65563.21125105774 9.557335722127048
0.5442088063618226 13.093275085117266 56938.44225259359 9.975150091240309
0.5614196764960425 13.071741929100433 49529.81508184795 10.40866898824994
0.5789296668043309 13.05326772220564 43154.990897383446 10.858491334617549
0.5967301129662704 13.037617107942676 37653.56485460061 11.325241198831803
0.6148256334793412 13.024484420034584 32899.99050284662 11.80956892298706
0.6332120060813722 13.01365873695096 28784.918900428773 12.312152315565585
0.6518836778722847 13.0049670361996 25221.245563073153 12.833659521712185
0.67084114211236 12.998136858390366 22125.706319611203 13.374807342189285
0.6900769719007026 12.993066084206145 19435.16769159485 13.936415481591897
0.7095893608109506 12.989539997457767 17091.22093043239 14.519285967232339
0.7293745854370394 12.987412177083831 15049.551537007033 15.124255592880647
0.7494277079626047 12.98653427887323 13266.23723729788 15.752197652226604
0.7697429494721588 12.986795522244103 11708.278869622034 16.40402379023685
0.7903152927863778 12.988054318353058 10343.9174933468 17.0806859827591
0.8111399087675556 12.99019375064849 9148.927617660658 17.783178655625612
0.8322106810275629 12.993084510961118 8100.5409200891 18.51254095546179
0.8535170718665385 12.996654914961129 7179.119901113215 19.269859185418106
0.8750568764992684 13.000795928981931 6368.655900002091 20.056261690816843
0.8968191130792431 13.005388864406306 5656.019363043477 20.872887751262333
0.918798448097985 13.010385054902137 5027.64159717466 21.72105066767436
0.9409845664694952 13.015672555204633 4473.381863928121 22.60205626399156
0.963367452483833 13.021173756102625 3984.409713616437 23.51727292056893
0.9859408561219729 13.026814511441177 3551.676790897615 24.468135348663964
1.0086916833036266 13.032534113034819 3168.9541115944694 25.456148656814737
1.031610292842988 13.038248806812845 2830.002715109472 26.482892733327283
1.0546858663183747 13.043905569492651 2529.4912964146824 27.550026970965494
1.07790734596571 13.049428460316745 2263.0720420971625 28.659202167993094
1.101261336300929 13.054750326531343 2026.2631233723628 29.812280421883365
1.124735767775447 13.059825772321362 1815.7025863125732 31.01121272307712
1.1483189568861087 13.064594275299303 1628.6110472118155 32.25802680238974
1.1719957512699706 13.068991186998034 1461.9142638598323 33.55485944754438
1.1957526190754422 13.072968657545504 1313.5273277987028 34.90396394706165
1.2195750301078045 13.076485853278859 1181.0494454519087 36.30768192992859
1.2434484916395165 13.079480009019097 1062.8816848648244 37.768132979454826
1.2673560464778686 13.081889961277094 957.22219845386 39.28832170091006
1.2912818927424068 13.083702271300258 862.7985641480376 40.87104789637506
1.3152081786986354 13.084838833036809 778.3650577658154 42.518797838847945
1.3391220385933549 13.085270637840313 702.732648983082 44.23489271685831
1.363001325487208 13.084956037340095 634.9578048313031 46.02268134553722
1.3868297403662924 13.083836629402278 574.231229220331 47.88507298567655
1.4105900479302107 13.081890647059119 519.6834081457023 49.82629650739179
1.4342603779759941 13.079067460739486 470.71200774879014 51.849494205881314
1.457824582314358 13.075332036915103 426.68087304499414 53.95919133490765
1.4812625350973299 13.070642038050172 387.0871804577793 56.159532302137045
1.5045536252807854 13.064960148323253 351.4763632979758 58.45464679356467
1.5276756846998267 13.058250603443446 319.38006024005176 60.84974823414481
1.5506112681052568 13.050483403913722 290.47318795662943 63.34981616939094
1.573336626769578 13.041620063853204 264.38801318279826 65.96015099666612
1.5958303446150566 13.03162540308538 240.82875962851136 68.68639990938341
1.6180691921240244 13.020456364074093 219.55310047707525 71.53458504572072
1.6400432155582767 13.00811874869873 200.3186087863073 74.5111340444785
1.661716340021982 12.994542986434483 182.93252010719544 77.62291323348188
1.68307011564017 12.979713366082715 167.2021991807782 80.87726370137791
1.7040836132428432 12.96359776755861 152.94832067060892 84.28204053209708
1.7247335117462472 12.946167970708519 140.01615109997877 87.84553673516125
1.744995625676914 12.92740104019004 128.29308717470553 91.57602000730904
1.7648523164953442 12.907262242551054 117.67236125982558 95.48382065454824
1.7842735677935515 12.885731410458591 108.0027189677676 99.57794400227051
1.8032419939859505 12.862784016369375 99.2329371865971 103.87001141143676
1.8217316062646725 12.838391031924921 91.24412896893244 108.3713335367696
1.8397216684197404 12.812534869147138 83.98471728917568 113.09389063867918
1.8571876144979205 12.785191509334984 77.3711316763601 118.05110398177683
1.8731683834416084 12.756639105072193 71.59559362933031 123.35746505559817
1.8860393854574617 12.725695922238428 66.8444274567916 129.19183797964357
1.8959387900719196 12.691140643900786 62.88226593042222 135.58614376376198
1.9030871910540814 12.652415906324949 59.52256690238455 142.57187318766833
1.90773513220187 12.60929953880383 56.632043769110375 150.18315267167299
1.9101044094845152 12.561720152146036 54.114671513261534 158.45671734890774
1.9104301216296924 12.509819932935832 51.88441275343884 167.43251308382818
