M[M_sun], R[km], Lambda[1], P_c[MeV/fm^3]
0.2416277750616976 15.618515526848569 2160338.09801669 3.5677787854173952
0.2522392546997166 15.314132499611945 1768287.7005955332 3.7593864828135497
0.26314703685387114 15.045868538317274 1454217.4998478426 3.958317462401984
0.27435362442124933 14.80866988706318 1201431.5723038092 4.164907475515694
0.2858561477620592 14.598469975503763 996895.318377493 4.379449911104144
0.2976558362070729 14.41170474374591 830421.1254001446 4.602097617239733
0.3097546181717027 14.245415715512674 694280.3761599002 4.833262273789446
0.32215034465582426 14.097201464797266 582486.1194341613 5.0732410742751695
0.3348466211897307 13.964937896649424 490275.8586386586 5.32234400036082
0.34784265403981623 13.846718931133898 413950.8534420658 5.5808219422186935
0.36113826282047107 13.741095126751018 350479.73070547084 5.8490808436060195
0.3747346828723476 13.646590939823398 297563.6251407769 6.127483081002201
0.3886348865408299 13.56214817221469 253303.81097277298 6.41639519942561
0.4028350641767607 13.486741871581811 216144.7402117796 6.716199146010185
0.41733821426967277 13.41944734184315 184859.30205619684 7.02729287779839
0.4321443513525661 13.359413087585525 158481.1946127974 7.350091000005499
0.44725268190125256 13.305970197822026 134561.25114254482 7.685025436392278
0.46266338534298257 13.258557464282518 117179.96733991572 8.032546133525166
0.4783776125277054 13.216485733793386 101064.05396975303 8.393121800870373
0.4943928511126171 13.179361710302054 87328.89555678121 8.767240688868274
0.5107097261286572 13.146703818585424 75585.37796022826 9.15541140736191
0.5273266644859551 13.11811907444171 65542.17667370113 9.558163787016364
0.544244069217716 13.09321369446996 56921.2756987593 9.976049786658896
0.5614580306310668 13.071693194960172 49514.694413584664 10.409644449802165
0.5789694174822653 13.053232460070719 43141.08922815335 10.859546913976397
0.5967747851057762 13.037574043273287 37641.76365414028 11.326381476902487
0.614872872370203 13.024444595193659 32890.43185366778 11.81079872398023
0.6332599084560259 13.01364540570534 28775.182217370922 12.313476722047465
0.6519340919766763 13.00494051172648 25212.817452888154 12.835093720086276
0.6708934299280213 12.998130246087428 22115.86880590234 13.376347785814051
0.6901323052980335 12.993043989322711 19427.40197098805 13.93806815562302
0.7096464132004295 12.98954755786665 17083.608606970385 14.521057187667122
0.7294354345150033 12.98740503780396 15043.519164196743 15.126152027753626
0.7494907185453886 12.98655335328924 13260.907743044127 15.75422634431313
0.7698096282529491 12.986806180842333 11703.675065809739 16.40619218137764
0.790385596160683 12.988057467434842 10339.76901678482 17.083001939929222
0.8112123786301759 12.990202856503396 9145.05977405881 17.785650498880077
0.8322844106996119 12.99309712529674 8096.095362258966 18.51517748790096
0.8535957401611731 12.996666286959167 7175.661441075535 19.27266972532875
0.8751368085374521 13.000806531622946 6365.636396206355 20.059263835458694
0.8969032978648439 13.005408424611186 5653.373524982351 20.876096291806224
0.9188851585293251 13.010410518080036 5025.317388807693 21.724465668694304
0.9410745585218872 13.015687495495444 4471.401943095704 22.605689519717476
0.963460496331342 13.021193525606865 3982.3897437119267 23.521136942330635
0.9860371057268703 13.026842443689125 3550.0151732332406 24.472243414323756
1.0087911701086905 13.03255601601311 3167.4993340914807 25.460514863918608
1.0317120247075582 13.038276604004983 2828.637401907011 26.48753205627759
1.0547894172089225 13.043929540798379 2528.1486470236537 27.554952595459536
1.0780138897838203 13.049451265214133 2261.9044851251806 28.664406908911214
1.1013712616607987 13.054769994990748 2025.252629221199 29.817807630121163
1.12484948115985 13.05985081105647 1814.9803599656698 31.017081478370688
1.1484341563881892 13.064608301846453 1627.7359370893455 32.26425741640034
1.1721142367582384 13.069011411158977 1461.154791310731 33.56147355298635
1.1958745665131942 13.072994725099289 1312.7870764667568 34.91098459389589
1.2197004371153763 13.076499765820081 1180.387380599148 36.31509492631588
1.2435739896069844 13.079495214972113 1062.285545615304 37.776001390282474
1.2674841265019692 13.081908691019182 956.6682575039936 39.296673392469124
1.2914120291906446 13.08371018532119 862.3231408610357 40.879912615033504
1.3153416557054205 13.084846178119172 777.9401725171942 42.52816122308229
1.339256991140374 13.085271461663222 702.33519195789 44.24483256559576
1.363138294555816 13.084946983874127 634.5901922504339 46.03318391425453
1.3869689445897488 13.083830992339744 573.890935593599 47.896224389503594
1.4107300324000367 13.081879662090767 517.3506048297428 49.838083953716016
1.4344041110895607 13.079047078064113 470.45203108452193 51.86201320620835
1.4579695527056387 13.075305565953348 426.4288989413337 53.97243045397444
1.4814089018339462 13.070607952575752 386.8499597175021 56.173597707319665
1.5047007614007402 13.064920018953508 351.25245473870024 58.46952889850245
1.5278237226738505 13.058206538219167 319.1758720049781 60.865499582832534
1.5507600660632466 13.050429836563735 290.2810355507808 63.36649312196373
1.573486611787981 13.041559523316295 264.215164934506 65.97781403562941
1.5959815045003396 13.031552735314296 240.68011992990773 68.70511397330446
1.6182193729844399 13.020378369757253 219.39784240944437 71.554419893124
1.6401942947078623 13.008028898560063 200.19742845613627 74.53216465098237
1.6618669168102955 12.99444504268803 182.81670475606316 77.64522022555249
1.6832204669399922 12.97960410584202 167.0970280846992 80.90093383044494
1.7042340880362001 12.963476848369794 152.84918000936156 84.30716719319794
1.7248824825502589 12.946036353715298 139.92546433368517 87.87213099995296
1.7451449966532933 12.927255088206586 128.2135183919072 91.60427623781972
1.764998921644526 12.90710525408659 117.59003404061589 95.5137765671865
1.7844197464134244 12.885560657750183 107.93546731428917 99.6097841311294
1.8033858566670005 12.862600836405154 99.16858163725138 103.90378583847749
1.8218730297552979 12.838195669275711 91.18431119513666 108.40718166386556
1.83986091896379 12.812324639682542 83.92889689892655 113.13207118957374
1.8573249283994784 12.784966087118349 77.32247926067775 118.09167499910161
1.8742435313257577 12.75610562385935 71.29399917852783 123.3003555071718
1.890592511665122 12.725711971706577 65.8030507696922 128.77298589202445
1.9063536060698862 12.693771758375746 60.796825592635194 134.52619531036876
1.9214998256651044 12.660268965367898 56.22104320132748 140.5777788444757
1.9360143149081381 12.625191841449121 52.043779423136414 146.94609401940406
1.9498708249374026 12.588522047348985 48.22490665217997 153.65219200540253
1.96305381798591 12.5502425831537 44.731166879453525 160.71721559576653
1.9755387381380354 12.510349630448587 41.53441447933471 168.16543631435204
1.98730768030629 12.46882693808872 38.60751978503725 176.02240789083413
1.9983408508889104 12.425667534063226 35.92631465598219 184.31585516785265
2.0083883422801483 12.381307509716658 33.504543278186986 193.13751531312766
2.0153464156604564 12.337081339905346 31.57323431363279 203.00535235634675
2.01867836877507 12.290870718759944 30.064231769737745 214.0926448317627
