M[M_sun], R[km], Lambda[1], P_c[MeV/fm^3]
0.2416277750616976 15.618515526848569 2160338.09801669 3.5677787854173952
0.2522420786738572 15.314040518266502 1767980.1721008457 3.7594390560049784
0.26315428764642157 15.045702509274657 1454120.3476270037 3.9584261185655065
0.2743627114662871 14.808484510408569 1201223.9701205066 4.165077217994354
0.2858700449320274 14.598181675614441 996714.2028540638 4.379683612864286
0.29767128055628456 14.41146725063105 830252.1087277556 4.602401607090099
0.3097739992771667 14.245187634626129 694111.935422662 4.833641732179172
0.3221734859742308 14.096956708619619 582303.2966076155 5.073701419257724
0.33487393942398785 13.964694696724488 490091.1559762386 5.32289090013487
0.3478733553594769 13.846422442010054 413775.16872017103 5.5814563255864
0.3611743961770514 13.740779098521667 350321.48188021267 5.849813177986342
0.3747763775795977 13.646318980648147 297431.15337333106 6.12831982725485
0.3886807469136934 13.561885518016148 253176.95517739753 6.417343126074438
0.4028848048198084 13.486522688755192 216027.1128033632 6.717265346230243
0.41739360482738364 13.4191752268631 182455.5318128459 7.028484787492336
0.4322047137817189 13.359162036541475 158379.18465685297 7.351416417046982
0.4473180201162624 13.305776334151254 136041.38024801377 7.686492541120215
0.4627347857563121 13.258336261707932 117100.18872390935 8.03416351057959
0.4784543336994121 13.216284238340736 100991.67067474364 8.39489846246823
0.4944756591852371 13.17919240642411 87259.47333671576 8.769186099624347
0.5107980586170793 13.146540645213763 75527.52584076748 9.157535510768817
0.5274199502694017 13.117975755345697 65488.93640454118 9.5604770337057
0.5443447036398451 13.093102251601412 56873.388557668 9.978563164575103
0.5615646094382135 13.07159076280146 49473.998211307815 10.41236951643015
0.5790835829396416 13.053122964965228 43102.82186113789 10.862495830774684
0.5968946084342983 13.037480709351321 37607.031451962626 11.329567046104959
0.6149995744513489 13.024362682487233 32858.65198889227 11.814234427941232
0.6333936356657156 13.013566674844945 28747.210134135836 12.317176765318878
0.6520753210943475 13.004871682009728 25187.009892901693 12.839100541250113
0.6710414212250662 12.998091861132657 22095.287078011603 13.380651477416869
0.6902886517670508 12.993019668327138 19408.224445428525 13.942685445368333
0.7098108344133068 12.989512461780755 17067.636832680666 14.526005728122167
0.7296065618585419 12.987401914481936 15026.990595776031 15.131450455612086
0.74966950063598 12.986539945553893 13246.346153958419 15.759894343874752
0.7699962458954301 12.986817348226179 11690.386828863162 16.41225055256261
0.7905789282594511 12.988082881485186 10327.406422148491 17.089472671170114
0.8114146767034291 12.990217333583889 9133.95829745648 17.792556845262364
0.8324938795617194 12.99313371113366 8086.315605286063 18.522544054953595
0.8538121801517304 12.99671378227205 7166.575843246603 19.2805225588987
0.8753645231200756 13.000858276729502 6357.981495084967 20.0676305181413
0.8971384920765331 13.005459436930245 5646.276041551708 20.885058815308966
0.9191277917823863 13.010466205267539 5018.749442282697 21.734007729593397
0.9413253325695452 13.015753010249025 4465.4563906091835 22.615841528871965
0.9637201146425576 13.021258302141755 3977.193735636542 23.531933872912838
0.9863036325776792 13.026912320162102 3545.0896404809437 24.483722382706738
1.009066201429227 13.032627765792805 3162.7802505450354 25.472715278320106
1.0319903876542855 13.038361470714541 2824.496339808734 26.50049577665393
1.0550824087872461 13.043999788999155 2524.7410767880165 27.56864542511105
1.0783141167547043 13.049522269759349 2258.6839537400106 28.678950880658554
1.1016796766461077 13.054840792926875 2012.3326564670333 29.833252869323708
1.1251647149221138 13.059912237661216 1812.1477436637815 31.03348132409713
1.1487581876148094 13.064670507229579 1625.3279787977112 32.281668652527266
1.172445286981213 13.069067690234897 1459.0365530427061 33.579956657490236
1.196212758194665 13.073040139688688 1310.8207785939778 34.930604007912805
1.2200443768849996 13.076551195354991 1178.6087626427418 36.33581097729144
1.2439270415681014 13.079526292218334 1060.6304961447604 37.79799038732265
1.2678437531629954 13.081934004520074 955.1797457430878 39.3200132453577
1.2917784910976107 13.083727026851388 860.9366871952757 40.904686491345224
1.315714811187947 13.084853123348475 776.6669898835058 42.554328972498865
1.3396357878753002 13.085271329877214 701.2011394335336 44.27261170463022
1.3635214052020026 13.084937226949153 633.5250136392131 46.062536015788815
1.3873585695131823 13.083808549489776 572.9421777840599 47.92739023006764
1.4111255955708195 13.081835367434019 518.5005405758252 49.87102776585612
1.4348030160535925 13.07899272990297 469.6655278598868 51.89700204869933
1.458373858959367 13.075232570521555 425.723950497177 54.009432352806726
1.4818167967623743 13.070520555353108 386.20807932374527 56.212846902915985
1.505111264162196 13.064809403532065 350.6465329575343 58.51112383437462
1.528238721454619 13.05807317889381 318.641208193686 60.9095245596955
1.5511769178578043 13.050279596936404 289.77388602889056 63.41310573900835
1.5739044894566332 13.04138512435108 263.75883520523286 66.0271834226372
1.5964029194947982 13.031353738977666 240.2657273507644 68.75742172429912
1.618641956942918 13.020152964567906 219.0391108993277 71.60986108455523
1.6406155771821445 13.00777789920023 199.8440344782842 74.59094895295236
1.6622892420195103 12.994164032079386 182.50998153551916 77.70757311552744
1.6836407919974357 12.979295421680062 166.7952117204613 80.96709791994549
1.7046532593411272 12.963138102001066 152.56969636965562 84.37740367912886
1.7253002015037466 12.945667303557524 139.67387683720432 87.94647082984724
1.7455597992398377 12.926851928824302 127.98324990142949 91.68326301094288
1.765408843042524 12.906668795303238 117.38253983207967 95.59746973570563
1.7848268457844811 12.885091268950939 107.74534785454104 99.69879186614368
1.803787740802839 12.862093805473355 98.98966976310491 103.99820217847378
1.822270541258524 12.837648691978432 91.02007923312958 108.50739650916717
1.8402516408331435 12.811739807195028 83.7768205311413 113.23859050321234
1.8571825326346472 12.784612189291755 77.33282149080992 118.26137695042361
1.8681414919756756 12.756098868809909 72.82205653455857 124.13034842004264
1.872774194661858 12.72227263552421 69.79962065945183 131.00664727959168
