M[M_sun], R[km], Lambda[1], P_c[MeV/fm^3]
0.2416277750616976 15.618515526848569 2160338.09801669 3.5677787854173952
0.25224168061368846 15.314073486863935 1768109.8535488988 3.7594293560966
0.263151652724145 15.045783555460714 1454182.944457047 3.9584060710244335
0.2743604985180719 14.808583769312737 1201232.239319428 4.165045899511867
0.2858657058324905 14.598295542817338 996768.2172037318 4.37964049319151
0.2976683972859152 14.411527940407565 830323.6783343927 4.602345518325585
0.3097695730062855 14.2452565778374 694154.7860831092 4.833571718286454
0.322169300949802 14.097028909785822 582334.7278626853 5.073616480341626
0.3348684959578686 13.964750902351447 490129.0772376872 5.32278999012657
0.34786747425942677 13.846530326476081 413812.2428269954 5.581339272926049
0.3611676667106034 13.740813197507013 350346.2015394869 5.849678051017296
0.37476859188590633 13.646371232741691 297453.9263421588 6.128165433592931
0.3886722210356968 13.561933793105524 253201.23027716458 6.417168216544125
0.40287574159035394 13.486568625332568 216050.74154091853 6.717068611728908
0.4173827879767964 13.419231272432684 182482.67337994714 7.028264855653376
0.4321931423206404 13.359232458672627 158400.4669378262 7.3511718486873585
0.44730603269024677 13.305796150071604 136060.4379366803 7.686221826457185
0.4627212381099135 13.258394747630808 117115.56196238536 8.033865065199773
0.47844046215434455 13.2163151427928 101009.25411507688 8.394570623030713
0.4944603353480603 13.179213698011377 87275.74182176795 8.7688271192786
0.5107817656104175 13.146570380656863 75538.47393559307 9.15714355426624
0.5274039276195625 13.11798760386175 65499.23608415828 9.56005017218238
0.5443256678447084 13.09312748216163 56883.2985123655 9.978099369981418
0.5615453186623511 13.071623237293366 49480.43112805025 10.411866655581148
0.579062493096192 13.053142467248563 43110.08580359596 10.861951658993208
0.596871896360315 13.037500613290051 37286.96507222233 11.328979200427563
0.6149760797538103 13.024379363656443 32864.5635493439 11.813600419854426
0.6333697410990626 13.013576789129724 28752.561675926478 12.316493972990974
0.6520497318621744 13.004892355207707 25191.952316381914 12.838361131918
0.6710143861664816 12.998091566110993 22099.35838767059 13.379857279262362
0.6902598182757168 12.9930221442194 19410.09985031432 13.941833370774289
0.7097804468259564 12.989503389295486 17070.530743765747 14.525092518736436
0.7295735997631915 12.98740885607419 15029.861278660643 15.13047267140595
0.7496369296984269 12.986533456355241 13248.97877897868 15.758848351422765
0.7699617483204833 12.986803249460817 11692.809910892778 16.411132512485338
0.7905440141685369 12.988075615871487 10260.922888798159 17.08827852467582
0.8113774253169788 12.990224885146961 9136.102686830827 17.791282299719718
0.8324562633830269 12.993137652487833 8088.102349943729 18.521184568421116
0.853774478073146 12.996697096802885 7168.644450614674 19.279073323530604
0.8753221415050074 13.000842144909411 6359.220862467042 20.066086442382517
0.8970946962719526 13.00546252448768 5647.5781965546 20.883406849803603
0.9190832878167025 13.01044466999172 5019.951447863405 21.73224671259786
0.9412793435658472 13.0157548480692 4466.508683909011 22.61396793188713
0.9636721082105848 13.021242860864074 3978.2070461056005 23.52994123992307
0.9862548932695036 13.026892918880291 3546.109624847409 24.48160386200838
1.0090148716653429 13.032615172178364 3163.644137233103 25.470463595074314
1.0319384854991378 13.038352275814441 2825.2422831257654 26.49810320336189
1.055027607632724 13.043987196209157 2525.4294962159765 27.566118274077578
1.078258079463962 13.049512197893508 2259.2282588347725 28.676266624638764
1.1016229104047792 13.054830474266994 2022.854572736902 29.830402254773073
1.1251068669135436 13.059901437789554 1812.6410624076238 31.03045450410739
1.1486979307882759 13.064659545387569 1625.784471549946 32.278455144150534
1.1723848798027103 13.069059202504006 1459.422977114742 33.57654529570353
1.1961498937491981 13.073030780627047 1305.1604078533398 34.926982895931
1.2199813298287758 13.076538728785879 1178.9221750447664 36.33198743883291
1.243861796172305 13.079526636753798 1060.9325390174617 37.79393187338818
1.26777804342422 13.081927041987162 955.4411158810054 39.31570537225663
1.2917114038145423 13.083723496628009 861.2170256978028 40.90011390454016
1.315645535217543 13.084858686495112 776.9213951673017 42.54949908428455
1.3395658875340912 13.085276118376957 701.3939732463648 44.26748435682472
1.363450997776967 13.08494196847897 633.7702643205641 46.05711830275303
1.3872870558230406 13.08381114242364 573.1235397860933 47.921637698338124
1.4110521106703657 13.081845654739942 518.6545539125103 49.86494701895871
1.4347293250034812 13.079000892892802 469.7999937036803 51.890543779677905
1.4582989715253647 13.075244949528543 425.8482189831131 54.00260246500712
1.4817414189486264 13.070535165774476 386.3249203315957 56.20562183085081
1.505036036282192 13.06483144420551 350.77727928330194 58.50344603560542
1.5281625129137923 13.05809821716555 318.74580213563064 60.90139815247543
1.5510991577587796 13.050306892132308 289.86230795971403 63.404501624621616
1.5738272071304862 13.041417210147078 263.8430571813791 66.01807037302844
1.5963262536005334 13.031391141519444 240.34196560425264 68.7477662096249
1.6185633226608247 13.020193719960817 219.09200393025617 71.59962708511942
1.6405378368273504 13.00782533583495 199.91341955107924 74.58009775395256
1.6622100168894138 12.994215753993801 182.56585999307578 77.6960630828683
1.6835657682264997 12.97934909993391 166.85528761191037 80.95488425517992
1.7045755207808488 12.963198485935838 152.61346797133803 84.3644381513712
1.7252240095273161 12.945735017807415 139.72318503897387 87.9327477263515
1.745483156836674 12.926927176222419 128.02845795581538 91.66868195106196
1.7653335652297157 12.906747787733357 117.41413685817395 95.58201974315077
1.7847508992752412 12.885179749562377 107.78128063503976 99.6823606333812
1.8037136909261233 12.86218756880485 99.02078359963785 103.9807723423231
1.8221971706642524 12.83775221337196 91.05668665123753 108.4888960691681
1.840179725717725 12.811848273295183 83.80630665928945 113.2189416588219
1.857637989452761 12.784456615681673 77.20671849401204 118.18406050643445
1.8745498540673173 12.755560654583167 71.18777504214216 123.39842888082043
1.8908926532874029 12.725130383923895 65.71137364703215 128.87733920504604
1.9066446021979828 12.693154915071743 60.70685856438365 134.63730017856588
1.9217823133134464 12.659617190503367 56.13990457141109 140.69614673317545
1.935939553103962 12.624869094825423 52.040106318464034 147.12754053778156
1.9450878168708932 12.59010290072654 49.07754605970952 154.5723737702851
1.9485290941227915 12.551624438232414 47.047811804533616 163.24327759668944
