M[M_sun], R[km], Lambda[1], P_c[MeV/fm^3]
0.2416277750616976 15.618515526848569 2160338.09801669 3.5677787854173952
0.2522400790028071 15.314111353292013 1768129.2709780028 3.759400868522132
0.26314906802011734 15.045818231410932 1454152.4502019668 3.958347193996904
0.2743557956089523 14.808628777108625 1201386.4411951872 4.164953921837677
0.28585970750135803 14.598383223435436 996859.6560199797 4.379513858053484
0.2976602467792973 14.411634644780081 830398.2965503474 4.6021807962936725
0.30975908093552296 14.245383780981452 694262.3176205838 4.8333661021830885
0.3221570758242918 14.097147306452658 582444.6912737567 5.07336703423335
0.33485438738196327 13.964818663935622 490207.2950700769 5.322493642528191
0.3478499073230359 13.846642564978008 413889.8760687053 5.5809955204901955
0.3611480106778141 13.74096963884669 350417.9515597736 5.849281221691348
0.3747461508552404 13.646516034940376 297526.21009778365 6.127712026354885
0.38864654892431294 13.562085283377217 253266.3933789049 6.416654563651099
0.40284865186542157 13.486672222025696 213333.43362241695 6.716490869511875
0.41735316991761967 13.419358710690336 184829.80042832473 7.027618994721639
0.4321607834853735 13.359329609187709 158448.2957738469 7.350453643500641
0.4472706374858935 13.305918380507414 136105.0259952949 7.685426844219883
0.4626827061513116 13.25847151897456 117164.20766308258 8.032988654028049
0.4783984846555325 13.216444272172724 101044.222884343 8.393607899339536
0.4944151792131391 13.179314086861087 87307.72573196638 8.76777295433115
0.510734183150863 13.146654110827694 75570.05126851427 9.15599255982462
0.5273529218604879 13.118067390391404 65528.2857838203 9.558796685192808
0.5442716109652576 13.093191296792781 56908.49702601424 9.976737436223068
0.5614880454619355 13.071666687486596 49505.01289352612 10.410390012201908
0.5790004496096702 13.053219193638 43131.821563470185 10.86035371585052
0.5968076568835816 13.037553362249225 37632.09806485955 11.327253020145431
0.6149074167186019 13.024422695745809 32880.53454168312 11.81173869650219
0.633296800842997 13.013627449341476 28767.94245021426 12.314489009281658
0.6519729831720062 13.004924269855465 25205.887457022156 12.836189930995253
0.6709352023220545 12.99810110170015 22112.38620505901 13.377525209701842
0.6901753894490399 12.993033210117993 19421.87947458877 13.939331367999198
0.7096932989582853 12.989509067241963 17079.4883377082 14.522411016988208
0.729482126701064 12.987396196857974 15039.272938991146 15.12760157162947
0.7495400139060815 12.986539091399218 13256.907944690753 15.75577698686646
0.7698607146765132 12.986807870402679 11700.079757363803 16.407849611843783
0.7904388804625309 12.988067731479696 10336.412303214594 17.0847721725892
0.8112677626433202 12.990209836727683 9142.105828491794 17.78753989442897
0.832341745679966 12.993120395905827 8093.417713552439 18.51719277636111
0.8536553160902522 12.996678659512124 7173.221138247759 19.274818030626438
0.8751999241153351 13.000814220056787 6363.582158434564 20.061552701793243
0.8969672968378418 13.00542424678846 5651.283542111201 20.87854884505182
0.9189512389006002 13.010425690104357 5023.4628921089725 21.727076049824788
0.9411432886057962 13.015711463602683 4469.6432267550745 22.608466745769256
0.9635317987910378 13.0212096505806 3980.9206720882235 23.524090578642788
0.9861096574894808 13.026864170009597 3548.560462961713 24.475383612338796
1.0088658504600108 13.032578147992858 3166.2011893251465 25.463852401827324
1.0317893944383354 13.038296978747208 2827.398270297904 26.49107838273925
1.0548698069637195 13.043945229740586 2527.1799027242755 27.558698357009973
1.0780963054255317 13.049468576834757 2261.022378104743 28.66838548201308
1.1014551235694579 13.05479585493156 2024.3986272215368 29.82203272372038
1.1249356420844079 13.059864290851099 1814.2988364259838 31.02156768022576
1.1485230865228782 13.064633437365238 1627.0781986858096 32.269020256268846
1.1722046791085643 13.069025341444307 1460.6275013945876 33.566529570785896
1.1959678092943227 13.073008345552314 1312.2720223327237 34.91635141326824
1.2197946753109188 13.076516064774928 1179.8903129550047 36.320761696883324
1.2436705034169309 13.079505357404036 1061.8140369438943 37.78201633017477
1.2675827592027824 13.08191447123514 956.2547619640477 39.30305780827169
1.2915119633734515 13.083713247287427 861.939548070846 40.886689251016975
1.3154441806719643 13.084849514801949 777.5963004398767 42.53531909870158
1.3393663330282919 13.0852660097472 701.5612582202641 44.25243116633442
1.3632439492836355 13.084946877477167 634.3287228232966 46.04121273109248
1.3870754853462888 13.083821043556767 573.6314145535425 47.90474926767105
1.410838108018817 13.081866682824584 519.1159949475093 49.8470951118048
1.4345126604504006 13.079032697201939 470.231609951844 51.871583675380116
1.4575373794815512 13.07505618688411 427.10694392228805 54.00153109133416
1.4772003728341032 13.067417516387271 392.51699638244384 56.33965208868849
1.493522441293745 13.05443755421554 364.3919042415542 58.906642106295116
1.5070162501323796 13.035832994132006 340.788655974057 61.708500091207675
1.5181144788738337 13.0116779806943 320.565714563669 64.75166865687542
1.5271691314808336 12.982131388339573 302.81725465446476 68.04336119213299
1.5344898274016001 12.947437333450546 286.97187906961176 71.59138756387154
1.5403268271649013 12.907884438107299 272.5969883149668 75.40433153515899
1.5448892655380004 12.863649325004657 259.33368444451276 79.49170840330375
1.5483694536570691 12.815071763687426 246.97911094921002 83.8639408904448
1.550920794249809 12.762365533795924 235.34347696865402 88.53219710629331
1.5526861139247004 12.705770300002158 224.30007536767644 93.50857236260586
1.5537884250050344 12.645532592573241 213.75361514520267 98.80647389366216
1.5543130424503462 12.581896782191906 203.62483178685198 104.44295976685933
1.554343501897492 12.515101382495054 193.901569031914 110.43608271128082
