M[M_sun], R[km], Lambda[1], P_c[MeV/fm^3]
0.2416277750616976 15.618515526848569 2160338.09801669 3.5677787854173952
0.25224115676030595 15.314085299822272 1768057.0240086068 3.759418437924031
0.26315116724605325 15.045791972879554 1454202.5236100983 3.9583835056901036
0.2743589608427238 14.808564336510441 1201282.2602703772 4.165010647839605
0.28586097293936014 14.598476524935304 977396.7513962606 4.379591958432045
0.2976651089388928 14.411568634058002 830343.4144552014 4.602282386012184
0.30976542801539114 14.245288112089336 694178.2107475288 4.833492912432465
0.3221646446977563 14.097058435029153 582387.7309135257 5.073520875604084
0.33486372020680605 13.96478187420464 490170.49982791825 5.322676409201062
0.3478610430285783 13.846581347246536 413846.41596093046 5.581207522810145
0.3611595555487255 13.74089695812368 350390.38761816337 5.849525957656629
0.3747597159122359 13.646428437842852 297481.1924033671 6.127991655027531
0.38866260613497816 13.561978851194352 253231.05898982062 6.416971346904248
0.40286528197982796 13.486591976078014 216081.7856628914 6.716847177706273
0.4173712427714091 13.419309328676889 184802.2302357118 7.028017312746132
0.4321798833103936 13.359278189959173 158416.57812275566 7.350896577202584
0.4472929557960115 13.305841127815853 136087.03523712332 7.685917127253554
0.46270705990065125 13.258398240833458 117139.11096769132 8.033529155151424
0.4784242906820097 13.216357909411473 101020.82139342207 8.394201630192107
0.4944428369261145 13.179265777197099 87287.88917569177 8.768423077728285
0.5107634297519384 13.146604204996278 75551.53965926153 9.15670239860595
0.5273845476472586 13.118016779050564 65510.46096121683 9.559569731666208
0.544303669630044 13.093168430306118 56892.31053870828 9.977577362247418
0.5615232182990445 13.071619658360062 49490.120965961 10.411300679956472
0.5790384921625317 13.053167517122825 43118.24455054843 10.861339189340988
0.5968485562159056 13.03750906288079 37619.60450396364 11.328317577501629
0.61494989084407 13.024392914022616 32869.53493739348 11.812886843125634
0.633341811630092 13.013589899119228 28758.60540871189 12.315725491906075
0.6520202859350346 13.004904823501597 25197.364689393245 12.837528931427222
0.6709833609279543 12.998115243815727 22104.038927702386 13.378963417035623
0.6902272961442476 12.993036083533196 19413.573789563954 13.940874372111354
0.709746675255812 12.98950642710733 17074.525593743343 14.524064716809836
0.7295401189681715 12.987398649425336 15033.554201543891 15.129372194949308
0.7495993358378343 12.986541197089059 13252.05991893885 15.757671111543088
0.7699230894221207 12.986810445665936 11695.577363665998 16.40987418853292
0.790504522426099 12.98806210091229 10332.157686177683 17.086934549100977
0.8113353674057241 12.990217414780801 9138.351309267506 17.78984784183902
0.832412073364774 12.993118254152323 8090.029391565696 18.51965451700955
0.8537292612687217 12.996698804259369 7170.513914465523 19.277442268149798
0.8752756639287822 13.000843592329906 6360.967818295992 20.06434865334699
0.8970443520533268 13.005444844152258 5648.9390282723125 20.881544764147772
0.919032759682296 13.010432139500988 5021.160484878055 21.730264779081526
0.9412271234306551 13.015729613832937 4467.666616288139 22.611859301991085
0.9636176613499525 13.021236675071673 3979.2189874567357 23.52769864860629
0.9861986403510304 13.026885370042724 3547.0280537376543 24.479219598986628
1.0089575755311284 13.032603160256759 3164.619073349225 25.467929473937684
1.0318795084919283 13.038333239142316 2826.0548150125946 26.495410528354412
1.0549669597802789 13.043972857900908 2526.2099917796563 27.56327414872369
1.0781963709072104 13.049498719400201 2259.9498719112707 28.673245698780104
1.101558743191445 13.054815778927969 2023.4544369999996 29.827194115515027
1.1250413286457108 13.059889577604151 1813.1971121445051 31.027048070897646
1.1486312299348618 13.064651967936834 1626.302227317455 32.2748386207642
1.1723159068942177 13.069045452140832 1459.8418674018576 33.57270611844709
1.1960802983477332 13.073020267340294 1311.6091579633526 34.92290767773935
1.219908994545511 13.076528483314075 1179.2612269043912 36.32768442107603
1.2437888693037333 13.079513969565634 1061.2677905221603 37.78936442959349
1.2677031163070913 13.081927549762014 955.7445118355683 39.310857317138435
1.2916346626104898 13.083724156600422 861.4809626477637 40.89496796044895
1.3155682205318928 13.084856505052306 777.189639802176 42.544063592059764
1.3394870762004367 13.085270786251096 701.6292187691279 44.26171412854133
1.3633721368366982 13.084941943415997 633.9833000228518 46.051021321384866
1.3872056010959508 13.083814613466464 573.3050055008691 47.91516394323614
1.4109708219273907 13.081853531903914 518.8397770663815 49.85810392067916
1.4346467247189902 13.079014790351238 469.9769836535752 51.88327585685403
1.4582144656370728 13.075260868217457 425.9779931269756 53.994916360226725
1.481656949251511 13.070553579568985 386.46356742050824 56.19748724854503
1.5049503694278137 13.064853358053563 350.89545026786664 58.49480578717776
1.5280763263670316 13.058125217557725 318.86003818732104 60.892253092530915
1.5510138454837479 13.050338424478547 289.9771248028533 63.394819011260225
1.5737411198836961 13.041453037609031 263.9377397185382 66.00781506861037
1.5962390502442645 13.031431373552104 240.42899530564466 68.73690048676471
1.618475747086522 13.020239338615726 219.1888185925997 71.58811041511323
1.6404505799188995 13.007877820447508 199.98413309536747 74.56788657587013
1.6621229720000166 12.994273444365373 182.61733405254907 77.68311055134673
1.6834764952665477 12.979415637365683 166.91758799387165 80.94113996473713
1.7044874325812913 12.963272155008145 152.6688941463523 84.34984783481983
1.725137163082186 12.945812566177391 139.77632877347898 87.91730495498663
1.7453970645177903 12.927009688799297 128.08039386529083 91.65227378290888
1.7652476627003761 12.90684322865622 117.45747160726465 95.5646338272428
1.7846674495125525 12.885278070623091 107.81688128241485 99.66387061004063
1.8036303454243017 12.862292427367292 99.06052805104497 103.96115867456747
1.8221146491526339 12.837862277260783 91.08957777618862 108.46807774756687
1.8400982672773223 12.811970394715793 83.83599879972111 113.19683114874971
1.8575579219470402 12.784586570164963 77.23857208115079 118.16056315658588
1.874472213036868 12.75569953671158 71.21895283167758 123.37344227149913
1.8908162873464331 12.725277665364276 65.73566290329914 128.85075242945783
1.9065698887495075 12.693312662284724 60.730813643505655 134.60899304950718
1.9216921982774124 12.659755877062372 56.15982776479587 140.66827947911557
1.9336845975445933 12.625989770712016 52.49030487421208 147.40514959854394
1.9405449129807142 12.589504904241656 49.82005628158951 155.15058586855307
1.9428665181009326 12.548317081877542 47.83617695111832 163.9445125561672
