M[M_sun], R[km], Lambda[1], P_c[MeV/fm^3]
0.2416277750616976 15.618515526848569 2160338.09801669 3.5677787854173952
0.25224172850163906 15.31404520018637 1768083.309101322 3.759435115361611
0.26315261448758603 15.045751924104357 1454106.9008368994 3.9584179741283405
0.27436229422485886 14.808498374072572 1201300.2483012753 4.165064494654264
0.28586737552335406 14.598254988003486 996708.8554647783 4.3796660951949065
0.2976701545987725 14.411498823347566 830257.6694817304 4.602378820612889
0.30977219573538467 14.245214668075231 694131.9127245013 4.833613288486375
0.3221719476482567 14.096967779612951 582348.140454584 5.073666912122648
0.33487204991944486 13.964703891846893 490099.94064883626 5.322849904571331
0.34787120864742793 13.846502272645553 413790.63969432836 5.581408771886707
0.3611712359812847 13.7408028471687 350341.00214000297 5.849758281382781
0.37477297655939557 13.646333297338831 297440.67842282815 6.128257103316149
0.3886773556864329 13.561904747703577 253186.77827603722 6.417272067296048
0.4028810767412176 13.486516894744327 216047.37343956248 6.717185420760399
0.4173890465163984 13.41920114428581 184754.91388721205 7.028395437776271
0.43219982872154006 13.359192058128334 158385.83350946713 7.35131705838364
0.44731354471343904 13.305785504887186 136052.61426095164 7.686382560125161
0.46272903946222765 13.258337683576753 117096.47721496547 8.034042263547313
0.47844841565579754 13.216302148286589 100998.9745558133 8.394765273626374
0.49446932399983284 13.179194431109527 87264.54144212279 8.769040259272042
0.510791444235733 13.146552474704738 75532.68102136662 9.15737627329059
0.5274142373054096 13.117972910525456 65494.511720442526 9.560303615451783
0.5443369125322748 13.093110488130602 56877.56283285021 9.978374741598245
0.561557280643953 13.071579438550385 49475.699434560716 10.412165222068316
0.5790736221596139 13.053139720267898 42721.6953918201 10.862274753068384
0.5968872777306317 13.037477728190666 37610.166421829315 11.329328225036887
0.6149902864954887 13.024379796891406 32860.659591823845 11.813976852485045
0.6333845332395635 13.01356777847928 28749.329783796977 12.3168993702831
0.6520655847507865 13.0048852414408 25189.411165861056 12.838800144381352
0.6710304697681989 12.998089313965306 22097.24735125565 13.380328821436919
0.6902751918475825 12.993018080763338 19409.255209252464 13.942339275843667
0.7097985164305987 12.989504973766218 17068.723111257652 14.52563472125204
0.7295939392037696 12.987392753615227 15028.262753670362 15.13105321378304
0.7496561117891617 12.986548416772397 13247.708459529038 15.759469390898685
0.7699821906163519 12.986804945061852 11691.404881547605 16.41179632857508
0.7905655507922985 12.988076388395374 10259.617296036433 17.08898752716206
0.8113995237122498 12.990218716504533 9134.804734133495 17.792039037218554
0.8324792925673645 12.99312814713173 8087.006578811723 18.521991737566882
0.853797617526415 12.99670492437449 7167.686280451019 19.279933778828145
0.8753474442079532 13.000851002282417 6358.56974134472 20.067003206777713
0.8971206253412025 13.005456205297914 5646.8173954506865 20.884389189300666
0.9191101131209767 13.010449419670834 5019.198454979366 21.733292280214446
0.9413065747351692 13.015748582187184 4465.7959377602665 22.615080340893755
0.9637024495837208 13.021246297968666 3977.6401635461048 23.53112432335834
0.9862830856748822 13.02691064343405 3545.471614576149 24.482861687834323
1.0090449017258658 13.032625845588877 3163.083492506918 25.471800482471483
1.0319693869593916 13.038360872979494 2824.790272451931 26.499523740258287
1.0550601979118583 13.043996634092458 2524.949692011996 27.567618712737474
1.0782913089753534 13.049518097222055 2258.8906461517004 28.67786033983883
1.1016562057383452 13.054840660261485 2022.4523088178623 29.832094740464576
1.125142802567315 13.05990492896616 1812.36725669869 31.032251606524916
1.1487335301982855 13.06466910064647 1625.5249931372193 32.280363087148196
1.1724211284589043 13.069060300211765 1459.201889884602 33.57857070808619
1.196187700243704 13.07303579679135 1310.97260555266 34.92913284095311
1.2200186860124165 13.076543393415616 1178.7622420410873 36.33425756829791
1.2439010263917143 13.079525990312506 1060.7238683381574 37.796341512015886
1.2678178540946954 13.08192985835468 955.3070135381938 39.31826305978354
1.2917504928505832 13.083731500465223 861.0703074965494 40.90282875709575
1.315685766551892 13.084855142949825 776.757669153121 42.5523667011038
1.339607371326011 13.085270352054977 701.2876793616041 44.27052858019219
1.3634936668377706 13.084941907876523 633.6507772241894 46.06033492067544
1.3873293146407142 13.083810087646496 573.0051257726283 47.92505310319437
1.4110956188933972 13.081840287722901 518.579170128613 49.86855729017952
1.4347730960715552 13.07899725768257 469.7234568339006 51.89437819113874
1.458343749889542 13.075240426029207 425.7699785057752 54.00665751185117
1.4817859247891711 13.070525964409766 386.25351991521853 56.20991150405776
1.5050806740731928 13.06481808084559 350.70268395460033 58.50800449840312
1.5282081832709864 13.058083827088858 318.6852613017351 60.90622295984187
1.5511460758008357 13.050289976217929 289.81483911740395 63.409610052594914
1.5738731206589227 13.041398863171024 263.79289536709814 66.02348096182534
1.5963714993076055 13.031369790218863 240.2925416412594 68.75349886602086
1.6186099765766828 13.02016967001689 219.04694915659718 71.60570319409986
1.6405842516180376 13.007797468728638 199.87633381741063 74.58654030056852
1.6622581559094785 12.994184357379575 182.5364561424777 77.70289678533186
1.6836104636312323 12.979317831567128 166.8185913662126 80.96213571035105
1.7046217362080203 12.963162708053245 152.5869287675179 84.37213599391664
1.7252692520709922 12.945693927522628 139.69282039877137 87.9408953480262
1.7455292494686732 12.9268827845072 127.99738104625084 91.67733894765901
1.7653788598560685 12.906701167175028 117.39859107841858 95.59119263138602
1.7847964789503947 12.885128625808731 107.75897642550167 99.69211608984723
1.8037017502164527 12.862168888235056 99.02673687434874 103.99734335353587
1.8181205889924026 12.837850114606812 92.37795660972684 108.87002593861975
1.8262695564707445 12.80846010947381 87.76090659713093 114.54451138318582
1.829299606667468 12.772528185968016 84.46529869162572 121.03563572798376
