M[M_sun], R[km], Lambda[1], P_c[MeV/fm^3]
0.2416277750616976 15.618515526848569 2160338.09801669 3.5677787854173952
0.25224206956493495 15.314045384461105 1768128.1328501683 3.7594392050989573
0.2631543356599159 15.045699470022038 1454127.4772369305 3.9584264267099933
0.2743628262437617 14.808478341746124 1201308.3900106421 4.165077699381832
0.2858690933858953 14.598212652892588 996740.814110776 4.379684275645659
0.2976713943423078 14.411485616018037 830264.2467448486 4.602402469217549
0.30977412710442825 14.24518977132179 694126.3901902776 4.833642808348408
0.3221752502023731 14.096905358867367 582315.0478189284 5.073702724838695
0.33487414172372704 13.964634603587534 490101.68603396346 5.32289245120727
0.3478735591729797 13.846468786804836 413779.3470520099 5.58145812478792
0.3611742409242277 13.740784914045783 350322.7056698167 5.849815255009163
0.3747756020788017 13.646334486868122 297425.3622245309 6.1283222004279105
0.3886808787046408 13.56187511444514 253177.1379199126 6.417345814599667
0.4028848898358637 13.486506312069286 216034.82338376847 6.717268370230773
0.41739353782959665 13.419184250017231 184761.65788858657 7.028488168063855
0.43220396521101706 13.359170402139778 158371.14761235108 7.351420176312274
0.4473179993506671 13.305764753153765 136037.20960209728 7.686496702287336
0.46273531715587946 13.258313387808803 117099.7208339993 8.034168098003871
0.4784543266283831 13.216284315976852 100989.91267757061 8.394903501718323
0.49447597521955344 13.179178278949303 87257.41019746572 8.769191617552597
0.5107983365595095 13.146545569430803 75528.02043673725 9.157541535586477
0.5274202388025232 13.117975041773704 65489.72116112051 9.560483595063136
0.5443444916492488 13.09308135298563 56872.701390835355 9.978570293647415
0.5615648164999644 13.071576088142866 49472.819598604816 10.412377246008589
0.5790834393963248 13.053131822229119 42719.249851876826 10.86250419536437
0.5968968659235152 13.037467297066062 37607.31232800767 11.329576082029487
0.6150003570333039 13.024361565390656 32858.585918455705 11.814244173454144
0.6333939863443862 13.013567232068178 28747.529460689242 12.317187260723172
0.6520753047802703 13.00488148088067 25187.142265111794 12.839111906950091
0.6710421852680574 12.998079685389223 22095.487437270232 13.38066368531144
0.6902890887626183 12.993019184862721 19408.18317299516 13.942698542920782
0.7098112217401175 12.989502646467912 17067.17168772516 14.52601976542047
0.729607210071031 12.987399670206177 15027.098154054325 15.131465485537081
0.7496709280464553 12.986532771408687 13246.457902006825 15.759910422280226
0.7699967752183858 12.986817411305028 11690.34977826446 16.412267738468532
0.7905816017206633 12.988075929408627 10327.63519660469 17.089491026969366
0.8114152636502935 12.990220741098682 9133.973936782242 17.79257643694252
0.8324962214881065 12.993130890950823 8086.258986507242 18.522564952334893
0.853812876802162 12.996726342400619 7166.848197457307 19.280544835889128
0.8753651602434646 13.000861405532396 6358.043783986062 20.067654253010144
0.8971391500787345 13.005461983290312 5646.3056852553655 20.88508409098076
0.9191284806053643 13.010466366290503 5018.731186486069 21.73403479927646
0.9413260345766473 13.015749063284053 4465.466732502888 22.615870329134726
0.9637207146013567 13.021269792235266 3977.127670255847 23.531964503000285
0.9863035525700858 13.02691669298292 3544.962736213148 24.483754947946917
1.0090670863447528 13.032633244182415 3162.9880555398577 25.472749890545895
1.0319913625481667 13.038362393532049 2824.4819720132073 26.50053255465694
1.0550829528243344 13.043995189036146 2524.7884505482507 27.568684271856732
1.0783146103608943 13.049521648610648 2258.635911260743 28.67899214244733
1.1016817682439433 13.054841498599208 2022.3410309939668 29.833296688407252
1.1251657154643675 13.059912207114685 1812.1242486698588 31.033527851849076
1.1487592423852577 13.064679419260164 1625.340455176142 32.28171805009911
1.172446912606876 13.069070195972552 1459.0419976952624 33.58000909651932
1.196213745337339 13.073039720742939 1304.8152087990875 34.930659671285966
1.2200453229553299 13.076552511222001 1178.6060243006468 36.33586975242406
1.2439280702877062 13.079526604106869 1060.6197867392827 37.7980527745832
1.2678445623708146 13.081940203672609 955.1873836747269 39.32007946586496
1.291779776197035 13.08372925849527 860.9621784468519 40.90475678114353
1.3157164091580198 13.084852617637855 776.668595156474 42.55440321764068
1.339636913455522 13.085272409524409 701.2072421168635 44.27269052246422
1.3635237782659326 13.084938743154673 633.5838711398287 46.06261929725439
1.3873596741730199 13.083808463246669 572.9395166340045 47.92747865854781
1.4111265240048299 13.08183649787699 518.5118105710419 49.871121239835375
1.4348041256007968 13.078990189375014 469.6616351916474 51.89710132617737
1.4583744396482121 13.075231247869393 425.70877123410037 54.00953734303096
1.481818192560146 13.070518202273737 386.2018074465073 56.21295796816122
1.5051123833416034 13.064808866463968 350.6492713082679 58.5112418592528
1.5282394768644867 13.05807466537617 318.6371486893539 60.90964948089538
1.5511782541189503 13.050276362842759 289.76791028595295 63.41323800387142
1.573905654548498 13.041383562984368 263.757398363906 66.02732351124097
1.5964035173299225 13.031355736539584 240.2595219246662 68.7575701521083
1.6186423249932709 13.020153660818227 219.03113801227738 71.6100184053137
1.640617094962824 13.007778092248662 199.84566394405456 74.59111576183828
1.6622896303204067 12.994164134475229 182.50295277194414 77.70775005260045
1.6836426207253945 12.979293665794337 166.79459490102883 80.96728567391395
1.7046586816221614 12.963134350534364 152.50091379488546 84.37760299147212
1.7253014237813549 12.945665977646092 139.67455131293698 87.946681788384
1.7455613999955166 12.926850449310676 127.98451358487128 91.68348715889033
1.7654109110227842 12.906665279799249 117.38106481871748 95.59770724180218
1.7848279887681595 12.88508989716541 107.74387630758281 99.69904445697632
1.802450624844866 12.862374688758319 99.47970993288062 104.11371737512677
1.8134733410566195 12.836416993509209 93.80154348982046 109.29463907992964
1.8185366549273263 12.804150592456699 89.88164955083923 115.30493842936394
1.818836141113871 12.764922333209842 87.11955401096778 122.15868842270773
