M[M_sun], R[km], Lambda[1], P_c[MeV/fm^3]
0.2416277750616976 15.618515526848569 2160338.09801669 3.5677787854173952
0.2522418284175583 15.314050477362567 1768079.2478698948 3.7594354983084206
0.2631526712989064 15.04575047908842 1454114.35114028 3.9584187655940877
0.2743623335379454 14.808494517382387 1201270.6287667023 4.165065731090993
0.28586742333971366 14.598279680282891 977350.4095420225 4.379667797536907
0.2976702936254885 14.411500067005198 830252.2995014212 4.602381034968697
0.3097737015399136 14.245157737550786 694111.9823544736 4.8336160526002
0.32217235188785587 14.096972193678845 582323.7705076815 5.073670265470281
0.3348726195277121 13.964628416232948 490089.2423250621 5.322853888451544
0.3478715194437789 13.846487349077519 413795.98294920026 5.581413393072943
0.361171645186787 13.740806425594918 350330.3280763579 5.849763616136537
0.37477295458389676 13.646346980850112 297430.17452584143 6.128263198712741
0.3886776852654548 13.56190287966334 253185.80068113137 6.4172789726529595
0.40288131578728215 13.486514305372397 216040.08861643926 6.7171931877610405
0.4173893737399772 13.419198751043746 184759.24021847415 7.028404120601725
0.4322008801562024 13.359170523174429 158377.96525502656 7.351326713852971
0.44731406970962445 13.30579454220323 136054.13870976205 7.6863932478446975
0.4627295709960556 13.258335681194371 117097.91041952274 8.034054046069842
0.47844860505233905 13.216302891141389 100993.45341800278 8.39477821662076
0.4944701892107308 13.179191830797238 87263.48800372475 8.769054431704198
0.5107920997638173 13.146557678413812 75532.31408639446 9.15739174761637
0.5274155759915508 13.117972006229536 65492.4121935808 9.560320467823049
0.5443377016983615 13.093109659689611 56877.50933671033 9.97839305208273
0.561558116727399 13.071579089028646 49475.98481116362 10.412185074884505
0.5790752313346835 13.053135393086071 42721.38868020638 10.862296236836642
0.5968872279797531 13.037482334404663 37609.275658786464 11.329351433047451
0.6149911281285406 13.024368052953442 32860.56773190779 11.814001882985018
0.6333855120708943 13.013567529697347 28749.320395318846 12.316926326783037
0.6520666167323381 13.004870590387874 25189.275143660216 12.838829336119767
0.6710329417293993 12.998074290499064 21924.903358906322 13.380360176237717
0.6902788801140147 12.993018162892056 19408.876479853323 13.942372915606922
0.7097996684547548 12.989501413996463 17068.867393435445 14.52567077461841
0.7295946383914288 12.987393518077537 15028.420735071308 15.131091816565966
0.7496579873213721 12.986544014357465 13247.886866622182 15.759510686547001
0.7699835517354774 12.986805221036967 11691.28483224492 16.411840468668753
0.7905669703454232 12.988076501023862 10259.530625547188 17.089034671943683
0.8114009813080483 12.990215619526348 9134.667998453386 17.792089356162805
0.8324808532600617 12.99312710953338 8086.958317770464 18.522045409991406
0.8537990566652672 12.996706879699152 7167.442982236781 19.279990994548527
0.8753491078768183 13.000845390192461 6358.436293541588 20.067064166810727
0.8971223534411354 13.005456483173516 5646.726351195182 20.88445450980477
0.9191125698905239 13.010453920843485 5019.234207269504 21.733361805126265
0.9413084562170553 13.01574703365588 4465.753517764474 22.615154310485686
0.9637023975504614 13.021251597742367 3977.6461312935494 23.531202992517027
0.9862853834252842 13.026916458341741 3545.370434843063 24.48294532706836
1.0090474080403462 13.032622515546285 3163.142298200661 25.471889378995304
1.0319714551398071 13.038363234357488 2824.758931609338 26.49961819915766
1.0550623790283247 13.043997734182286 2525.020657599276 27.567718484800334
1.0782936368965133 13.049520848207841 2258.881852935495 28.677966314451872
1.1016587862838942 13.054834678008106 2022.5688085015154 29.832207282963136
1.125143411445974 13.059915664665104 1812.356134997973 31.032371105670787
1.1487360861628129 13.064675847622155 1625.4816998313663 32.28048995681462
1.1724233009838494 13.069062934844208 1459.1934461929861 33.57870538907541
1.1961900913309416 13.073041044261831 1310.9673585599314 34.929275802958024
1.2200212923121359 13.076547859648958 1178.7008948167047 36.33440852217416
1.2439036769639047 13.079529699082983 1060.7407856351738 37.796501742818634
1.2678206110649393 13.081936653106844 955.2740502958345 39.31843313539124
1.2917534080430726 13.083728633963224 861.04419247387 40.903009283716685
1.3156891522395058 13.08485562903011 776.7400734220588 42.55255738609589
1.3396100816998864 13.08526964606344 701.2766778445477 44.27073100902966
1.3634964363620012 13.08494137767291 633.6357872207996 46.060548813267815
1.3873320386357806 13.083807311367293 573.0205276321673 47.925280214598956
1.411098765241328 13.081838024277857 518.5679835394543 49.868797359683875
1.434775967872434 13.078995502321105 469.71549742350044 51.894633165421965
1.458345769708295 13.075238094598081 425.75099892001947 54.006927157844295
1.4817895156087226 13.070523653780542 386.25532217631945 56.210196752146004
1.5050835441306913 13.064817559570113 350.6950282553362 58.508307620412936
1.528210493590832 13.058081301233893 318.6814482701785 60.906543793180866
1.5511475986359708 13.050289345892715 289.80104073517765 63.409949746106825
1.573876112334893 13.041395778326489 263.7906193554669 66.0238407484225
1.596374583079202 13.031367025892155 240.2894396021508 68.75388006949343
1.6186116561070585 13.020170293472157 219.0451169273565 71.60610723654077
1.6405873634630719 13.007794712050206 199.8707363191253 74.58696871047685
1.6622613925648455 12.994183258604206 182.53397916153824 77.70335120646448
1.6836134944402144 12.979315737214941 166.81892162435815 80.96261791139776
1.7046244805312811 12.963160587749426 152.58284763907247 84.37264787908484
1.7252718433001928 12.945692068536456 139.69081420499407 87.9414371428576
1.7455311396754833 12.92688000179961 127.99617428059153 91.6779146152964
1.7653817435438384 12.9066970206257 117.39606533624209 95.59180260518158
1.7847993746417523 12.885124347929269 107.75983350441331 99.69276480383705
1.8037606610418673 12.862126619142579 99.00117431954047 103.99180881530827
1.8222434770428713 12.837685878044002 91.03052506057145 108.50061043378254
1.8402258811625063 12.811779280648969 83.7877620782257 113.2313831765904
1.857682953459222 12.784382584979221 77.1943644635759 118.19728244422444
1.8745936345752627 12.755482661416673 71.17402914074236 123.4124888776622
1.8909350872435968 12.725047363489342 65.69568497849833 128.89229967666435
1.906685913042934 12.693067599237551 60.69420899694124 134.65322876390755
1.9218227286380796 12.659523795440084 56.12766134389322 140.7131085560646
1.9363262405316966 12.62439981431377 51.95690646120522 147.09003303932644
1.950165274699199 12.587661012907917 48.14258423260979 153.80540108156774
1.9633359819491305 12.549337731530851 44.65583684821997 160.88077572995857
1.9758150436930628 12.509421751350892 41.4664467894713 168.33979234635675
1.986397139018259 12.469335643790384 38.744786989774056 176.463451429577
1.9911066053106412 12.429602295187278 36.92929441567207 186.10769113698285
