M[M_sun], R[km], Lambda[1], P_c[MeV/fm^3]
0.2416277750616976 15.618515526848569 2160338.09801669 3.5677787854173952
0.25224173957298035 15.314041845566969 1768131.902098961 3.7594294459916195
0.2631516661029226 15.045792231203286 1454169.332408019 3.958406256817
0.27436219568571996 14.808483949007835 1201300.4555687285 4.165046189758483
0.28586415587390246 14.598388076726929 996833.1529136433 4.379640892805948
0.2976684307990001 14.411522764131572 830302.551668044 4.602346038131049
0.30976961902865485 14.245253106250644 694136.6604501238 4.833572367142652
0.3221690858836694 14.09702645327598 582323.0396726023 5.0736172675146785
0.33486854925347237 13.964750437150524 490124.1940627976 5.322790925310485
0.34786751312564534 13.846530228177818 413811.86267653166 5.581340357710388
0.3611678398428754 13.740866467745613 350365.3684270786 5.849679303303081
0.37476867796967284 13.646360716353188 297449.3639426147 6.128166864430037
0.3886721944146235 13.561937276398682 253195.4212089266 6.417169837508685
0.40287573822697437 13.48655295925901 216050.03601325612 6.717070434952349
0.41738293567735324 13.419257771053175 182484.84834725267 7.028266893853394
0.432193270886368 13.359216698567465 158398.07509717366 7.351174115200822
0.4473062611953034 13.305796670948158 136060.86912901248 7.686224335275163
0.46272180800572543 13.258358600545446 117113.67719283924 8.033867831004912
0.47844058386390115 13.216315319907856 101009.28991547375 8.394573661237043
0.494459974464063 13.1792145160294 87272.07029235028 8.76883044607401
0.510781917002527 13.146570101265032 75538.33178913074 9.157147186657786
0.5274040732832496 13.117987768435395 65498.577361576696 9.560054128044591
0.5443258415659248 13.09312723776029 56883.2153141514 9.978103668107947
0.5615455003521841 13.071596030386301 49481.05692303127 10.411871315739818
0.5790626946782048 13.053143867507902 43110.92202305288 10.861956701985088
0.5968725395373187 13.037519331021112 37611.927710533426 11.328984648149818
0.6149765283006208 13.024386276324632 32864.76011999438 11.813606295367613
0.6333699787580486 13.013576019925912 28752.752656182383 12.316500300590995
0.6520499819948513 13.004880139402129 25191.1578028623 12.838367984190253
0.6710146346444869 12.998085793268608 22099.951461276054 13.3798646392644
0.6902600852627966 12.993022073715165 19410.053234008505 13.941841267118312
0.7097807230273614 12.989509255465466 17070.711686493087 14.525100981616644
0.7295738919792432 12.987408605052048 15029.779776336947 15.130481732700094
0.7496376472030125 12.986536311041219 13249.327304193626 15.758858044800657
0.7699620668161241 12.986803235346697 11692.793207119501 16.411142873525293
0.7905442309449006 12.988080084940146 10329.494595511855 17.088375460850333
0.8095413812816047 12.988586802746129 9225.579150444879 17.81565185365079
0.8252336260786329 12.984318928294108 8388.081325015719 18.62425286467682
0.8383969669322993 12.97435617321835 7718.918548871249 19.51440569085865
0.8496049402537412 12.9586435522225 7162.38706003895 20.486268062292076
0.8593058857390294 12.9373631425494 6682.173401325745 21.540110816420256
0.8678612541786914 12.910860855206867 6256.569306500914 22.676119481586223
0.8755401326887171 12.87949022394595 5870.606259644948 23.894643654592734
0.8825721345725293 12.84356844997045 5514.292358593339 25.196151104086102
0.8891474323999734 12.803406318961343 5178.500105264579 26.581284015854074
0.895426108516669 12.759346582488586 4860.489861822194 28.051092532325402
0.9015396358458783 12.711681539309208 4556.969593513174 29.606368259984908
0.9076110988177315 12.660733489729623 4264.787042491732 31.248515844135063
0.9137169212762821 12.606846799767766 3982.6353496815186 32.97970125956126
0.9199165696447635 12.550238946501695 3712.100421289889 34.80240895253364
0.9263001506256152 12.491330062171002 3451.8567231726092 36.71945808024137
0.9328996218876785 12.430339861708822 3202.19617470411 38.733240316188834
0.9397588380408647 12.367533576638289 2963.437674598171 40.847406795286844
0.9468919448608965 12.303097554670966 2735.6097548171456 43.06514693372239
0.95435411723393 12.237434788842675 2519.8574037696485 45.39063568547294
0.9621503053514764 12.170687135368256 2314.9783886720834 47.82722015026336
0.970298994651731 12.103097465091093 2122.3638381281357 50.37968087575841
0.9787876007999413 12.034856415991074 1941.710639681402 53.05287937585654
0.9876401352976322 11.966244365367755 1772.8924747108472 55.852079885732216
0.9968320810273158 11.897364421672233 1615.968806105269 58.78279666069419
1.0063526757784917 11.828418645917013 1470.4619676909115 61.851871672625236
1.0161698508068677 11.759640728448892 1336.4802585001337 65.06813779532688
1.0262156028459246 11.691169778880354 1213.737917717936 68.44207279261325
1.0363491216453715 11.623327377763694 1102.329290755375 71.99350516617592
1.046749635200286 11.55510901638472 999.6109867524291 75.70686026802973
1.0576139852926538 11.486579572478044 904.4431883377141 79.57399727143041
1.0689380873141576 11.418313904716802 816.7098034666453 83.60289405387812
1.080707086000063 11.350554604574272 736.2561972216255 87.8022445804081
1.0928844931572619 11.283500244476977 662.9080571288497 92.18148250072903
1.1054339176989694 11.217371189083018 596.3281761851823 96.7502727821816
1.1183091601193798 11.152223382782239 536.015644917221 101.51877751107199
1.1314643028148397 11.088092415517368 481.6239769850835 106.49805793358
1.1448614136373605 11.025092987434283 432.66061889026207 111.7002144381742
1.1584462812403853 10.963165400273265 388.7274476134565 117.13784360644101
1.172178391755047 10.90230056300501 349.3315291278012 122.82462619372562
1.185998497401506 10.842492090178055 314.05906000404207 128.77424903773044
1.1998656299674626 10.783614527524504 282.5229564190291 135.00335950046255
1.2137293894618553 10.725663419238339 254.35193335736264 141.52767448359114
1.227543918950018 10.668517929566352 229.19199505687038 148.36542496701085
1.2412647452468542 10.612121717838306 206.721498079964 155.53583273425272
1.2548495346711162 10.556379686203142 186.64876982299052 163.0589501892923
1.2682472510365623 10.501159550273195 168.74104554393014 170.9574659834801
1.2814336255395042 10.446500290057918 152.3336352028462 179.25470189142797
1.2943495550895636 10.39215339138358 138.41585913303848 187.97653888314045
1.3069667615565965 10.338133612643063 125.61720198599585 197.15044348510335
1.3192490906142176 10.284353512215661 114.16738337609681 206.80631589376065
1.3311506541653744 10.230644786859028 103.91624547572394 216.97579745257906
1.34264778587641 10.177091152474675 94.73838488896233 227.69415177293348
1.3537091623959316 10.123333644034266 86.4903877911403 238.9985767844172
1.3642896593866847 10.06960228503175 79.09312914323361 250.92966790450214
1.3743756140087646 10.015563645016499 72.4385958612917 263.53170865037754
1.3839208251234594 9.961360575941287 66.45952424626333 276.8520908091756
1.3929046514808814 9.906736104554772 61.070446501042326 290.9428986984275
1.4013292586847745 9.851898318734431 56.21731842461179 305.8603241999812
1.4091305798831728 9.796520935757394 51.83592693370268 321.6658341404831
1.4163210006966345 9.740721752452624 47.88043640377411 338.42549249340044
1.4228505289938718 9.684386451410266 44.3016529692114 356.21255508789733
1.4287156386289577 9.627479438732589 41.06366378841778 375.1062459398834
1.4338983060237933 9.570008512259816 38.133161390011296 395.1929160730578
1.4383817456827808 9.511897821903345 35.47489677329705 416.56761656809243
1.4421474784345862 9.453156819526212 33.06113286357568 439.3337178299053
1.445187302426531 9.393767468966592 30.874105993279485 463.604954051216
1.4474903235389043 9.333703216488368 28.8847522369931 489.50614218641726
1.4490475815841275 9.272945210282993 27.071313128660737 517.1740695244131
1.449849925941891 9.211523439601232 25.425045302258606 546.7593360084882
1.449889544671735 9.149452591786497 23.929458060796886 578.427990854117
