M[M_sun], R[km], Lambda[1], P_c[MeV/fm^3]
0.2416277750616976 15.618515526848569 2160338.09801669 3.5677787854173952
0.2522390676693346 15.314104418911086 1768149.4273641494 3.759383465212225
0.2631467073555873 15.045878950115066 1454144.136916882 3.958311225808901
0.2743531873121736 14.808685488139604 1201418.560845938 4.1648977328199575
0.28585532595766455 14.598487027619225 996858.2325740431 4.379436497474792
0.29765499063364514 14.411711867041824 830447.5256280049 4.602080169502951
0.30975339111730776 14.245436936056885 694287.2306315688 4.833240494689414
0.3221491580294302 14.097227650672153 582514.8269678372 5.073214652926062
0.3348447101935375 13.964939897473572 490274.0165011316 5.322312611527536
0.34784062779856817 13.846690412936855 413949.08484180097 5.580785532667633
0.3611374791383259 13.741029207146246 350474.51890970144 5.84903881268332
0.37473305527845335 13.64658719692789 297568.9290442854 6.127435058002546
0.38863150034884875 13.562175936600894 253313.3822924045 6.416340795994976
0.4028322395386077 13.486763516971026 216155.0599235261 6.716137955171458
0.41733509714138267 13.419454175993135 184870.31106992284 7.0272244729145825
0.4321402062745964 13.359421028557591 158485.23672837715 7.350014933675928
0.4472491587598994 13.305982201696297 136141.15615037992 7.684941239277097
0.4626614640039566 13.258529389603206 117183.85023619536 8.032453313092882
0.478373667173956 13.216479371455467 101071.79567352608 8.393019840062879
0.4943886810100143 13.179373947696224 87331.58975536085 8.767129044677123
0.5107046740543522 13.146734056993058 75587.29289337114 9.155289509309643
0.5273208288546318 13.118125842873972 65546.08135397812 9.558031035535482
0.5442382183557789 13.093242805587826 56924.846875230956 9.97590555136132
0.5614514322213777 13.071704555389312 49518.67606514836 10.409488067630852
0.5789629627012434 13.053257398198157 43143.118685352245 10.859377687230396
0.5967677512079272 13.037579103092266 37643.069278929404 11.326198671126383
0.6148644451090843 13.02445408939677 32890.553987157014 11.810601565707437
0.6332524582818284 13.013638086035915 28776.70821070742 12.313264396387217
0.6519264168301436 13.004928573130735 25214.197309957828 12.834863792241409
0.670884898704666 12.998123642796433 22117.90908183562 13.376100824361826
0.6901235565108437 12.993045414888432 19428.629981742943 13.937803200951864
0.7096381952578799 12.989537223232983 17085.412572275 14.520773227118456
0.7294252112923606 12.98740084398707 14934.972952051436 15.125847992223132
0.7494804723525149 12.986545118262823 13261.910618021764 15.75390110461025
0.7697988977333602 12.986805871192095 11704.438956288786 16.40584454432533
0.7903749990681491 12.988058557697698 10340.410501842945 17.082630644183798
0.8112007614555422 12.990201386339766 9145.67953179328 17.785254210450038
0.8322709577661955 12.993112735637485 8096.397433661167 18.514754795342334
0.8535829197938217 12.996677586348826 7176.2911781125285 19.272219134591044
0.8751250821029327 13.000811595200284 6366.355804542632 20.058783764355375
0.8968909523525086 13.005409242373501 5620.149770164052 20.87558189026901
0.918871497769382 13.010394517693966 5025.638779179812 21.723918165576148
0.9410601431544919 13.015688279677738 4471.751741867444 22.60510702396421
0.9634467806917267 13.021191267835134 3982.894118732787 23.52051744790444
0.9860212398720068 13.026835832421716 3550.2883762933097 24.471584792276506
1.0087743769665192 13.032563749161929 3167.684120541686 25.45981485386862
1.0316949608010761 13.038278201200312 2828.8156141006066 26.4867882572419
1.0547734588743793 13.043927763969394 2528.3687425091134 27.554165183074588
1.0779960496933334 13.049447318105342 2262.0515439821947 28.663572455524136
1.1013536055987105 13.054766437633981 2025.3887278106083 29.816921474741314
1.1248309285946076 13.059846396372565 1815.01245847211 31.016140561732307
1.1484150649303406 13.06460548254683 1627.8908068659139 32.2632584816987
1.1720947598162712 13.069009660140356 1461.2556986735033 33.56041313158514
1.195855276036294 13.072983414293367 1312.9356120648717 34.909858989901664
1.219679275632852 13.076494296737643 1180.4506521249707 36.31390641523864
1.2435543440391787 13.079491862453226 1062.3644418245242 37.77473986015707
1.2674636886444959 13.08190601252839 956.775451047993 39.29533437509336
1.2913906917384723 13.08370827585213 862.3829570206375 40.87849134072802
1.315320291619758 13.084842391835382 778.0193721514797 42.52665999460773
1.3392348304355923 13.085269664664265 702.3891188229239 44.24323890829748
1.3631166394681824 13.084951936899413 634.6633342694859 46.031500031983825
1.3869467633274253 13.083834936765635 573.944842546803 47.89443647403305
1.410707964531737 13.08187830146468 519.4162234404228 49.83619405628534
1.434381481228872 13.079050583191595 470.49750043895256 51.86000601178907
1.4579500752617043 13.0753078154759 427.54241352667856 53.97030779618186
1.481385681482201 13.070612736906108 386.88735755536493 56.171342562336896
1.5046764289960377 13.064927303141825 351.2882172690011 58.46714280349764
1.5278001645148334 13.058212327084096 319.21494279643355 60.862974112411756
1.550736353611834 13.05044031178812 290.31138500711927 63.36381923877996
1.573462564906465 13.041568717173567 264.24461037315365 65.97498204127257
1.5959574428961256 13.031565303789078 240.70120554187633 68.70211345478643
1.618195379209099 13.020390267419062 219.43799018040954 71.55123966452042
1.6401704581733407 13.008043862588439 200.22055992813415 74.52879268974242
1.661843017435085 12.99445936532622 182.83389384840135 77.64164360293626
1.683196143585412 12.979620667710163 167.11286346234183 80.8971386354875
1.7042100606719903 12.963493872735521 152.86432262633033 84.30313844953108
1.7248591115807437 12.946057038947897 139.94038128934767 87.86786693238918
1.7451215123017256 12.927277246216903 128.22894432045396 91.59974567905266
1.7637891693462955 12.907082056661594 118.10712418770365 95.59376448330167
1.7789694904880848 12.88375131086048 109.90042907489612 99.99993717014955
1.790897475798269 12.855958923286183 103.13690896541151 104.83965095105424
1.799922460014604 12.823288546765562 97.42683783729069 110.1325049193407
1.806380174167076 12.785661909425738 92.52587871278602 115.89985171514434
1.8105509829373028 12.743040731586367 88.24062399368731 122.16456396359077
1.8127167154978672 12.69567273737073 84.44539928789496 128.95161210611198
1.8130873708562851 12.643626739706294 81.03339208774862 136.2881490222741
