M[M_sun], R[km], Lambda[1], P_c[MeV/fm^3]
0.2416277750616976 15.618515526848569 2160338.09801669 3.5677787854173952
0.2522410196649984 15.31408365482332 1768106.4725184576 3.75941687130337
0.26315147648093823 15.04577305213866 1454137.7141396026 3.958380267855491
0.2743585225472165 14.808592841712146 1201339.0207957285 4.165005589690647
0.2858630403816991 14.598345779990797 996799.1492662157 4.3795849943510925
0.29766458010350927 14.411565230970727 830357.7773732208 4.602273327400006
0.3097651506686113 14.245279350256762 694189.9875104568 4.833481604909222
0.32216410021082015 14.097053208549092 582382.1735346055 5.073507157708874
0.3348631275138305 13.964778498144 490201.78496909776 5.32266011201817
0.3478599968602811 13.846591122105206 413850.59755299607 5.581188618655227
0.3611584471548914 13.740902421419195 350386.24143988825 5.849504134598392
0.3747585281877765 13.646439885825597 297486.5636223443 6.127966720527386
0.3886612664405211 13.561987298622391 253236.7431484469 6.416943099254616
0.4028635696880588 13.48660347651819 216080.74255846598 6.716815405524315
0.4173697696120913 13.419292700844741 184796.38520518967 7.027981794435007
0.43217890588786884 13.359268920177765 158421.39867939535 7.350857080377977
0.4472907821321695 13.30586298695757 136083.16243258564 7.685873408132897
0.4627051689163484 13.258426927601999 117134.5212312719 8.033480957903098
0.478422101946812 13.216364192197615 101027.80706127436 8.394148686241797
0.49444071103907555 13.179259248105396 86382.03347021026 8.768365105019209
0.5107607866497729 13.146610042370519 75552.55925083724 9.15663910080977
0.5273819244675819 13.118019649626174 65512.163219774906 9.559500797340649
0.5443022803321494 13.093137406570433 56893.2254464422 9.977502463937087
0.561521458650292 13.071607586533501 49490.87834376363 10.411219473232357
0.5790350987939282 13.05317069258974 43118.30859545699 10.861251311774243
0.5968436976231775 13.03752083485523 37295.26858452048 11.328222647566783
0.6149461255528057 13.024400888279812 32870.46110962186 11.812784459028014
0.6333378188893022 13.013592599795544 28759.497248479267 12.315615230327731
0.652015565784889 13.004897236112607 25196.420651114564 12.837409527647173
0.670978285968948 12.998107979403988 22104.774167247553 13.378835166292921
0.6902232874919683 12.99303655733829 19415.03735117159 13.94073677589159
0.7097421498657124 12.98951674199432 17075.489880527344 14.523917249035273
0.7295350276069756 12.987402128154313 15034.096812440706 15.129214300212594
0.7495940810575384 12.986543801760764 13252.564441656763 15.757502203215306
0.7699170219218083 12.98680339091288 11695.49700355178 16.409693646736656
0.7904964361335335 12.98807685263358 10332.529762907667 17.086741718537713
0.811329335359722 12.990216665973627 9138.672902417698 17.7896420294604
0.8324058648612673 12.993127465860244 8090.432086486816 18.519434989520075
0.853722346048324 12.996701026184343 7170.739518242791 19.27720824932815
0.875269007139514 13.000837372156221 6361.265456212082 20.064099321172197
0.8970372670682653 13.00544320441396 5649.236660138223 20.88127759889155
0.9190255126169621 13.01044151359741 5021.476459238539 21.7299804190259
0.9412196384338776 13.01573052129335 4467.816087303386 22.611556764606444
0.9635877277080747 13.02122246675316 3979.641984730223 23.527960237596474
0.9837449535327135 13.02440642283426 3586.5798080396103 24.519640017696258
1.000658813666503 13.022085576494899 3279.6272705793754 25.614463487230307
1.0149920234348182 13.013776949892453 3029.475040904132 26.813702365247245
1.0272871603202594 12.999631612532324 2818.2227629671715 28.118223100117916
1.0379531448870156 12.979862574346688 2635.1285103256696 29.52889702798698
1.047335295476842 12.954898032923197 2471.680037183993 31.04677559999943
1.0557169922300271 12.925092196844714 2323.2319757625232 32.673208611872276
1.0632930378909924 12.890699734714207 2186.4900390562243 34.40991899544997
1.0702712954366478 12.852119677462058 2058.161258632266 36.25844359015022
1.0768074543168735 12.809606562305495 1936.9918558202398 38.22149084543078
1.0830316145327865 12.763481242496418 1821.5780100860475 40.30066558704792
1.0890529109074174 12.713987231364372 1711.1874592228664 42.49901256905653
1.0949825895582248 12.661483747285892 1605.15912142452 44.82019423673774
1.1008737840803045 12.606208521232256 1503.1706937408405 47.268385344500174
1.1067838210023735 12.548374435591326 1405.4792621621252 49.848204249958435
1.1127730771431243 12.488307713036885 1311.4077037599995 52.564753997016105
1.1188809005881628 12.426198184088497 1221.6284603642707 55.423134787325836
1.1251416576065325 12.36226240042795 1135.5920830823725 58.429294582170215
1.1315696111272913 12.296705844388686 1053.7716966798876 61.58953706310083
1.1381908741708864 12.229773904571395 976.1631651790838 64.9107781674443
1.144997476413136 12.16151296343034 902.5628279444466 68.3999062143863
1.1520312983746157 12.092295551746487 833.0308260339291 72.06485437949465
1.1592757349893832 12.02216101485432 767.7325300386232 75.91405996346325
1.166728213824631 11.951334343442738 706.3894456443089 79.95674683651316
1.1743697451625132 11.879910081764933 649.1053645316716 84.20380036689096
1.1821789263904556 11.808113409228719 595.9056048484019 88.66785414124205
1.190066084185795 11.736217273321452 546.7443814641908 93.37073287564141
1.1979979864523782 11.6640542774458 501.3763690298959 98.3221418060797
1.2062067474359883 11.59088576882426 458.82751975220305 103.49873672370603
1.2147353345847083 11.517224626586184 419.1263319306044 108.912656488037
1.2235618152407652 11.443487113607357 382.2714467161597 114.57742990863555
1.232676453177993 11.369831046556213 348.16892060090873 120.50771931620908
1.242036633387969 11.296460532320783 316.81305063757156 126.71980760770246
1.2516039965951355 11.223488815829572 288.06001455519356 133.2304027425598
1.2613321019302874 11.15103710837637 261.78415479335587 140.05736880076628
1.2711771544263866 11.079126775627119 237.83782831647088 147.22045485118025
1.2810942111815127 11.007832677988738 216.06409222985846 154.74049642705558
1.291027726178924 10.937109548973705 196.3442161016379 162.6406403775041
1.300936195520882 10.866999411619672 178.46034606658617 170.94426642537158
1.3107714665578012 10.797422244107235 162.28721178805853 179.67817992214162
1.3204854755643631 10.728400038220395 147.6712204463036 188.87045687804397
1.330031838180299 10.659830554666822 134.485005618444 198.55164249266252
1.3393707612430739 10.591729191797647 122.57218860609994 208.7539728546823
1.3484560910154526 10.523991165878757 111.84288209653315 219.51372800149517
1.3572471547247862 10.45658240082393 102.16746461728857 230.86904572456723
1.36570013297647 10.389426916899298 93.43732337484681 242.8615310529717
1.3737937229613535 10.322495735125385 85.55624166832237 255.53660712793783
1.3814745843163998 10.255695920368904 78.45306530161714 268.94264150728526
1.388714207348368 10.188974333469819 72.04032047816044 283.13335059342074
1.3954815091139399 10.122274431253173 66.25669897145386 298.1664246612168
1.4017414621904425 10.05552514612354 61.01658652881494 314.1048181388241
1.4074804950313093 9.988750335669199 56.29648035990409 331.01678915933053
1.41265735870261 9.921802272004788 52.02322399562024 348.9773036475573
1.4172513410494918 9.854717144890932 48.15598396170404 368.0680457614244
1.4212403838149668 9.787392687208175 44.65443832367832 388.3776833135129
1.4246009326067446 9.71990169502071 41.4797602949549 410.0042783403909
1.42732507203753 9.652081514833261 38.601402251418186 433.05427802227183
1.4293840863137062 9.583907539947047 35.98862125760516 457.6448737812917
1.4307741732772286 9.51549367062947 33.616948785854824 483.9045821768519
1.4314743417203 9.446693663280236 31.46483937888833 511.97461350887096
1.431475603293701 9.377567839381376 29.505404213581205 542.0103287644503
