M[M_sun], R[km], Lambda[1], P_c[MeV/fm^3]
0.2416277750616976 15.618515526848569 2160338.09801669 3.5677787854173952
0.25223836083091117 15.314133418182564 1768213.9889671674 3.759367130483361
0.2631448534564303 15.045935791819344 1454332.1545701406 3.9582774663157942
0.27434988071434063 14.808754934766043 1201549.11217392 4.16484499452296
0.28585095469207156 14.598552175413248 996917.5001668928 4.379363888254561
0.2976501838674394 14.411780599781602 815189.4378338546 4.6019857236105075
0.30974806821774503 14.245498153971795 694347.0715740235 4.833122603207905
0.32214175310805565 14.097297964593723 582557.6059125449 5.073071633172784
0.33483621768889243 13.964998900938568 490362.7148837133 5.322142703160695
0.3478304632425441 13.846779451536046 413995.6295085207 5.5805884476725645
0.3611255460545908 13.741124696974925 350520.9874041074 5.848811299924749
0.37471984319968443 13.646722064903594 297619.5947236512 6.127175111052651
0.38861730405289663 13.56227230773152 253355.47254174176 6.416046312910908
0.4028168922262563 13.486830942596042 216191.98033447002 6.715806733222222
0.41731823196673073 13.419508997119976 184902.15046367986 7.026854202969732
0.43212219781246214 13.359498049584186 158516.59608688593 7.349603194232186
0.44722862368547905 13.30604730951816 136164.50413343764 7.684485490096748
0.4626367154202547 13.25861414741838 117209.81413798982 8.031950888425738
0.4783487771533014 13.21655416386235 101093.99138186172 8.39246794142143
0.4943637362873521 13.179422218898683 87351.69791191579 8.766524733132117
0.5106772253610969 13.146765664433065 75609.79660488927 9.154629697270812
0.5272915598103035 13.118178216854316 65561.39660013965 9.557312477979549
0.5442081315569338 13.093273043294918 56401.11787389677 9.975124836466394
0.5614186788273362 13.07175219856304 49531.74834062356 10.408641606773445
0.5789277638738007 13.053273285043124 43156.04431516479 10.858461704298135
0.5967289171446902 13.037617972766238 37653.904421010295 11.325209191095691
0.6148250193153356 13.024484483121935 32899.55825762144 11.80953440243188
0.6332106562544791 13.013659461161922 28785.170969597442 12.312115139538115
0.6518817203049645 13.004949151250868 25221.90425892235 12.833619263962765
0.6708389301671152 12.998135428508885 22125.734292672783 13.37476410227457
0.690075399421451 12.993054424928431 19434.885792450143 13.936369091527224
0.7095879002565744 12.989536527948918 17091.598642803554 14.519236249747943
0.7293729043245311 12.98741474790585 15049.69650146055 15.124202360826756
0.7494248670876847 12.986544807134026 13266.61110907383 15.752140707936368
0.7697404933488288 12.986793088113881 11708.182072975747 16.40396292484367
0.790313970637765 12.988051032711232 10344.097175097775 17.08062097546503
0.8111378741208102 12.990193504691428 9149.036303446237 17.783109272917194
0.8322088351086073 12.993094064776702 8100.747208601434 18.512466950269022
0.8535148785604808 12.996652896607793 7179.083206531938 19.269780296212527
0.875054112478687 13.000798479191603 6368.758428259033 20.05617711332883
0.8968168067477139 13.005396840662193 5656.086565791416 20.872797691118638
0.9187960107466943 13.010388367431108 5027.7290071803955 21.720954812695247
0.9409820126134375 13.015665026626051 4473.48804196819 22.60195428316312
0.9633649814429917 13.021174270769023 3984.366764100122 23.517164462752742
0.9859381575655325 13.02681689390077 3551.6743184716497 24.468020041209602
1.008689009218956 13.032536980269077 3169.0823828709767 25.4560261040684
1.0316074123390178 13.038248199515388 2830.023558855622 26.482762515027385
1.0546825551322725 13.043899982168618 2529.4799725740227 27.549888640516098
1.0779039352030928 13.049422165142902 2263.067458490505 28.65905608013165
1.1012583820613926 13.054753500802306 2026.272325634686 29.812125283410182
1.1247329297501354 13.059828128763785 1815.784260938801 31.01104799852095
1.1483152083533772 13.06458583862658 1628.6670220467352 32.257851921707804
1.1719924905905075 13.068989759524912 1461.9627848577095 33.5546738036215
1.1957495809457783 13.072967664226821 1313.5383893287883 34.9037668930105
1.2195725881494301 13.076479594705486 1181.0970079462677 36.307473864047374
1.2434445453364555 13.079480075560209 1062.9012812877397 37.767912131848284
1.267352474634366 13.08189267737418 957.2311911585803 39.28808728953245
1.2912781182085804 13.08370101616671 862.8450494629209 40.87079908642163
1.31520547229325 13.084837292260035 778.3750168302633 42.518535033369645
1.3391170572598898 13.085271367898873 702.7360757879514 44.234613732496925
1.3629972918608861 13.0849512989198 634.9855571237658 46.02238656802319
1.386825081600069 13.083840804587533 574.2442535735952 47.88475999828905
1.4105859515857233 13.08189241962392 519.6904899027681 49.82596566914173
1.4342571446956058 13.079066016792126 470.73449283330484 51.84914283637701
1.4578211620262644 13.075331622807987 426.6903033752961 53.95881975506298
1.4812589467615291 13.070641040475344 387.1074350133266 56.15913753255037
1.5045486862631976 13.06495859267026 351.4728176233309 58.45422910325915
1.5276716415214011 13.058254891117954 319.38716294057605 60.849306148570236
1.5506065791074573 13.050484308134138 290.4820681001037 63.34934810691222
1.5733322819993953 13.041624404760677 264.3878889153468 65.95965525997126
1.595826251764709 13.031626264159298 240.83769886620064 68.68587467611965
1.618064882377889 13.020460374071424 219.558656302659 71.5340283582856
1.640039342067444 13.00812191313584 200.32892307206345 74.51054379887543
1.6617114235898671 12.994548243705866 182.93099830517747 77.6222871671512
1.6830653369824575 12.979716819938174 167.20654596046168 80.87659937989376
1.704078568993911 12.9636014063951 152.9509181010707 84.28133533461542
1.7247296736382383 12.946171391594453 140.01962830336396 87.84479035094529
1.7449909493169424 12.927406534193777 128.294850822291 91.57522698226647
1.764848106471182 12.907265094965565 117.67424053367469 95.48297771289195
1.7842693478408103 12.885735301492447 108.00490374478136 99.57705040048221
1.8032045076488876 12.862801705611142 99.244052532231 103.87225991254653
1.8200326861978484 12.8383645405195 91.79455084558374 108.5126021220793
1.8338844167033155 12.810835985366124 85.60655470894389 113.59068317169697
1.844927208354738 12.779285419935432 80.38279809309559 119.13019108296936
1.8534066609802884 12.7434046362146 75.9056615469481 125.1563865994071
1.8595563616921322 12.703058919941563 72.01218827942569 131.69640060077285
1.8636043180217157 12.658301914324804 68.5828929730822 138.77979673579432
1.8657351198555117 12.609119598090802 65.52410283152004 146.43848829112645
1.866139583711987 12.555750085212315 62.769628601854805 154.70733577396604
