M[M_sun], R[km], Lambda[1], P_c[MeV/fm^3]
0.2416277750616976 15.618515526848569 2160338.09801669 3.5677787854173952
0.252240610966807 15.31407945787763 1768025.298330484 3.7594093949089102
0.26315002569522655 15.04582362154035 1454137.2504903248 3.958364815941187
0.27435679917591416 14.80861811544775 1201416.4229294837 4.164981450732471
0.28586115520666294 14.598370246980485 996845.4091615287 4.379551759784323
0.29766235322318607 14.411596899610563 830352.3384332575 4.602230097206623
0.3097619856337588 14.24533262165496 694217.0094411903 4.83342764237842
0.3221608672325944 14.097108124439533 582417.5708014825 5.073441692340041
0.33485805687356107 13.964790932462094 490182.186545217 5.3225823377374715
0.3478551733578967 13.846638925083804 413871.8262926672 5.581098403375905
0.36115202526194595 13.740964565355258 350407.8295104043 5.849399989751505
0.37475279901088937 13.64647887961967 297512.5207798468 6.127847727314503
0.3886544255368999 13.56204504449362 253251.70505109202 6.416808295124253
0.40285669777320815 13.48664059056823 216094.28641857198 6.716663781756221
0.4173621002916343 13.419317581823886 184813.9654362523 7.027812293569528
0.43217056692003664 13.359295588415467 158434.2699091153 7.350668593479404
0.4472812064372928 13.305894834344961 136091.58443907255 7.685664771874961
0.46269517611348837 13.258443940773175 117147.64327624597 8.033250951463756
0.47841114641589616 13.216389738821196 101038.05697167155 8.393896027993051
0.49442892076397116 13.179286089781364 87301.97858779834 8.76808844899741
0.5107485804894002 13.146629266552962 75558.81390632899 9.156337032949827
0.5273680116804189 13.118045071539363 65518.76013345328 9.559171831456998
0.5442877505627267 13.09317762333959 56900.248909381786 9.977145037432699
0.5615053200572195 13.071634248140542 49497.878374766 10.410831942515541
0.5790190157147294 13.053206826363398 43124.50590500197 10.860831947361948
0.5968273495269326 13.037542148777826 37625.71419608193 11.327769628850957
0.614928069954677 13.024424702428746 32875.276584656 11.812295868680355
0.6333186465119266 13.013602841422081 28762.927128001735 12.315089048315764
0.6519966860017685 13.004918074393109 24999.955250310377 12.83683971877636
0.670958062206677 12.998111439750794 22107.732142395453 13.378223139497821
0.6902005818431757 12.99302820902673 19417.247951691217 13.940080152320984
0.7097195162042733 12.989512405085277 17076.280310114897 14.523213518312469
0.7295096965772669 12.98741039958949 15036.306586960281 15.128460812007683
0.7495693558706307 12.986534692394336 13161.855500362904 15.756696158217721
0.7698905436214875 12.98679692362368 11617.116500320879 16.408832086982645
0.7904703935100791 12.9880699924266 10265.437656350463 17.085821517044526
0.8113005491750929 12.990213085476801 9140.207594488425 17.788659879113638
0.8323759680541517 12.993121720273955 8039.904850309473 18.51838739115781
0.8536916144797088 12.996683589677893 7171.872868801441 19.27609149895995
0.8752357335729408 13.00083166039705 6362.3680845255385 20.062909496265373
0.8970057191995544 13.00543859090861 5650.29867329834 20.880002675693866
0.9189910093723702 13.010425726934411 5022.364396977683 21.72862344341059
0.9411840879765733 13.01572473321377 4468.7399158738335 22.610113048147806
0.9635742568433967 13.021221328411821 3980.108592655288 23.525841460754105
0.9861526165620159 13.026882804873837 3547.7524004339525 24.477245092628255
1.0089100909236561 13.032598409687402 3165.30251543196 25.465830870345904
1.0318299019958062 13.038328052262846 2826.7130782696777 26.49318062706771
1.0549170096993066 13.043957501834639 2526.558103135267 27.560918831996815
1.0781447522692378 13.049484642328345 2260.493824683386 28.670743975389883
1.1015067953013882 13.054806552929458 2023.9979017838007 29.824537363231325
1.124986773000254 13.059877076842467 1813.86560330278 31.024227114685086
1.1485733429466936 13.064639808258205 1626.633731644779 32.27184369302948
1.1722582633631902 13.069033731319783 1460.2100434512793 33.569526816156866
1.1960219857543624 13.073011243413587 1311.9433884825148 34.91953291613757
1.2198498594704594 13.07652219078219 1179.5537728318673 36.32412102436353
1.243727965227338 13.07950658788643 1061.5636871498875 37.78558207020731
1.2676410745514934 13.081919593096279 956.0114940564464 39.30684259351142
1.2915716780341076 13.083717458908199 861.7408037822179 40.890706566593124
1.3155041412442874 13.084852746826266 777.3953973899474 42.539562434376364
1.339421478252718 13.08527021995478 701.8341580232074 44.25693579114682
1.3633061062228413 13.084943356611817 634.1618016588576 46.04597241427605
1.3871391668168527 13.083821641460034 573.4795733787408 47.90980304943224
1.4109029212738844 13.081860610265844 518.989036899956 49.85243719268733
1.4345777898262322 13.079022608937908 470.10701416943726 51.877257356718445
1.4581452287281342 13.075274075419227 426.1181883690311 53.98855158793768
1.4815863906857158 13.070570735654492 386.5715153265362 56.19072513896588
1.5048790138526467 13.064870626945762 350.99097165073596 58.48765095130853
1.5280044903280894 13.058148324582842 318.9550846100731 60.88468025704602
1.5509421206317682 13.050362558174555 290.0642117489336 63.386801066767774
1.5736691250076493 13.041481446976027 264.0175538053777 65.99932292226815
1.5961649790475338 13.03146653457241 240.50287315728286 68.727902901676
1.6184030095538389 13.02027970476645 219.25028582146257 71.57857383518018
1.6403782712133337 13.007921039844035 200.04929871207142 74.55777493464251
1.6620503372391269 12.994321728377516 182.66970714228972 77.67238506324101
1.6834041439463614 12.97946876134232 166.96905369324222 80.92975889682162
1.7044162011114063 12.963330008488526 152.73012443744958 84.33776625715772
1.7250645896603196 12.945875884768924 139.81576624979635 87.90451754421144
1.7453260769697285 12.927080340302886 128.1223271664162 91.63868703131861
1.7651779856388043 12.906916894370413 117.49818529347569 95.55023750822656
1.7845973936292212 12.88535638137132 107.84959736438093 99.64856010836304
1.8035615753427559 12.862378702715503 99.089557078314 103.94491781421156
1.822046893374277 12.8379544986888 91.12046248573257 108.45083945940277
1.840031613184076 12.812070917419147 83.86683940143284 113.17852296181798
1.8574921506601938 12.784694568327401 77.25997495540976 118.14108552935353
1.8744073599697426 12.755814569209983 71.23885898780544 123.35275276893732
1.8905441690582587 12.725528024051355 65.80826943176203 128.85321180851878
1.9029088639088159 12.694301337228278 61.544725205111995 135.0209108897281
1.9106577931714148 12.659397550179103 58.308976725107975 142.00812880042534
1.914302239852418 12.61942633981001 55.806383331737344 149.85024151433444
1.9144509948360025 12.574113022530451 53.81825591313355 158.58345474357608
