M[M_sun], R[km], Lambda[1], P_c[MeV/fm^3]
0.2416277750616976 15.618515526848569 2160338.09801669 3.5677787854173952
0.2522419372752083 15.314037178729308 1768038.3606043574 3.7594366095972833
0.2631528159542897 15.04574730932327 1454143.7280549959 3.958421062381173
0.27436234200618254 14.808486324159185 1201195.7815034296 4.165069319158727
0.28586713290460103 14.598306120868342 996703.7613762883 4.379672737636025
0.29767061405774736 14.411496053120837 830250.0172877423 4.602387460904252
0.30977447128834773 14.245139753193174 694115.5241378319 4.8336240739046366
0.32217298409267536 14.096961292797943 582301.4949385364 5.073679996700974
0.33487359416116297 13.964623383778193 490090.967903796 5.322865449456057
0.3478719830956569 13.846481726355487 413787.0252470059 5.5814268035082995
0.36117225365713723 13.740794303008892 350317.7062717307 5.849779097310526
0.37477422829996193 13.64632177826791 297437.1038559627 6.12828088723651
0.38867864165137384 13.561897457820558 253182.9898971119 6.41729901164433
0.4028823920788225 13.48651211661439 216036.05845795095 6.717215727203726
0.4173907997959299 13.419213958019538 184755.11778608293 7.028429317727772
0.43220217388655213 13.359179783289441 158388.95628205693 7.351354733549626
0.44731564784959593 13.305757719750364 134479.84418578268 7.686424263087958
0.46273107935771945 13.25833131915393 117095.6323497952 8.034088238386277
0.478450147268623 13.216301300209345 100998.15211356082 8.394815776579808
0.4944712774862762 13.17919390015825 87265.81291707244 8.769095559443072
0.5107939411076725 13.146548826358147 75530.25828641972 9.1574366534003
0.527416756167368 13.117988898324954 65492.287462770044 9.560369372642889
0.5443399703784749 13.093105764936526 56876.8213319888 9.978446188293256
0.561559401314716 13.071602116396491 49473.212545186 10.412242686886104
0.5790778870529237 13.053129366615885 43105.87670343217 10.86235858180345
0.5968888270549874 13.037505629560336 37608.77884948556 11.329418781706073
0.6149935925841887 13.024367045361256 32859.599067622265 11.81407452044649
0.6333885715764808 13.013579846240837 28749.279197084743 12.317004553432941
0.6520697226824379 13.004877229733378 24987.54656935445 12.838914049360708
0.671034531737637 12.998089074605334 22096.201437723426 13.380451166618316
0.690281356387074 12.993015923848354 19408.824714027833 13.942470536878856
0.7098031639789115 12.989510154225064 17068.465547803396 14.525775400095053
0.7295982450112192 12.98738824890606 15027.967463569303 15.131203840375692
0.7496612651920259 12.986548019278828 13247.23447225516 15.75963052497626
0.7699875038543356 12.986805855995799 11690.939185434116 16.41196856160058
0.7905710885033335 12.98807681536544 10259.279767121932 17.089171484399884
0.8114052728422259 12.99022027715776 9134.522675497185 17.792235379956743
0.8324853143448828 12.993128037447928 8086.66700430949 18.522201165500682
0.8538028787778368 12.996722153574364 7167.3745096358925 19.280157032616145
0.8753539248234642 13.00085890051359 6358.392336163531 20.06724107078519
0.8971272779609432 13.005457540107322 5646.593830942727 20.88464406776994
0.9191165246358328 13.010463442483744 5019.0515187533365 21.733563564190533
0.9413138592045588 13.015756383715955 4465.642799001418 22.615368967917522
0.963707514633219 13.021254093718003 3977.454447209777 23.53143128799561
0.986291360384231 13.026905870858911 3545.313937942363 24.48318804560834
1.0090539026049397 13.032630587073253 3163.119657970561 25.472147354091195
1.031977265231776 13.038356877622835 2824.6767757574207 26.499892316167152
1.055067991160681 13.044000311945052 2524.9323256442403 27.568008020513084
1.0783001647073107 13.04951918343392 2258.8312679868914 28.67827384986237
1.1016650714432579 13.05484287717355 2022.442834589131 29.832533878273797
1.1251499318617981 13.059911613461626 1812.2690532199356 31.032717889068046
1.1487426313602986 13.064675024568492 1625.4160729095188 32.28085812935862
1.172429845269595 13.069062166651326 1459.1355874927792 33.57909622997442
1.1961972410394655 13.073037596975242 1310.918058243606 34.929690675261675
1.2200284912294812 13.076545519592404 1178.6930001181959 36.3348465867866
1.243911147166385 13.0795303551784 1060.7075817531363 37.796966728971505
1.2678278426724545 13.081932433973499 955.2524580749159 39.31892669107004
1.291761658913452 13.083732006640014 860.9887751198279 40.90353316814139
1.3156968592650027 13.08486059485725 776.7043148113164 42.553110750018554
1.339618088770873 13.085269517894002 701.251460778932 44.27131845350494
1.363503783753172 13.084941057926276 633.6176237951485 46.06116952547259
1.3873403080346933 13.083808547663399 572.9847956111239 47.92593928772187
1.4111066814568827 13.081839533037884 518.5492987062206 49.86949403713658
1.434784436634551 13.078994360593107 469.70151905318335 51.895373096485905
1.4583549131034523 13.07523651895938 425.7677630656762 54.00790946045717
1.478742652365093 13.06878458596561 390.48426655088906 56.324113734888364
1.4933948218217823 13.055514033676998 364.8135283618064 58.972126863254964
1.5034735504900285 13.034547625457154 345.2864598606379 61.9562435935455
1.509925979935063 13.006112646055422 329.7308436462068 65.28028506392114
1.5134740378463576 12.970646370548993 316.87660309813924 68.94918917823887
1.5146552303749659 12.92845414185623 305.9071657378941 72.96799545692436
