M[M_sun], R[km], Lambda[1], P_c[MeV/fm^3]
0.2416277750616976 15.618515526848569 2160338.09801669 3.5677787854173952
0.2522410683833285 15.314088409828079 1768084.3141053014 3.759417906860409
0.2631510591143042 15.045772646753647 1454169.4954962593 3.9583824081069148
0.27435839053225924 14.808591649730339 1201297.9773357804 4.165008933193544
0.2858634735301911 14.598331530278005 996783.0443711563 4.379589597699637
0.2976649338618971 14.411572125668398 830338.4960013048 4.602279315260516
0.30976525535414406 14.245302964305367 694212.0838364612 4.833489079328496
0.32216495116376653 14.097057660527582 582386.1791625299 5.07351622541439
0.33486448683193887 13.964701267544333 490146.9778702445 5.322670884665095
0.3478606936844861 13.84658459987742 413847.889190936 5.581201114543032
0.36115908872133723 13.740900960753192 350384.594596224 5.849518559917297
0.3747593673032212 13.64646732923981 297479.5688261003 6.12798320254748
0.3886621696914478 13.561984558502106 253229.48417513617 6.416961771306819
0.40286480784056206 13.48661907829505 216078.7092951345 6.716836407334984
0.417370736178901 13.41930927036619 184795.7155135956 7.028005272482019
0.43217930961162926 13.35927450570813 158420.19528878023 7.3508831882698695
0.44729224430232356 13.305858240546003 136085.21115836618 7.685902307012509
0.4627067232389825 13.258395346256487 117131.25877100193 8.033512816877852
0.4784234464961488 13.21636192471792 101019.57254508165 8.39418368284213
0.4944422071611756 13.179257371521642 87289.96420793993 8.76840342568761
0.5107625530617408 13.146613906419331 75551.79248201937 9.156680941422335
0.527383725125668 13.118038380143512 65510.98885150005 9.55954636376393
0.5443033824240515 13.093157902808354 56892.11025164929 9.977551972622479
0.561522209520512 13.071618289043993 49493.038196248875 10.41127315185096
0.5790373778377317 13.053168379926246 43118.89711350267 10.861309399895168
0.5968471843239384 13.037511071319406 37620.05590145616 11.328285397382249
0.6149486605621656 13.024404523726513 32870.0144851894 11.812852136128349
0.6333405201039918 13.013591428513681 28758.16794080459 12.315688114530277
0.6520187629152401 13.004902207017405 25197.588920532886 12.837488454945706
0.670981927053257 12.99810506320402 22104.87739163884 13.37891994153084
0.6902241335914518 12.993042659043706 19413.620350663765 13.940827728591762
0.7097455743655967 12.989520999136614 17074.84203269015 14.524014726940239
0.7295383611971098 12.987394555177183 15033.7064401793 15.12931867045196
0.7495976264707175 12.986550087361989 13252.524522215437 15.757613853556437
0.769921205499177 12.98681592678517 11695.67412083497 16.409812986924457
0.7905021863820975 12.988057788236638 10332.386008602647 17.086869181730773
0.8113333226204249 12.990217160957064 9138.460325105178 17.789778073770165
0.83241009435133 12.993132605935848 8090.241706609636 18.519580099661813
0.8537270948711867 12.996688374018351 7170.656017000192 19.277362938391327
0.8752733772374807 13.000839451892585 6361.202947358564 20.064264132520417
0.8970419529411594 13.00545095238225 5649.078493033171 20.881454198089003
0.9190302443456501 13.010430864168027 5021.383545841362 21.73016838416152
0.9412245910264663 13.015727725719943 4467.782424224032 22.611756745141058
0.9636165513052459 13.021237842163593 3979.3219280383496 23.52758957650138
0.9861965518615082 13.026883712338723 3547.1089756671927 24.47910363664901
1.0089542458961103 13.032601696040912 3164.571946590012 25.46780622323467
1.031876513785781 13.038330099136537 2826.0535548501844 26.495279566383125
1.0549637701969161 13.043973872546264 2526.1875826979135 27.563135820959417
1.078193325385823 13.049491747416674 2259.989089254017 28.67309877235552
1.1015550161540655 13.054815704155185 2023.4163033090042 29.827038084020383
1.1250381331112833 13.059889201122335 1813.2218597407877 31.026882395454457
1.1486280339692345 13.06465373143875 1626.297867387161 32.27466272768992
1.1723122384132707 13.069045032753161 1459.87964114523 33.57251939673683
1.196076889061879 13.073018439679007 1311.626364506884 34.922709476347165
1.2199061014597479 13.076531886700463 1179.2563526305837 36.32747514080619
1.2437848686529656 13.079512211879477 1061.2915636141693 37.789142289206346
1.2676993808092079 13.081920715650092 955.7647209439854 39.310621529509305
1.2916310534183872 13.083725143482216 861.468902857873 40.89471768533161
1.315564274656204 13.084852923233802 777.203225602696 42.54379923509031
1.3394824900882107 13.085276563891606 701.5894692556243 44.26143349214044
1.3633682625101238 13.084941801316047 633.9946203083409 46.050724793782024
1.3872019620148888 13.08381450136735 573.3307830426501 47.91484909184107
1.4109662041139985 13.08185202278356 518.8643295359508 49.85777110685354
1.4346425066597224 13.079013631257565 469.972622506998 51.88292238245981
1.458209761860268 13.075263654493892 425.9704418974751 53.99454254830253
1.4816516792964143 13.070556464387275 386.4776002512555 56.19709009979712
1.5049456126295053 13.06485414043663 350.896978222789 58.49438557243224
1.5280716183436185 13.058126322269672 318.8645878980909 60.89180832736525
1.5510100694130626 13.050337181924391 289.9847680768862 63.394348103407324
1.5737369487439856 13.041455242391493 263.94317568726814 66.00731630930127
1.5962348127296646 13.031432740267206 240.42393509263775 68.73637204129535
1.6184716072179206 13.020242882618346 219.1842913223496 71.5875503125561
1.6404463778122678 13.00787893033729 199.9838955367551 74.56729269784623
1.6621191394135117 12.994276725874517 182.61746959670054 77.68248061976182
1.6834723804212985 12.979418504766755 166.91823353882975 80.94047152837675
1.7044843451881693 12.963272057175386 152.67639924378685 84.34913825468381
1.7251324586446781 12.945817432779721 139.77695350416215 87.91655391842224
1.7453923524176678 12.927014544295334 128.08192142163378 91.65147579762272
1.7652440498122184 12.906845671581001 117.45926248225004 95.56378829258482
1.7846639091451375 12.885282802535095 107.82037686765156 99.6629713812687
1.803626268754381 12.862296702207455 99.06006325246686 103.96020480158354
1.8221109381911784 12.837866950345218 91.09136159593888 108.4670652909616
1.840093923896904 12.811977640031008 83.83808631065727 113.19575585181661
1.8575546671332406 12.784592956719909 77.23904051967894 118.15942041656088
1.87446841373377 12.755706219187243 71.21906876986607 123.37222710787239
1.8908126926654156 12.725285425789542 65.73794795062413 128.84945944902736
1.9065662838915833 12.69332029944425 60.731922703999345 134.60761640780586
1.9217071702354638 12.65979147166866 56.16201284509308 140.66452226524632
1.9362146242552651 12.624684444908473 51.9882987204925 147.03834983770355
1.9500570798292651 12.58796129369241 48.17139053898204 153.75038893521
1.9632313327357533 12.549654122542654 44.68323820596673 160.82204637941607
1.975715406636575 12.50975522584883 41.491503180274314 168.2771860288541
1.9874756628260803 12.468201268569857 38.565954357028296 176.14162793434826
1.9984979630996582 12.425011185071812 35.88777916509165 184.44314608717718
2.0082985303611376 12.38102692158739 33.50980004308729 193.3373901861661
2.013719438513715 12.33800671174185 31.76869201922711 203.61090832680094
2.0143784040074233 12.292724699051423 30.548082018235434 215.46939023772674
