M[M_sun], R[km], Lambda[1], P_c[MeV/fm^3]
0.2416277750616976 15.618515526848569 2160338.09801669 3.5677787854173952
0.2522430180024316 15.314027706913688 1768038.237453408 3.7594548791833127
0.2631546030775599 15.045711859154867 1454070.0909974703 3.9584588216908423
0.27436569717176934 14.808434527232079 1201193.129838993 4.165128307405507
0.2858721673691984 14.598216474392993 996655.9486452894 4.379753953713794
0.2976760285626232 14.411398976294295 830183.8749264067 4.602493104752996
0.3097794386447138 14.245122924440485 694034.1386062166 4.833755946431695
0.3221811398814248 14.096862625482549 582242.8888804916 5.0738399814410355
0.3348825598606835 13.964606199461395 490052.1918211034 5.32305551693237
0.3478832301735927 13.84638800474524 413734.03909517574 5.581647277046286
0.3611859575808911 13.740673620580198 350292.85523827234 5.850033615539809
0.3747862757982131 13.646272488217432 297383.6140662736 6.1285716963304955
0.38869437214057506 13.56179790164341 253138.33923850913 6.417628464768461
0.40289970349359383 13.4864275267255 215988.74973390644 6.717586290423386
0.4174097607739553 13.419115597154931 184720.19034892373 7.028843576295102
0.4322227498794377 13.35909699349913 158354.82416675004 7.351815398596245
0.44733726593411727 13.305704791540888 136017.66318749593 7.686934178752779
0.4627529356090239 13.258309071047872 117071.03364944576 8.034650389410105
0.478477518323848 13.216224369935892 100973.79585208639 8.395433296400721
0.49450076433062207 13.179123099835659 87243.4369870405 8.769771738829391
0.5108237220647224 13.14651165093118 75509.71838603623 9.15817494966059
0.5274492858231614 13.117921547453507 65474.87378541039 9.56117341945569
0.5443763317103404 13.093026569660662 56860.15396463702 9.979319806202092
0.5615971049508379 13.071554795547364 49460.862251055005 10.413189894509072
0.5791172554856162 13.053115110345216 43091.93112936606 10.863383607810029
0.5969309355884703 13.037468497719509 37595.59416548799 11.330526077617806
0.6150375226192417 13.024338894349563 32848.9705531955 11.815268774322867
0.6334349550560928 13.013554025427467 28738.383078797135 12.318290704507307
0.6521187841626209 13.004858913183 25179.62164338367 12.84029968027535
0.6700300403237732 12.997656295622733 22238.34675215158 13.394250521667045
0.6836800912311388 12.987234317558904 20190.67906879195 14.026418708592578
0.6939710751169395 12.970738936356039 18683.132863848987 14.741945515264794
0.701826510717324 12.947706527069291 17502.450949801118 15.540483068810179
0.7079189451464601 12.918215580577739 16521.464097679454 16.421204658734325
0.7127168989598709 12.882565705766233 15669.970487019773 17.38290715883425
0.7165945894473291 12.84110054201634 14897.739779447089 18.42470595579846
0.7198298927980558 12.794089240270178 14172.883374090203 19.545813165607758
0.7226514525647934 12.741847178823102 13477.699630626545 20.745224885300388
0.7252679990046732 12.684753217763458 12794.701284558065 22.02301937422756
0.7277872987544308 12.623103500548517 12120.24543547636 23.380235741065437
0.7303436608120419 12.557295530827082 11450.139649606612 24.817287989771224
0.7330248125395193 12.487679921102567 10782.133695829587 26.336080625915507
0.7359119219178808 12.414579448240975 10119.606599823248 27.937680638426922
0.7390864213447537 12.33845246157936 9463.089640654916 29.624626593228275
0.7425894587086247 12.259454421901465 8815.540317356877 31.397889085517303
0.7464875766380455 12.178182787982168 8179.749976374332 33.260480438511145
0.7508020152250112 12.094970179496922 7560.55676605298 35.215097245898995
0.7555707874029011 12.010195148412679 6962.1950927642365 37.264697113897455
0.7608049004947699 11.924188233104854 6387.985015851121 39.41282639390005
0.7665233771194162 11.837457602745344 5841.173391122602 41.66388121134773
0.7727064617258576 11.750350986058308 5324.217846128616 44.02333848855399
0.7793056824708715 11.663453301369 4841.487261734217 46.499509322644954
0.7861668989515666 11.577388775636308 4398.613482377656 49.110221903917356
0.7934087234756242 11.49107607430075 3985.879512973244 51.84532062302344
0.8013431486991629 11.403659152958964 3594.648451734234 54.683453661180415
0.8100164657545204 11.316088937872843 3227.6275966894373 57.62774241526597
0.8194396311658863 11.229183602976105 2886.939599105318 60.683797323624
0.829598461146791 11.143499049278592 2574.058430187984 63.8570993522348
0.8404727121968548 11.059522466402344 2288.7971696522136 67.15322478007934
0.8520096962027717 10.977530806529762 2030.5386410351048 70.57825594626166
0.8641830573297431 10.897801180056893 1798.3583516498197 74.13779406366577
0.8769421614649291 10.820475408252982 1590.9614304434265 77.83925308316066
0.8902355427479202 10.745669671179435 1406.0906373411005 81.68971616149884
0.9040164046385574 10.673403483208672 1242.0251985092143 85.69672665836133
0.9182341055840065 10.603692888001126 1097.0651848188747 89.86775847799444
0.9328386558003355 10.536485526499265 969.2243311104935 94.21196341092885
0.9477727901115067 10.47171494097948 856.6536716290259 98.73833483833437
0.9629931785494832 10.409254291877879 757.5996138877795 103.45664282686836
0.9784496551721565 10.349059540260775 670.5507891666961 108.37633241611098
0.994088788614274 10.290904664591784 594.0624053756882 113.50952614075922
1.0098604743538218 10.234682552659358 526.9041281529182 118.86702490978057
1.0257347747223546 10.180317533568825 467.93451540514553 124.46192211441182
1.0416487815436384 10.127596759217646 416.08510660808827 130.30726729245964
1.057561788566978 10.07635039446664 370.5778832643298 136.41725042445552
1.073439515007685 10.02645356602546 330.5325328086031 142.8072635604738
1.0892359601504369 9.977809313080055 295.26072639951036 149.49359872536547
1.104909604294904 9.930207164078467 264.19469347706115 156.49339816819574
1.1204165622942532 9.883479274726241 236.76507380047764 163.8255833284008
1.1357288909223837 9.837574536080727 212.54012885324096 171.51028711860624
1.1508103492386839 9.792320629710195 191.11134425151042 179.56899374508947
1.1656219326950388 9.747591011898999 172.15125549246576 188.0250130139992
1.1801269462854476 9.703281565419868 155.32411467342496 196.902432163043
1.1942984334119926 9.659243726676703 140.39453080632634 206.22891222964978
1.2081028781559 9.615403871373 127.11500463383403 216.0328776773562
1.221508967185399 9.571758687729707 115.3094195092884 226.34526270989477
1.234486582727839 9.52797089212982 104.76315155052703 237.19972360096483
1.247018352406369 9.484122177473987 95.35820317262082 248.6324926623995
1.25906427273937 9.440088234267423 86.94364155063037 260.68247932134557
1.2706023109795954 9.395770454431105 79.41588513021415 273.3918544897369
1.2816191301557092 9.351146063397909 72.662979762996 286.8064350491109
1.2920756330887253 9.306105135062644 66.608568482069 300.9756701278048
1.3019559332112813 9.260554455109885 61.15823727940644 315.95361668215463
1.3112458576229444 9.214581205521734 56.25364850683806 331.79839314470775
1.319917179562899 9.167975605540011 51.83426857134482 348.57328788116354
1.327960622289243 9.120759603532704 47.846531202028345 366.34751162141964
1.3353508052833778 9.072880213775264 44.24740417711009 385.19592378134774
1.3420771397883107 9.024296550707318 40.99136055031095 405.20054463322396
1.348120597307345 8.975048269968383 37.98611062216169 426.45060933799823
1.353472815144179 8.925006226817132 35.37067469983516 449.04376793519685
1.3581194895441744 8.874203368914856 32.94888117071695 473.0865192006478
1.3620525568674067 8.822601092781996 30.74756597454533 498.6957412388273
1.3652615988926027 8.770193191146834 28.74841646028184 525.9991292236099
1.3677308594859503 8.717028639244116 26.92706294413879 555.1377301368614
1.3694713648797872 8.66301895795489 25.2711679251815 586.2653086284046
1.3704706419127408 8.608218800461357 23.76621942250556 619.5515301190048
1.3707199573964444 8.552626220904616 22.36176159800598 655.1837315570493
