M[M_sun], R[km], Lambda[1], P_c[MeV/fm^3]
0.2416277750616976 15.618515526848569 2160338.09801669 3.5677787854173952
0.25224096971078147 15.31405348907818 1727238.7082476425 3.759412363891193
0.26315017914144495 15.045830612825023 1454280.61709646 3.9583709521103794
0.2743574201355949 14.808604134519063 1201330.5783559277 4.164991036639171
0.2858619889592303 14.598358474393887 996800.6048931285 4.379564957669631
0.2976632558070047 14.411607889719734 830344.2453081252 4.602247264473465
0.309763350805581 14.245303237893586 694216.6968066087 4.833449071577746
0.3221637202111403 14.097033615083921 582397.1629428294 5.0734676894405935
0.33486038289933323 13.9648139747891 490181.91604571586 5.322613222833916
0.3478576128546607 13.846604163118167 413870.4220786483 5.581134228915549
0.3611558409710376 13.740965733770938 350413.42658274196 5.849441346853757
0.37475499003444435 13.646457726010063 297485.5540195421 6.1278949808363965
0.38865743793620694 13.562010200936335 253243.14640434826 6.416861827296975
0.4028595047746741 13.486633995867304 216093.76568974325 6.7167239931443055
0.41736536467481794 13.419309617287599 182515.48416077896 7.027879604091661
0.43217394176498053 13.35928126023443 158427.8754733195 7.350743443495132
0.4472848801859027 13.305861982977245 136093.75556023998 7.685747623341988
0.46269900622932814 13.258420083519594 117141.50574962876 8.033342289171031
0.47841447403132137 13.216410788724545 101025.41694243051 8.393996360875224
0.49443354736407213 13.179276049409324 87297.97455803835 8.768198311536377
0.5107529452217564 13.1466308651182 75557.4821463655 9.156456986670111
0.5273731214012958 13.118039443695789 65515.08710174052 9.559302466521753
0.5442935959648615 13.093148242284459 56897.57748045445 9.977286974347455
0.5615114914642604 13.071638765120268 49495.84526655109 10.410985833948338
0.5790254000020674 13.053180097569701 43122.607264141916 10.860998480087595
0.5968338368777667 13.037525048458994 37623.99889536965 11.327949525829316
0.6149351665505274 13.02440400993828 32873.7728428167 11.812489891278199
0.6333262800625027 13.013598160091593 28761.16698645547 12.315297998682857
0.652003723242139 13.004915511688894 25200.261878311117 12.83706599348651
0.6709659972153313 12.998111684392997 22106.229529754633 13.378466179050456
0.6902085780294136 12.99304214747826 19416.08620679962 13.940340901349632
0.7097288927822311 12.989504252992091 17076.145110185447 14.523492973678183
0.7295204647372179 12.987403539888085 15035.919735312653 15.128760026145724
0.7495798027129698 12.986537411170255 13160.797786810199 15.757016242722036
0.7699002569715104 12.986808290792965 11697.022277405295 16.409174216446836
0.7904812369545807 12.988070135805179 10264.75333874557 17.08618693317796
0.8113119805191613 12.990214507884145 9139.598144933638 17.78904989515395
0.8323877133804645 12.993114574886059 8091.321837579154 18.518803396602696
0.8537040160501702 12.996690630872074 7171.461801218482 19.276534964642195
0.8752479507988921 13.000834383962738 6361.676598926793 20.06338197979841
0.8970187121856364 13.005433857637072 5649.9137614095425 20.880508951649883
0.9190048296781903 13.010425919852139 5021.988903304324 21.729162302270595
0.9411981145504089 13.015717464715351 4468.471489412806 22.61068635165158
0.963587892378282 13.021229781377539 3979.879238984163 23.526451183861766
0.986167930306038 13.026872579473242 3547.610914678491 24.477893331326506
1.0089252766710362 13.032594176825315 3165.048947639171 25.466519850041575
1.0318460062732773 13.0383244181248 2826.4192645854355 26.493912711617433
1.054933573575342 13.043961859021916 2526.4009140542016 27.56169209027827
1.0781625600408138 13.049485619285441 2260.3460497296433 28.67156529868118
1.101523112771526 13.05480976196329 2023.8120024071245 29.825409582135
1.1250045376855249 13.059879581571586 1813.695037133581 31.025153241281238
1.148593894638141 13.064647264764458 1626.554222047311 32.272826933925394
1.1722776561620696 13.069037884636494 1460.1018071699323 33.5705705865641
1.1960408017996593 13.073018416534328 1311.8306186352825 34.92064085506584
1.2198695162286701 13.076524747876272 1179.49331010267 36.32529089148077
1.2437481664044454 13.079513529246217 1061.4851428559334 37.78682382174701
1.2676613799551564 13.081921385961662 955.926750780335 39.30816062905105
1.291593109915496 13.083721477956264 861.6336599675099 40.89210558261416
1.3155252508711166 13.084854696164346 777.3128980771426 42.54104016357727
1.3394432510561163 13.085274309514082 701.7799962505467 44.258504516709756
1.363327753924322 13.08494133618257 634.1006388085151 46.04762996621459
1.3871608180609298 13.08381737055229 573.4307400079856 47.911563024397296
1.4109249451723165 13.081856666555575 518.9498005869469 49.85429757088937
1.434600827693383 13.079021464690513 470.0621892217781 51.87923321893649
1.4581676562724162 13.075270440985841 426.0773049989386 53.9906411286028
1.4816099761373704 13.070565642893483 386.5300859194837 56.19294512198263
1.5049028819243104 13.064865941891368 350.96149791850036 58.48999986295824
1.5280280992146305 13.058140379509087 318.92111154848374 60.88716639416617
1.5509656644223975 13.05035421850879 290.03509075298024 63.3894333289333
1.573692692967091 13.04147163328777 263.9967364933188 66.00211086017332
1.5961879560739425 13.031456101361861 240.4706641049078 68.73085676985481
1.6184268970922435 13.020265931648005 219.22718918948215 71.58170464950194
1.6404022425946767 13.007904973969634 200.02143195271657 74.56109453505971
1.6620725878495228 12.994307738007187 182.6489419950814 77.67590618232462
1.6834274232656554 12.97945197908694 166.9514057827436 80.933495234677
1.7044398619602725 12.963308679074917 152.70241104080122 84.34173256337668
1.7250881812847982 12.94585654758159 139.80278600479713 87.90871556642665
1.745350057479917 12.927056330418061 128.11191112351105 91.64314746608297
1.7652011017160558 12.906891874665913 117.48878275567782 95.55496371280614
1.784618900416886 12.88533138666114 107.8349251130672 99.65358642553898
1.8035837506012562 12.862351531740666 99.0800682442761 103.9502495543021
1.8220690351098674 12.837925141743444 91.10837173909492 108.45649863967452
1.8400536726208705 12.812038129499278 83.85318485243852 113.18453337278568
1.8575119952219201 12.784656566422191 77.24920258449099 118.14752327613161
1.8723082071992418 12.756296884724057 71.78648805533442 123.5860790453708
1.8823997577887004 12.724757133613496 67.64310184941549 129.7508051268403
1.8882526855415973 12.68829494488916 64.42854570620653 136.67698904539392
1.890434840842703 12.64641800293251 61.88823175160057 144.39901249566773
