M[M_sun], R[km], Lambda[1], P_c[MeV/fm^3]
0.2416277750616976 15.618515526848569 2160338.09801669 3.5677787854173952
0.25224051476512205 15.314090263753593 1768032.7501000161 3.759408919024228
0.2631508272270507 15.045814218628362 1454127.3096328385 3.958363832403133
0.2743562841333031 14.808634471702197 1201372.4166279177 4.164979914252998
0.28586178268222223 14.598349832002713 996804.5469716104 4.379549644359245
0.29766229932740096 14.41159085247502 830353.8480921113 4.6022273455502996
0.30976255319600976 14.245332301339978 694223.7480871311 4.833424207600092
0.32215989700665776 14.09712858876921 582420.0588813943 5.073437525398349
0.33485669788495115 13.964881878683592 490212.71244523354 5.32257738732695
0.3478548103679776 13.846611891012254 413862.69200279703 5.58109266109077
0.36115162517134314 13.74100554869185 350418.5790397107 5.849393360845466
0.3747523842315183 13.646479887808248 297505.1970381241 6.127840153307583
0.3886542014956 13.562055046687483 253244.15330949108 6.416799714751787
0.4028563020370649 13.486641779758253 216107.60427000863 6.716654130815099
0.41736166553278514 13.419329030620746 184820.34700770385 7.027801504754529
0.43217031764679215 13.359295389013166 158439.67322694176 7.350656596209095
0.4472802818657524 13.305880531249203 136098.78523831686 7.685651492106157
0.46269450273338236 13.258432046340499 117145.16407384281 8.033236311493873
0.4784104699232431 13.216391884337249 101036.35137150696 8.3938799462495
0.494428834692587 13.179275397145032 87302.76899310667 8.7680708398129
0.5107478787781284 13.146630358591395 75562.89392568333 9.156317806322667
0.527367899354452 13.118038954417088 65520.51685187157 9.559150892795358
0.5442860581288296 13.093166159600347 56899.714571292476 9.977122287281455
0.5615044140693822 13.071652863467861 49498.743782880105 10.41080727626464
0.5790179688482414 13.053188131903523 43126.498384369675 10.860805254934746
0.5968257338353102 13.037534464055359 37626.38687489217 11.327740794371104
0.6149268391521528 13.024407415633044 32876.33644244416 11.812264770115693
0.6333174515992307 13.013603968976033 28763.973779604126 12.315055557097535
0.651994432316175 13.004919159029438 25202.455421983777 12.836803450779296
0.6709553768951366 12.99811039941296 22108.248429907268 13.378184184400842
0.6901991298598751 12.993039421745518 19417.90994753166 13.94003835871821
0.7097180065003543 12.989512937812483 17076.887241904627 14.523168726427098
0.7295084702058657 12.987394034016287 15036.503641652525 15.128412853155606
0.7495679494036224 12.986535151989825 13254.871659900173 15.756644854232913
0.7698892352413941 12.98680187364442 11697.94746172359 16.40877724960172
0.7904686414635643 12.988069705138644 10265.541827584977 17.085762947246867
0.8112987169041631 12.990212857416187 9140.305280645665 17.788597366414162
0.8323740562253215 12.9931233484422 8091.91538895914 18.51832071284885
0.8536896317267361 12.99668306475005 7171.975430927564 19.276020419297357
0.8752343101010877 13.000832118320618 6362.571134621907 20.062833765596235
0.8970037457580976 13.00544630233702 5650.480263376079 20.87992152875191
0.9189886673711778 13.010433588486967 5022.459953756668 21.728537074059172
0.9411816828522028 13.015717931550942 4468.774484612055 22.610021157989337
0.9635709858761344 13.021224407298593 3980.2063648562125 23.525743733244596
0.9861503060881274 13.026866754229456 3547.9235908223086 24.477141191825815
1.0089074239287206 13.032595940655442 3165.3896369387276 25.465720439565406
1.0318273821435697 13.038327523466059 2826.727814500298 26.49306328743404
1.054915277273946 13.043957302747854 2526.6492743273334 27.56079489302923
1.0781412041356702 13.049481357935726 2260.5015775750744 28.67061233256346
1.1015031241441218 13.054799633318252 2023.9775831673785 29.824397562862288
1.1249843054656672 13.059877325816187 1813.872611864629 31.024078674003363
1.1485715120765334 13.064645777019296 1626.6807079642203 32.27168609808675
1.1722554401200513 13.069037838011397 1460.2208133195961 33.5693595195707
1.1960179306996694 13.073011285325126 1311.971492947576 34.91935533465591
1.2198471371836683 13.076521462683674 1179.5556902265373 36.32393351706328
1.2437247107759737 13.079504845146936 1061.541013702339 37.78538304132563
1.2676378679462232 13.08192192264464 956.0269550359261 39.30663133789604
1.2915684122724458 13.08371758794376 861.7542985462619 40.890482331505225
1.315500921348802 13.084854118869865 777.4079502729779 42.539325583213895
1.3394183832757625 13.0852734052543 701.8547264298977 44.25668435519577
1.363302606315316 13.084943507633975 634.169475221837 46.04570674133624
1.3871354194646304 13.083819026932852 573.4944062757469 47.90952096027427
1.4109000334533792 13.08185790110073 518.9953161599749 49.85213901103732
1.4345743595063996 13.079024362090536 470.112107938869 51.87694066548004
1.4581415371340856 13.075273308105848 426.11027936378105 53.98821667650124
1.4815836467273407 13.070569178663103 386.5820838455596 56.1903693204747
1.504875515336105 13.064874651739936 350.99962426101723 58.487274468375695
1.528000521973861 13.058149119614692 318.9531430684261 60.88428177988575
1.5509383653100393 13.050364367810126 290.06780931101304 63.386379168991056
1.5736653371396547 13.041484884610757 264.0266420211134 65.99887607312888
1.5961618937865683 13.031468513154795 240.50613320345803 68.7274294576209
1.6183991701322185 13.020281367164825 219.25127757791236 71.57807203063392
1.6403743284340808 13.007922897055618 200.0493205163802 74.5572428719514
1.6620468927962613 12.994324038002054 182.6742317415764 77.67182070168826
1.6833139911635822 12.979500208657942 167.01215718535158 80.93456556740001
1.7015765634271756 12.962520802918068 154.22472448777168 84.50760337927849
1.7158520304369702 12.940967713611283 144.05248236523022 88.47511312712234
1.7266541173347327 12.914015148873624 135.72069965060868 92.85156095702169
1.7344468739429326 12.881413290352276 128.74058384500515 97.65112456106765
1.7396770687857654 12.84333424010171 122.76119885309508 102.88943331988577
1.742677530356207 12.799866818358085 117.51628917328034 108.58346991747199
1.743762715043328 12.751284562448872 112.84566157953026 114.7518098634586
