M[M_sun], R[km], Lambda[1], P_c[MeV/fm^3]
0.2416277750616976 15.618515526848569 2160338.09801669 3.5677787854173952
0.2522399400686978 15.314110018496315 1768128.5566349158 3.7593981609123177
0.26314852716255216 15.045843355162178 1454228.9738861274 3.9583415980450365
0.2743598652532073 14.808475963783613 1201310.038128584 4.164945179893573
0.2858580889907266 14.598453185077132 977465.3262316413 4.379501822185176
0.29765939049721857 14.411637826835113 830423.1315580334 4.602165140594197
0.3097583764710893 14.2453712967083 694262.8353434502 4.833346559889807
0.32215579131354655 14.097163404811967 582445.9776916213 5.0733433263500505
0.3348521795657857 13.964852167055888 490237.9527192781 5.322465477179403
0.3478488680862654 13.846683075308075 413910.9602453873 5.580962849874325
0.36114583471937595 13.741040678657422 350449.66952638346 5.8492435067851485
0.37474406423752576 13.646530873402382 297538.14549451286 6.127668934471034
0.3886388695968331 13.562228300118779 253275.30051438298 6.416605746261613
0.40284589992629616 13.486690547577638 216126.47583486798 6.7164359613735085
0.4173503385652876 13.419369669699142 184837.61103705555 7.027557612945236
0.43215675216457783 13.359359434848711 158444.91734802534 7.35038538656036
0.44726779702792563 13.305918221488689 136119.12322012076 7.685351290898106
0.4626788718876792 13.258490648995874 117162.34381609668 8.032905362291144
0.4783945210502516 13.216435708206292 101052.36092162326 8.393516405139511
0.4944109963806211 13.179326797591104 87317.67987064045 8.767672770327875
0.5107297747307491 13.146661973288913 75573.8473164885 9.15588317402241
0.5273479159622246 13.118083886731846 65531.036607948205 9.558677559485528
0.5442667822890439 13.093204758681003 56911.289793651325 9.976608004840639
0.5614824581781339 13.071658430778376 49506.48047661263 10.410249680051223
0.5789945298984048 13.053211794713844 43132.57658106731 10.860201856742592
0.5968007405601206 13.037556770661675 37633.20915292336 11.327088974900876
0.6148996911438956 13.024434877360825 32882.291916244096 11.811561770925582
0.6332898367711738 13.013618486164777 28768.93516240881 12.31429847199541
0.6519655084748052 13.004939115388721 25206.40731201728 12.83598359680878
0.6709259688928929 12.998127075594152 22113.38617638135 13.377303588826768
0.690167158626973 12.99304148212102 19422.82241407434 13.939093599155543
0.7096838244207676 12.989531596485914 17080.46094196274 14.522156191280246
0.7294732818413842 12.987396462393946 15040.033223090211 15.127328729494945
0.7495303726564948 12.986541903602715 13257.790080679792 15.75548511480867
0.7698511013089616 12.986807758319275 11700.767251830319 16.40753763893015
0.790428338191597 12.988069099640866 10336.709409600197 17.084438966698865
0.811257338293887 12.99020852652919 9142.661732885497 17.787184258230067
0.8323308423939473 12.993112034263119 8093.886552509172 18.516813442997496
0.8536448618085511 12.996687880838314 7173.860868739812 19.27441365909087
0.8751878713382565 13.000815164019537 6363.852971230852 20.061121871963543
0.8969561324233141 13.005431325145768 5652.040443197388 20.878087203741448
0.9189383809865533 13.010424162425032 5023.755809474965 21.726584699887482
0.941130329198547 13.015701504031833 4469.959044726594 22.607943989824054
0.9635183325914943 13.021205672063292 3981.2645339395503 23.523534616091325
0.9860953838119544 13.026859363539092 3548.8658822397297 24.474792532249417
1.008851767183821 13.032576432163163 3166.4981644522977 25.46322417528324
1.0317743338227665 13.038299556476188 2827.6717899665523 26.490410854607912
1.054855031830634 13.043948606144575 2527.3512253170475 27.557993287977453
1.0780803300001678 13.049468445361207 2261.1619805089376 28.667636589220887
1.1014401367622777 13.054791032758562 2024.5910193247037 29.821237426535568
1.1249202056638163 13.059861154983173 1814.4016242503653 31.02072323257693
1.1485057690452178 13.064622636951349 1627.1812380114025 32.26812373475102
1.172187442657812 13.069020037110818 1460.745913930565 33.565577861828224
1.195949666214877 13.072999625905197 1312.3659901223436 34.91534119928511
1.2197755056271593 13.076513744426503 1179.9587262132634 36.319695020386455
1.2436531357950236 13.0794979078095 1061.9197624136807 37.78088411429862
1.267564186360842 13.081913919347503 956.3529542098829 39.30185604209998
1.291493310873635 13.083717275896344 862.0075482023681 40.8854136529807
1.315424535210622 13.084850275782495 777.6842029579558 42.53397173584443
1.3393407620435906 13.085275039389046 702.052628007896 44.25100084062475
1.3632241205828148 13.084944927541272 634.3689163312862 46.03970142082601
1.3870557233456249 13.08382574761874 573.678700262592 47.903144577530696
1.4108176639606684 13.081869061035233 519.1764267244748 49.845398883129576
1.434491998850026 13.079032534516793 470.2561039077486 51.86978216002115
1.4580589618904112 13.07529023165253 426.2648410993117 53.9806463344367
1.4814995550723842 13.070589235225905 386.71207206578106 56.18232641252951
1.504791548506875 13.064894893689935 351.11542164447474 58.47876447815942
1.5279160359464536 13.058176677541542 319.07114438988634 60.875274651180604
1.5508533997636609 13.050396369096399 290.1718475989927 63.37684266222026
1.573579887988875 13.041520955835084 264.1216688709752 65.98877559011082
1.596075700902512 13.031508290440023 240.58853983696574 68.71672785060385
1.6183131377746682 13.02032781617912 219.3183841712635 71.5667293940437
1.640288192318977 13.007974016234282 200.12563229999336 74.54521631510804
1.6619603909134044 12.994382526684984 182.7407141391168 77.65906410056404
1.6833137245257697 12.979535450904505 167.02879228518648 80.91562376649314
1.7043269372973626 12.963400030468634 152.78499321066386 84.32276116493064
1.7249760030680648 12.945953598316338 139.86939738326197 87.88863587850156
1.7452372604380544 12.927166012174933 128.16394162341868 91.62181267549924
1.7650901275091413 12.907009968582944 117.54519473268941 95.5323577618733
1.7845103589911804 12.885456807778642 107.889083020976 99.6295450633567
1.803475936975427 12.862487637938951 99.12770195270613 103.92474738234728
1.8219594986718135 12.838074696175958 91.1500486717334 108.42943035607867
1.8399482849963344 12.812196181953274 83.89959104441564 113.15576764372615
1.8574103761275569 12.784827560149315 77.29149117560964 118.116855245149
1.8743275666464063 12.755956490341093 71.26867813610541 123.32705777018313
1.8906751982781507 12.72555206936933 65.7762772390794 128.80139777743722
1.906432331736571 12.693604718862089 60.77167720098879 134.5564451913531
1.9215776071675874 12.660091961737276 56.20124353503749 140.6100059395498
1.9360892557632594 12.625002677443467 52.02271441459149 146.98036893696914
1.9499428484189303 12.588322511918744 48.20712572796949 153.6886739965686
1.9631220926689 12.550032407901602 44.71285535064641 160.75616198194868
1.9756048595081872 12.510128843775886 41.51948541367467 168.20695299197234
1.9873698011475938 12.468594991376339 38.59127994575749 176.0666996785699
1.998401432357065 12.4254231820674 35.91393342213487 184.36314513894618
2.0078557890510904 12.381763565629498 33.57917791198047 193.32763507494175
2.013327593179681 12.338004220309935 31.812042562046035 203.54091562083659
2.014792419671156 12.291523829754949 30.477205364572782 215.09707016064326
